399.985280,0.175676
400.329500,0.202703
400.673680,0.240506
401.017820,0.220588
401.361920,0.196970
401.705980,0.207317
402.050000,0.324675
402.393980,0.235294
402.737920,0.269663
403.081820,0.226804
403.425680,0.267442
403.769500,0.156250
404.113280,0.195402
404.457020,0.224719
404.800720,0.217391
405.144380,0.232323
405.488000,0.258065
405.831580,0.226804
406.175120,0.170213
406.518620,0.210000
406.862080,0.247423
407.205500,0.145833
407.548880,0.193878
407.892220,0.235294
408.235520,0.223404
408.578780,0.238095
408.922000,0.163462
409.265180,0.232323
409.608320,0.252525
409.951420,0.226804
410.294480,0.254902
410.637500,0.152174
410.980480,0.205882
411.323420,0.173469
411.666320,0.201835
412.009180,0.190909
412.352000,0.099010
412.694780,0.211009
413.037520,0.155963
413.380220,0.225225
413.722880,0.223214
414.065500,0.189189
414.408080,0.168142
414.750620,0.176991
415.093120,0.132231
415.435580,0.201681
415.778000,0.204545
416.120380,0.151261
416.462720,0.190476
416.805020,0.187970
417.147280,0.179104
417.489500,0.185714
417.831680,0.198630
418.173820,0.198582
418.515920,0.202797
418.857980,0.164557
419.200000,0.160256
419.541980,0.201183
419.883920,0.202247
420.225820,0.202312
420.567680,0.173184
420.909500,0.196721
421.251280,0.192708
421.593020,0.198980
421.934720,0.181818
422.276380,0.194872
422.618000,0.181373
422.959580,0.171569
423.301120,0.205479
423.642620,0.165217
423.984080,0.190698
424.325500,0.183857
424.666880,0.185345
425.008220,0.193277
425.349520,0.199153
425.690780,0.188462
426.032000,0.152941
426.373180,0.207469
426.714320,0.207031
427.055420,0.204633
427.396480,0.194757
427.737500,0.169960
428.078480,0.181818
428.419420,0.204819
428.760320,0.183908
429.101180,0.212598
429.442000,0.214559
429.782780,0.180769
430.123520,0.211765
430.464220,0.195572
430.804880,0.233716
431.145500,0.207273
431.486080,0.202247
431.826620,0.205426
432.167120,0.213235
432.507580,0.228261
432.848000,0.215827
433.188380,0.209386
433.528720,0.222642
433.869020,0.214286
434.209280,0.185965
434.549500,0.236934
434.889680,0.222222
435.229820,0.208191
435.569920,0.186851
435.909980,0.207120
436.250000,0.220339
436.589980,0.207430
436.929920,0.238095
437.269820,0.216301
437.609680,0.213018
437.949500,0.243976
438.289280,0.246459
438.629020,0.255814
438.968720,0.215116
439.308380,0.230352
439.648000,0.230137
439.987580,0.235450
440.327120,0.245333
440.666620,0.231169
441.006080,0.250639
441.345500,0.250614
441.684880,0.244019
442.024220,0.235732
442.363520,0.250000
442.702780,0.254545
443.042000,0.262115
443.381180,0.256466
443.720320,0.257019
444.059420,0.247899
444.398480,0.251046
444.737500,0.272541
445.076480,0.255952
445.415420,0.263473
445.754320,0.255717
446.093180,0.266055
446.432000,0.265038
446.770780,0.280835
447.109520,0.275735
447.448220,0.288014
447.786880,0.261181
448.125500,0.279310
448.464080,0.271429
448.802620,0.294326
449.141120,0.294118
449.479580,0.279720
449.818000,0.285714
450.156380,0.285953
450.494720,0.295868
450.833020,0.279720
451.171280,0.280822
451.509500,0.311847
451.847680,0.295110
452.185820,0.301205
452.523920,0.309278
452.861980,0.300169
453.200000,0.302326
453.537980,0.299160
453.875920,0.305882
454.213820,0.303082
454.551680,0.289735
454.889500,0.311973
455.227280,0.306050
455.565020,0.313233
455.902720,0.311148
456.240380,0.317804
456.578000,0.331010
456.915580,0.333333
457.253120,0.327303
457.590620,0.330049
457.928080,0.329966
458.265500,0.336149
458.602880,0.331169
458.940220,0.336717
459.277520,0.332800
459.614780,0.340426
459.952000,0.319876
460.289180,0.349684
460.626320,0.337008
460.963420,0.355412
461.300480,0.340979
461.637500,0.360555
461.974480,0.362385
462.311420,0.354694
462.648320,0.345534
462.985180,0.344333
463.322000,0.372024
463.658780,0.353591
463.995520,0.349381
464.332220,0.362881
464.668880,0.357527
465.005500,0.359249
465.342080,0.359795
465.678620,0.380074
466.015120,0.389392
466.351580,0.372946
466.688000,0.376370
467.024380,0.379101
467.360720,0.377273
467.697020,0.376993
468.033280,0.378889
468.369500,0.392936
468.705680,0.393461
469.041820,0.389583
469.377920,0.394794
469.713980,0.385170
470.050000,0.404831
470.385980,0.388454
470.721920,0.389814
471.057820,0.390838
471.393680,0.396632
471.729500,0.396664
472.065280,0.403399
472.401020,0.401596
472.736720,0.404014
473.072380,0.406643
473.408000,0.399478
473.743580,0.400519
474.079120,0.402239
474.414620,0.402036
474.750080,0.413344
475.085500,0.399671
475.420880,0.407161
475.756220,0.400654
476.091520,0.413470
476.426780,0.406149
476.762000,0.403862
477.097180,0.419200
477.432320,0.417609
477.767420,0.414216
478.102480,0.409449
478.437500,0.419540
478.772480,0.412136
479.107420,0.405207
479.442320,0.420464
479.777180,0.427208
480.112000,0.406780
480.446780,0.410756
480.781520,0.420290
481.116220,0.434115
481.450880,0.416862
481.785500,0.436709
482.120080,0.425549
482.454620,0.432012
482.789120,0.436306
483.123580,0.425234
483.458000,0.439082
483.792380,0.441693
484.126720,0.425483
484.461020,0.426230
484.795280,0.427140
485.129500,0.433359
485.463680,0.427907
485.797820,0.433126
486.131920,0.428462
486.465980,0.441699
486.800000,0.448092
487.133980,0.429003
487.467920,0.438409
487.801820,0.440885
488.135680,0.445792
488.469500,0.436460
488.803280,0.439079
489.137020,0.431502
489.470720,0.436202
489.804380,0.442465
490.138000,0.453264
490.471580,0.445099
490.805120,0.442459
491.138620,0.432836
491.472080,0.452297
491.805500,0.440725
492.138880,0.444058
492.472220,0.440138
492.805520,0.443436
493.138780,0.453480
493.472000,0.436789
493.805180,0.459754
494.138320,0.449633
494.471420,0.445964
494.804480,0.440492
495.137500,0.449294
495.470480,0.444869
495.803420,0.444584
496.136320,0.449248
496.469180,0.437692
496.802000,0.442543
497.134780,0.451789
497.467520,0.450153
497.800220,0.448703
498.132880,0.447972
498.465500,0.444380
498.798080,0.440068
499.130620,0.445255
499.463120,0.442448
499.795580,0.445545
500.128000,0.436512
500.460380,0.441873
500.792720,0.435843
501.125020,0.435628
501.457280,0.441253
501.789500,0.439050
502.121680,0.452566
502.453820,0.443651
502.785920,0.438219
503.117980,0.437684
503.450000,0.440482
503.781980,0.436971
504.113920,0.427691
504.445820,0.441906
504.777680,0.433412
505.109500,0.439423
505.441280,0.437380
505.773020,0.432128
506.104720,0.433820
506.436380,0.441552
506.768000,0.437792
507.099580,0.432037
507.431120,0.425761
507.762620,0.436090
508.094080,0.422060
508.425500,0.431373
508.756880,0.427984
509.088220,0.427783
509.419520,0.428305
509.750780,0.430647
510.082000,0.428172
510.413180,0.421925
510.744320,0.426599
511.075420,0.418423
511.406480,0.422661
511.737500,0.421296
512.068480,0.421523
512.399420,0.417840
512.730320,0.401386
513.061180,0.425785
513.392000,0.411737
513.722780,0.413545
514.053520,0.412554
514.384220,0.407707
514.714880,0.412638
515.045500,0.399904
515.376080,0.410169
515.706620,0.412080
516.037120,0.404902
516.367580,0.402169
516.698000,0.400980
517.028380,0.403674
517.358720,0.408889
517.689020,0.400593
518.019280,0.399900
518.349500,0.408515
518.679680,0.400303
519.009820,0.395749
519.339920,0.399800
519.669980,0.381718
520.000000,0.401426
520.329980,0.392950
520.659920,0.392638
520.989820,0.392157
521.319680,0.392490
521.649500,0.387147
521.979280,0.394050
522.309020,0.386929
522.638720,0.377880
522.968380,0.387797
523.298000,0.392484
523.627580,0.376099
523.957120,0.383377
524.286620,0.383012
524.616080,0.379524
524.945500,0.372610
525.274880,0.379682
525.604220,0.378882
525.933520,0.373166
526.262780,0.371515
526.592000,0.367326
526.921180,0.371762
527.250320,0.361238
527.579420,0.370389
527.908480,0.373708
528.237500,0.370407
528.566480,0.362774
528.895420,0.360276
529.224320,0.365527
529.553180,0.363373
529.882000,0.365937
530.210780,0.352799
530.539520,0.357622
530.868220,0.354236
531.196880,0.355471
531.525500,0.347700
531.854080,0.349906
532.182620,0.346567
532.511120,0.343387
532.839580,0.355263
533.168000,0.357338
533.496380,0.350228
533.824720,0.340511
534.153020,0.339724
534.481280,0.335242
534.809500,0.350484
535.137680,0.335503
535.465820,0.333763
535.793920,0.333333
536.121980,0.332774
536.450000,0.340803
536.777980,0.340176
537.105920,0.336239
537.433820,0.327741
537.761680,0.330204
538.089500,0.331445
538.417280,0.327099
538.745020,0.320523
539.072720,0.314330
539.400380,0.323232
539.728000,0.322371
540.055580,0.316854
540.383120,0.316456
540.710620,0.319196
541.038080,0.316488
541.365500,0.313971
541.692880,0.309593
542.020220,0.310543
542.347520,0.311917
542.674780,0.312279
543.002000,0.305458
543.329180,0.306559
543.656320,0.312588
543.983420,0.294701
544.310480,0.301393
544.637500,0.299898
544.964480,0.294751
545.291420,0.296444
545.618320,0.298141
545.945180,0.292024
546.272000,0.287025
546.598780,0.289413
546.925520,0.289482
547.252220,0.290525
547.578880,0.293255
547.905500,0.286928
548.232080,0.281027
548.558620,0.282460
548.885120,0.283939
549.211580,0.277081
549.538000,0.278210
549.864380,0.277492
550.190720,0.273168
550.517020,0.270860
550.843280,0.275244
551.169500,0.269402
551.495680,0.270368
551.821820,0.272698
552.147920,0.269356
552.473980,0.267698
552.800000,0.262590
553.125980,0.262279
553.451920,0.260451
553.777820,0.265823
554.103680,0.263566
554.429500,0.253097
554.755280,0.255340
555.081020,0.251337
555.406720,0.251270
555.732380,0.251101
556.058000,0.254243
556.383580,0.249572
556.709120,0.251551
557.034620,0.245952
557.360080,0.245941
557.685500,0.245851
558.010880,0.244367
558.336220,0.244640
558.661520,0.243176
558.986780,0.242381
559.312000,0.241809
559.637180,0.236625
559.962320,0.240299
560.287420,0.233780
560.612480,0.230355
560.937500,0.238253
561.262480,0.229472
561.587420,0.232136
561.912320,0.229182
562.237180,0.228719
562.562000,0.228208
562.886780,0.232256
563.211520,0.222802
563.536220,0.220779
563.860880,0.219163
564.185500,0.218762
564.510080,0.220090
564.834620,0.221064
565.159120,0.215789
565.483580,0.215887
565.808000,0.210367
566.132380,0.211861
566.456720,0.213530
566.781020,0.214179
567.105280,0.212476
567.429500,0.210167
567.753680,0.212888
568.077820,0.207963
568.401920,0.211612
568.725980,0.209488
569.050000,0.208745
569.373980,0.207080
569.697920,0.201744
570.021820,0.201498
570.345680,0.198240
570.669500,0.204502
570.993280,0.199705
571.317020,0.201315
571.640720,0.201556
571.964380,0.200445
572.288000,0.204377
572.611580,0.199176
572.935120,0.196783
573.258620,0.199327
573.582080,0.196349
573.905500,0.192107
574.228880,0.198589
574.552220,0.192378
574.875520,0.192852
575.198780,0.192989
575.522000,0.191716
575.845180,0.184814
576.168320,0.194035
576.491420,0.195131
576.814480,0.190597
577.137500,0.189755
577.460480,0.189561
577.783420,0.186852
578.106320,0.188034
578.429180,0.191587
578.752000,0.185481
579.074780,0.188806
579.397520,0.183667
579.720220,0.188867
580.042880,0.185993
580.365500,0.181999
580.688080,0.183175
581.010620,0.184610
581.333120,0.183033
581.655580,0.181485
581.978000,0.184569
582.300380,0.181110
582.622720,0.180290
582.945020,0.179129
583.267280,0.183979
583.589500,0.179775
583.911680,0.179740
584.233820,0.178785
584.555920,0.175859
584.877980,0.177450
585.200000,0.174340
585.521980,0.180105
585.843920,0.174802
586.165820,0.169409
586.487680,0.172134
586.809500,0.176718
587.131280,0.173322
587.453020,0.174107
587.774720,0.174453
588.096380,0.172404
588.418000,0.176763
588.739580,0.177350
589.061120,0.177113
589.382620,0.173639
589.704080,0.172511
590.025500,0.172089
590.346880,0.174817
590.668220,0.170820
590.989520,0.169717
591.310780,0.173157
591.632000,0.174044
591.953180,0.176861
592.274320,0.171444
592.595420,0.170528
592.916480,0.170334
593.237500,0.171113
593.558480,0.173258
593.879420,0.176153
594.200320,0.172248
594.521180,0.172908
594.842000,0.170876
595.162780,0.172276
595.483520,0.168572
595.804220,0.172664
596.124880,0.172662
596.445500,0.173697
596.766080,0.174240
597.086620,0.167994
597.407120,0.170616
597.727580,0.175020
598.048000,0.171648
598.368380,0.169911
598.688720,0.174312
599.009020,0.170648
599.329280,0.170037
599.649500,0.171685
599.969680,0.171207
600.289820,0.170139
600.609920,0.170986
600.929980,0.168626
601.250000,0.170811
601.569980,0.169052
601.889920,0.167335
602.209820,0.172619
602.529680,0.176600
602.849500,0.170213
603.169280,0.171397
603.489020,0.173817
603.808720,0.170598
604.128380,0.179636
604.448000,0.175691
604.767580,0.176257
605.087120,0.170914
605.406620,0.173524
605.726080,0.176789
606.045500,0.167177
606.364880,0.174086
606.684220,0.178755
607.003520,0.176319
607.322780,0.173962
607.642000,0.172028
607.961180,0.174328
608.280320,0.177784
608.599420,0.177578
608.918480,0.180059
609.237500,0.176350
609.556480,0.179935
609.875420,0.182221
610.194320,0.178034
610.513180,0.181415
610.832000,0.183145
611.150780,0.184740
611.469520,0.182504
611.788220,0.182890
612.106880,0.182750
612.425500,0.185445
612.744080,0.183749
613.062620,0.182263
613.381120,0.184034
613.699580,0.182710
614.018000,0.186118
614.336380,0.184762
614.654720,0.184186
614.973020,0.188522
615.291280,0.190579
615.609500,0.188273
615.927680,0.186341
616.245820,0.185838
616.563920,0.189929
616.881980,0.190833
617.200000,0.192535
617.517980,0.193217
617.835920,0.188568
618.153820,0.192726
618.471680,0.189147
618.789500,0.194462
619.107280,0.194053
619.425020,0.196638
619.742720,0.197112
620.060380,0.194923
620.378000,0.199811
620.695580,0.197318
621.013120,0.200315
621.330620,0.203326
621.648080,0.195899
621.965500,0.203262
622.282880,0.201450
622.600220,0.203095
622.917520,0.202583
623.234780,0.212793
623.552000,0.209739
623.869180,0.202962
624.186320,0.207896
624.503420,0.212539
624.820480,0.214263
625.137500,0.211557
625.454480,0.216318
625.771420,0.209962
626.088320,0.214376
626.405180,0.212819
626.722000,0.212359
627.038780,0.214912
627.355520,0.210937
627.672220,0.218663
627.988880,0.216485
628.305500,0.217513
628.622080,0.223048
628.938620,0.218349
629.255120,0.226820
629.571580,0.221575
629.888000,0.223381
630.204380,0.220620
630.520720,0.224863
630.837020,0.230342
631.153280,0.230516
631.469500,0.231049
631.785680,0.232972
632.101820,0.232811
632.417920,0.230402
632.733980,0.232293
633.050000,0.237720
633.365980,0.234736
633.681920,0.240453
633.997820,0.236701
634.313680,0.239162
634.629500,0.238278
634.945280,0.237537
635.261020,0.245084
635.576720,0.246917
635.892380,0.246297
636.208000,0.245497
636.523580,0.245250
636.839120,0.245223
637.154620,0.250725
637.470080,0.249928
637.785500,0.256155
638.100880,0.251086
638.416220,0.250503
638.731520,0.252436
639.046780,0.252840
639.362000,0.252007
639.677180,0.258709
639.992320,0.258528
640.307420,0.260466
640.622480,0.260151
640.937500,0.259917
641.252480,0.268082
641.567420,0.268258
641.882320,0.267539
642.197180,0.269792
642.512000,0.269801
642.826780,0.270180
643.141520,0.267852
643.456220,0.270891
643.770880,0.273355
644.085500,0.276970
644.400080,0.277528
644.714620,0.274805
645.029120,0.275853
645.343580,0.282776
645.658000,0.284485
645.972380,0.281995
646.286720,0.285636
646.601020,0.288126
646.915280,0.288182
647.229500,0.284341
647.543680,0.286661
647.857820,0.289843
648.171920,0.292187
648.485980,0.292409
648.800000,0.286856
649.113980,0.293237
649.427920,0.299861
649.741820,0.300082
650.055680,0.301700
650.369500,0.298767
650.683280,0.297447
650.997020,0.302255
651.310720,0.298019
651.624380,0.304121
651.938000,0.309972
652.251580,0.310604
652.565120,0.299609
652.878620,0.314471
653.192080,0.311236
653.505500,0.309958
653.818880,0.317885
654.132220,0.314725
654.445520,0.317924
654.758780,0.318414
655.072000,0.314900
655.385180,0.320685
655.698320,0.316090
656.011420,0.328174
656.324480,0.324395
656.637500,0.321263
656.950480,0.326776
657.263420,0.329885
657.576320,0.322858
657.889180,0.331171
658.202000,0.333635
658.514780,0.331646
658.827520,0.337935
659.140220,0.336829
659.452880,0.338266
659.765500,0.335039
660.078080,0.336744
660.390620,0.335167
660.703120,0.340972
661.015580,0.342331
661.328000,0.348237
661.640380,0.348555
661.952720,0.341950
662.265020,0.347196
662.577280,0.353053
662.889500,0.343109
663.201680,0.351627
663.513820,0.351238
663.825920,0.352866
664.137980,0.357789
664.450000,0.352941
664.761980,0.356792
665.073920,0.356378
665.385820,0.359620
665.697680,0.357686
666.009500,0.364150
666.321280,0.364480
666.633020,0.363697
666.944720,0.370071
667.256380,0.365074
667.568000,0.371264
667.879580,0.372789
668.191120,0.372940
668.502620,0.369394
668.814080,0.375088
669.125500,0.373589
669.436880,0.378285
669.748220,0.382485
670.059520,0.379902
670.370780,0.383786
670.682000,0.383363
670.993180,0.389711
671.304320,0.384669
671.615420,0.384943
671.926480,0.389283
672.237500,0.381208
672.548480,0.388928
672.859420,0.395282
673.170320,0.398622
673.481180,0.396452
673.792000,0.393797
674.102780,0.395332
674.413520,0.402479
674.724220,0.398911
675.034880,0.405574
675.345500,0.398614
675.656080,0.409437
675.966620,0.403056
676.277120,0.407909
676.587580,0.409794
676.898000,0.404629
677.208380,0.411460
677.518720,0.406273
677.829020,0.411678
678.139280,0.413269
678.449500,0.418121
678.759680,0.415511
679.069820,0.417100
679.379920,0.423614
679.689980,0.416636
680.000000,0.419813
680.309980,0.428359
680.619920,0.429761
680.929820,0.429638
681.239680,0.430576
681.549500,0.429259
681.859280,0.428305
682.169020,0.432674
682.478720,0.440912
682.788380,0.433739
683.098000,0.431563
683.407580,0.443527
683.717120,0.441066
684.026620,0.437500
684.336080,0.446760
684.645500,0.439955
684.954880,0.438232
685.264220,0.451114
685.573520,0.461363
685.882780,0.453778
686.192000,0.446576
686.501180,0.450624
686.810320,0.458878
687.119420,0.452300
687.428480,0.453855
687.737500,0.458941
688.046480,0.463957
688.355420,0.466616
688.664320,0.465953
688.973180,0.465544
689.282000,0.464506
689.590780,0.462807
689.899520,0.466008
690.208220,0.467508
690.516880,0.470409
690.825500,0.472075
691.134080,0.470767
691.442620,0.474466
691.751120,0.470990
692.059580,0.480703
692.368000,0.473306
692.676380,0.476718
692.984720,0.480534
693.293020,0.481003
693.601280,0.480351
693.909500,0.485055
694.217680,0.485149
694.525820,0.477532
694.833920,0.489508
695.141980,0.495179
695.450000,0.493130
695.757980,0.491979
696.065920,0.492039
696.373820,0.496151
696.681680,0.483314
696.989500,0.491702
697.297280,0.493582
697.605020,0.506349
697.912720,0.497310
698.220380,0.499803
698.528000,0.507120
698.835580,0.505334
699.143120,0.492206
699.450620,0.503580
699.758080,0.502353
700.065500,0.511572
700.372880,0.516400
700.680220,0.510969
700.987520,0.514683
701.294780,0.513382
701.602000,0.508320
701.909180,0.520270
702.216320,0.505671
702.523420,0.517364
702.830480,0.525545
703.137500,0.528449
703.444480,0.532939
703.751420,0.520316
704.058320,0.535022
704.365180,0.530757
704.672000,0.532673
704.978780,0.528677
705.285520,0.528951
705.592220,0.525490
705.898880,0.531521
706.205500,0.537950
706.512080,0.537125
706.818620,0.544505
707.125120,0.538077
707.431580,0.533411
707.738000,0.540625
708.044380,0.534929
708.350720,0.546045
708.657020,0.547870
708.963280,0.541925
709.269500,0.542466
709.575680,0.552063
709.881820,0.551101
710.187920,0.550195
710.493980,0.553918
710.800000,0.558352
711.105980,0.549699
711.411920,0.557745
711.717820,0.550877
712.023680,0.556160
712.329500,0.570978
712.635280,0.561628
712.941020,0.562428
713.246720,0.566008
713.552380,0.567896
713.858000,0.562081
714.163580,0.555643
714.469120,0.562329
714.774620,0.574023
715.080080,0.570868
715.385500,0.574740
715.690880,0.574359
715.996220,0.579635
716.301520,0.572727
716.606780,0.571541
716.912000,0.580372
717.217180,0.583400
717.522320,0.566998
717.827420,0.584622
718.132480,0.588519
718.437500,0.591928
718.742480,0.582258
719.047420,0.586974
719.352320,0.583645
719.657180,0.587899
719.962000,0.582713
720.266780,0.591608
720.571520,0.587407
720.876220,0.592471
721.180880,0.584866
721.485500,0.591726
721.790080,0.590658
722.094620,0.601201
722.399120,0.601896
722.703580,0.591942
723.008000,0.609746
723.312380,0.594059
723.616720,0.594985
723.921020,0.606323
724.225280,0.609948
724.529500,0.600263
724.833680,0.612544
725.137820,0.599559
725.441920,0.601872
725.745980,0.615213
726.050000,0.606225
726.353980,0.612889
726.657920,0.607287
726.961820,0.621461
727.265680,0.621359
727.569500,0.611060
727.873280,0.618938
728.177020,0.618148
728.480720,0.622222
728.784380,0.620009
729.088000,0.629298
729.391580,0.607295
729.695120,0.621401
729.998620,0.615201
730.302080,0.615089
730.605500,0.620573
730.908880,0.626164
731.212220,0.624878
731.515520,0.631399
731.818780,0.612136
732.122000,0.625984
732.425180,0.629374
732.728320,0.622211
733.031420,0.629574
733.334480,0.628061
733.637500,0.622480
733.940480,0.639202
734.243420,0.621814
734.546320,0.644191
734.849180,0.625517
735.152000,0.635373
735.454780,0.641012
735.757520,0.632244
736.060220,0.639810
736.362880,0.639706
736.665500,0.626632
736.968080,0.638366
737.270620,0.638541
737.573120,0.649563
737.875580,0.654206
738.178000,0.656505
738.480380,0.656216
738.782720,0.639586
739.085020,0.639317
739.387280,0.648559
739.689500,0.652888
739.991680,0.661988
740.293820,0.657269
740.595920,0.652755
740.897980,0.666855
741.200000,0.642176
741.501980,0.657307
741.803920,0.650901
742.105820,0.648054
742.407680,0.662202
742.709500,0.647727
743.011280,0.652403
743.313020,0.663768
743.614720,0.648288
743.916380,0.656395
744.218000,0.660501
744.519580,0.670894
744.821120,0.673054
745.122620,0.670461
745.424080,0.650841
745.725500,0.673506
746.026880,0.666256
746.328220,0.674476
746.629520,0.656231
746.930780,0.659926
747.232000,0.655426
747.533180,0.678462
747.834320,0.676811
748.135420,0.670603
748.436480,0.681847
748.737500,0.665843
749.038480,0.668907
749.339420,0.680149
749.640320,0.675047
749.941180,0.673954
750.242000,0.678392
750.542780,0.669975
750.843520,0.674568
751.144220,0.689744
751.444880,0.686747
751.745500,0.679221
752.046080,0.699166
752.346620,0.670747
752.647120,0.672763
752.947580,0.682406
753.248000,0.687943
753.548380,0.667534
753.848720,0.675467
754.149020,0.667311
754.449280,0.696651
754.749500,0.684141
755.049680,0.690667
755.349820,0.686458
755.649920,0.692664
755.949980,0.685468
756.250000,0.687048
756.549980,0.688449
756.849920,0.694086
757.149820,0.689288
757.449680,0.698350
757.749500,0.695297
758.049280,0.686007
758.349020,0.685675
758.648720,0.703934
758.948380,0.693471
759.248000,0.716981
759.547580,0.708137
759.847120,0.700896
760.146620,0.699594
760.446080,0.694220
760.745500,0.697203
761.044880,0.710227
761.344220,0.704918
761.643520,0.692090
761.942780,0.706088
762.242000,0.714286
762.541180,0.711268
762.840320,0.694522
763.139420,0.708861
763.438480,0.701299
763.737500,0.710544
764.036480,0.703704
764.335420,0.708539
764.634320,0.711019
764.933180,0.711644
765.232000,0.712006
765.530780,0.716491
765.829520,0.727972
766.128220,0.716771
766.426880,0.712154
766.725500,0.708019
767.024080,0.711248
767.322620,0.714385
767.621120,0.720190
767.919580,0.722867
768.218000,0.729138
768.516380,0.731575
768.814720,0.713992
769.113020,0.731220
769.411280,0.730663
769.709500,0.721245
770.007680,0.726653
770.305820,0.711291
770.603920,0.714960
770.901980,0.718579
771.200000,0.709239
771.497980,0.715147
771.795920,0.720401
772.093820,0.717914
772.391680,0.722479
772.689500,0.721622
772.987280,0.721212
773.285020,0.717020
773.582720,0.727703
773.880380,0.736445
774.178000,0.734151
774.475580,0.722036
774.773120,0.724900
775.070620,0.727519
775.368080,0.722111
775.665500,0.719946
775.962880,0.727151
776.260220,0.728802
776.557520,0.740494
776.854780,0.738337
777.152000,0.721485
777.449180,0.729602
777.746320,0.727151
778.043420,0.731924
778.340480,0.730041
778.637500,0.746450
778.934480,0.727640
779.231420,0.739484
779.528320,0.724115
779.825180,0.720685
780.122000,0.713147
780.418780,0.745554
780.715520,0.741113
781.012220,0.740411
781.308880,0.741717
781.605500,0.731507
781.902080,0.728953
782.198620,0.739576
782.495120,0.742798
782.791580,0.738652
783.088000,0.737750
783.384380,0.748968
783.680720,0.737346
783.977020,0.731590
784.273280,0.745455
784.569500,0.748428
784.865680,0.753129
785.161820,0.736111
785.457920,0.729730
785.753980,0.744592
786.050000,0.728591
786.345980,0.744444
786.641920,0.749480
786.937820,0.757123
787.233680,0.723730
787.529500,0.754508
787.825280,0.737252
788.121020,0.745042
788.416720,0.745236
788.712380,0.739774
789.008000,0.735127
789.303580,0.732862
789.599120,0.762182
789.894620,0.755957
790.190080,0.750544
790.485500,0.746580
790.780880,0.739785
791.076220,0.748918
791.371520,0.739288
791.666780,0.751273
791.962000,0.754592
792.257180,0.751830
792.552320,0.754895
792.847420,0.754003
793.142480,0.761172
793.437500,0.746744
793.732480,0.753475
794.027420,0.744065
794.322320,0.759135
794.617180,0.766716
794.912000,0.751857
795.206780,0.756898
795.501520,0.758175
795.796220,0.753333
796.090880,0.770912
796.385500,0.762369
796.680080,0.752431
796.974620,0.746257
797.269120,0.749432
797.563580,0.754962
797.858000,0.759301
798.152380,0.764888
798.446720,0.766923
798.741020,0.749615
799.035280,0.753106
799.329500,0.747498
799.623680,0.759690
