399.985280,0.148649
400.329500,0.243243
400.673680,0.164557
401.017820,0.220588
401.361920,0.181818
401.705980,0.207317
402.050000,0.129870
402.393980,0.211765
402.737920,0.191011
403.081820,0.206186
403.425680,0.267442
403.769500,0.187500
404.113280,0.160920
404.457020,0.213483
404.800720,0.195652
405.144380,0.282828
405.488000,0.258065
405.831580,0.298969
406.175120,0.244681
406.518620,0.220000
406.862080,0.237113
407.205500,0.208333
407.548880,0.204082
407.892220,0.235294
408.235520,0.287234
408.578780,0.228571
408.922000,0.230769
409.265180,0.252525
409.608320,0.272727
409.951420,0.288660
410.294480,0.274510
410.637500,0.293478
410.980480,0.264706
411.323420,0.224490
411.666320,0.275229
412.009180,0.281818
412.352000,0.237624
412.694780,0.256881
413.037520,0.284404
413.380220,0.279279
413.722880,0.321429
414.065500,0.279279
414.408080,0.221239
414.750620,0.274336
415.093120,0.231405
415.435580,0.302521
415.778000,0.340909
416.120380,0.277311
416.462720,0.277778
416.805020,0.338346
417.147280,0.276119
417.489500,0.314286
417.831680,0.273973
418.173820,0.340426
418.515920,0.300699
418.857980,0.265823
419.200000,0.333333
419.541980,0.337278
419.883920,0.303371
420.225820,0.306358
420.567680,0.284916
420.909500,0.349727
421.251280,0.343750
421.593020,0.331633
421.934720,0.277778
422.276380,0.333333
422.618000,0.328431
422.959580,0.382353
423.301120,0.324201
423.642620,0.300000
423.984080,0.306977
424.325500,0.340807
424.666880,0.331897
425.008220,0.327731
425.349520,0.338983
425.690780,0.303846
426.032000,0.321569
426.373180,0.365145
426.714320,0.335937
427.055420,0.351351
427.396480,0.318352
427.737500,0.324111
428.078480,0.359684
428.419420,0.345382
428.760320,0.356322
429.101180,0.358268
429.442000,0.340996
429.782780,0.334615
430.123520,0.364706
430.464220,0.335793
430.804880,0.394636
431.145500,0.363636
431.486080,0.359551
431.826620,0.368217
432.167120,0.386029
432.507580,0.369565
432.848000,0.352518
433.188380,0.375451
433.528720,0.384906
433.869020,0.360714
434.209280,0.347368
434.549500,0.379791
434.889680,0.383838
435.229820,0.368601
435.569920,0.370242
435.909980,0.359223
436.250000,0.396610
436.589980,0.365325
436.929920,0.390476
437.269820,0.391850
437.609680,0.387574
437.949500,0.388554
438.289280,0.376771
438.629020,0.395349
438.968720,0.401163
439.308380,0.371274
439.648000,0.372603
439.987580,0.394180
440.327120,0.405333
440.666620,0.394805
441.006080,0.398977
441.345500,0.412776
441.684880,0.397129
442.024220,0.409429
442.363520,0.407143
442.702780,0.372727
443.042000,0.405286
443.381180,0.409483
443.720320,0.425486
444.059420,0.394958
444.398480,0.410042
444.737500,0.407787
445.076480,0.406746
445.415420,0.409182
445.754320,0.403326
446.093180,0.409174
446.432000,0.419173
446.770780,0.421252
447.109520,0.430147
447.448220,0.407871
447.786880,0.420394
448.125500,0.420690
448.464080,0.410714
448.802620,0.406028
449.141120,0.415225
449.479580,0.414336
449.818000,0.426850
450.156380,0.406355
450.494720,0.431405
450.833020,0.417832
451.171280,0.417808
451.509500,0.445993
451.847680,0.430017
452.185820,0.433735
452.523920,0.441581
452.861980,0.414840
453.200000,0.428571
453.537980,0.408403
453.875920,0.420168
454.213820,0.416096
454.551680,0.428808
454.889500,0.414840
455.227280,0.423488
455.565020,0.420436
455.902720,0.427621
456.240380,0.415973
456.578000,0.432056
456.915580,0.426598
457.253120,0.411184
457.590620,0.410509
457.928080,0.437710
458.265500,0.434122
458.602880,0.413961
458.940220,0.428088
459.277520,0.411200
459.614780,0.432079
459.952000,0.420807
460.289180,0.443038
460.626320,0.436220
460.963420,0.424879
461.300480,0.432722
461.637500,0.416025
461.974480,0.431193
462.311420,0.427720
462.648320,0.412884
462.985180,0.411765
463.322000,0.431548
463.658780,0.410221
463.995520,0.420908
464.332220,0.425208
464.668880,0.420699
465.005500,0.434316
465.342080,0.419974
465.678620,0.410824
466.015120,0.416559
466.351580,0.437421
466.688000,0.432400
467.024380,0.417983
467.360720,0.412500
467.697020,0.421412
468.033280,0.411111
468.369500,0.410596
468.705680,0.416009
469.041820,0.412500
469.377920,0.415401
469.713980,0.409887
470.050000,0.404831
470.385980,0.409980
470.721920,0.402547
471.057820,0.409357
471.393680,0.403181
471.729500,0.414272
472.065280,0.410555
472.401020,0.403369
472.736720,0.394415
473.072380,0.403052
473.408000,0.410792
473.743580,0.411765
474.079120,0.409130
474.414620,0.401187
474.750080,0.394630
475.085500,0.397204
475.420880,0.403830
475.756220,0.396566
476.091520,0.396419
476.426780,0.399676
476.762000,0.381335
477.097180,0.396000
477.432320,0.390953
477.767420,0.392157
478.102480,0.384252
478.437500,0.386700
478.772480,0.377463
479.107420,0.372661
479.442320,0.382094
479.777180,0.386635
480.112000,0.385208
480.446780,0.374903
480.781520,0.376812
481.116220,0.391269
481.450880,0.370023
481.785500,0.383703
482.120080,0.373824
482.454620,0.372183
482.789120,0.376592
483.123580,0.374611
483.458000,0.360759
483.792380,0.376997
484.126720,0.364479
484.461020,0.364559
484.795280,0.370856
485.129500,0.367108
485.463680,0.364341
485.797820,0.374028
486.131920,0.358837
486.465980,0.364479
486.800000,0.363359
487.133980,0.359517
487.467920,0.364958
487.801820,0.352403
488.135680,0.353298
488.469500,0.353253
488.803280,0.348440
489.137020,0.346520
489.470720,0.355341
489.804380,0.350408
490.138000,0.352374
490.471580,0.353721
490.805120,0.338813
491.138620,0.336176
491.472080,0.346290
491.805500,0.334728
492.138880,0.333565
492.472220,0.346021
492.805520,0.353352
493.138780,0.332874
493.472000,0.331773
493.805180,0.341064
494.138320,0.327552
494.471420,0.326823
494.804480,0.324709
495.137500,0.331836
495.470480,0.331421
495.803420,0.324937
496.136320,0.331454
496.469180,0.319214
496.802000,0.322127
497.134780,0.316555
497.467520,0.326606
497.800220,0.316038
498.132880,0.312169
498.465500,0.311124
498.798080,0.307078
499.130620,0.312184
499.463120,0.311061
499.795580,0.302530
500.128000,0.306267
500.460380,0.304629
500.792720,0.295334
501.125020,0.301629
501.457280,0.295561
501.789500,0.293388
502.121680,0.303266
502.453820,0.288628
502.785920,0.293647
503.117980,0.289990
503.450000,0.292315
503.781980,0.282013
504.113920,0.277857
504.445820,0.286339
504.777680,0.277176
505.109500,0.288462
505.441280,0.279159
505.773020,0.282292
506.104720,0.276024
506.436380,0.278277
506.768000,0.275023
507.099580,0.267277
507.431120,0.276815
507.762620,0.268327
508.094080,0.265725
508.425500,0.274977
508.756880,0.265203
509.088220,0.260810
509.419520,0.260708
509.750780,0.261949
510.082000,0.258396
510.413180,0.259788
510.744320,0.261390
511.075420,0.254812
511.406480,0.248707
511.737500,0.249074
512.068480,0.251410
512.399420,0.248357
512.730320,0.242956
513.061180,0.246908
513.392000,0.249882
513.722780,0.246398
514.053520,0.245328
514.384220,0.239296
514.714880,0.237913
515.045500,0.238027
515.376080,0.235835
515.706620,0.233804
516.037120,0.228922
516.367580,0.233613
516.698000,0.226961
517.028380,0.227905
517.358720,0.231111
517.689020,0.228487
518.019280,0.228299
518.349500,0.230106
518.679680,0.223624
519.009820,0.221154
519.339920,0.223948
519.669980,0.218985
520.000000,0.220071
520.329980,0.210472
520.659920,0.218303
520.989820,0.222394
521.319680,0.216049
521.649500,0.213368
521.979280,0.219207
522.309020,0.205913
522.638720,0.213006
522.968380,0.212513
523.298000,0.209290
523.627580,0.206932
523.957120,0.204675
524.286620,0.205315
524.616080,0.205791
524.945500,0.203618
525.274880,0.208825
525.604220,0.195135
525.933520,0.197065
526.262780,0.191080
526.592000,0.200913
526.921180,0.197562
527.250320,0.192288
527.579420,0.194037
527.908480,0.190054
528.237500,0.194638
528.566480,0.193114
528.895420,0.191720
529.224320,0.193165
529.553180,0.188434
529.882000,0.200487
530.210780,0.187259
530.539520,0.183605
530.868220,0.179990
531.196880,0.180602
531.525500,0.184504
531.854080,0.181520
532.182620,0.181691
532.511120,0.178190
532.839580,0.175136
533.168000,0.184139
533.496380,0.179452
533.824720,0.180799
534.153020,0.177441
534.481280,0.175330
534.809500,0.182058
535.137680,0.171875
535.465820,0.177835
535.793920,0.172166
536.121980,0.166597
536.450000,0.172093
536.777980,0.171764
537.105920,0.168120
537.433820,0.167758
537.761680,0.168980
538.089500,0.167948
538.417280,0.163152
538.745020,0.174723
539.072720,0.165560
539.400380,0.170163
539.728000,0.168260
540.055580,0.161798
540.383120,0.160834
540.710620,0.160714
541.038080,0.161564
541.365500,0.161397
541.692880,0.160974
542.020220,0.158330
542.347520,0.156497
542.674780,0.161256
543.002000,0.158502
543.329180,0.158892
543.656320,0.162799
543.983420,0.154188
544.310480,0.156303
544.637500,0.161037
544.964480,0.158143
545.291420,0.158524
545.618320,0.156707
545.945180,0.156229
546.272000,0.158257
546.598780,0.156670
546.925520,0.152984
547.252220,0.149884
547.578880,0.154774
547.905500,0.154902
548.232080,0.154646
548.558620,0.155223
548.885120,0.155054
549.211580,0.152363
549.538000,0.151751
549.864380,0.155949
550.190720,0.155957
550.517020,0.153846
550.843280,0.154072
551.169500,0.150445
551.495680,0.153088
551.821820,0.154474
552.147920,0.152570
552.473980,0.153770
552.800000,0.150425
553.125980,0.155861
553.451920,0.150630
553.777820,0.154897
554.103680,0.153691
554.429500,0.151657
554.755280,0.152203
555.081020,0.153409
555.406720,0.147985
555.732380,0.151474
556.058000,0.155465
556.383580,0.151318
556.709120,0.151964
557.034620,0.153634
557.360080,0.151295
557.685500,0.150069
558.010880,0.152860
558.336220,0.149033
558.661520,0.151719
558.986780,0.151311
559.312000,0.153490
559.637180,0.152244
559.962320,0.156283
560.287420,0.155148
560.612480,0.150341
560.937500,0.154185
561.262480,0.157625
561.587420,0.158868
561.912320,0.157332
562.237180,0.154700
562.562000,0.157501
562.886780,0.161650
563.211520,0.153875
563.536220,0.156215
563.860880,0.157299
564.185500,0.154221
564.510080,0.159895
564.834620,0.163751
565.159120,0.160902
565.483580,0.155074
565.808000,0.155883
566.132380,0.155912
566.456720,0.157974
566.781020,0.160165
567.105280,0.159546
567.429500,0.161988
567.753680,0.164173
568.077820,0.160804
568.401920,0.164629
568.725980,0.163567
569.050000,0.165019
569.373980,0.163685
569.697920,0.166098
570.021820,0.164794
570.345680,0.165327
570.669500,0.167875
570.993280,0.169804
571.317020,0.171721
571.640720,0.176732
571.964380,0.173348
572.288000,0.169881
572.611580,0.172595
572.935120,0.173588
573.258620,0.174645
573.582080,0.174367
573.905500,0.172748
574.228880,0.175575
574.552220,0.176621
574.875520,0.176471
575.198780,0.174196
575.522000,0.175587
575.845180,0.176218
576.168320,0.173194
576.491420,0.181323
576.814480,0.185172
577.137500,0.181818
577.460480,0.182312
577.783420,0.181493
578.106320,0.185185
578.429180,0.185224
578.752000,0.183397
579.074780,0.182401
579.397520,0.189154
579.720220,0.184685
580.042880,0.193261
580.365500,0.194904
580.688080,0.192673
581.010620,0.187985
581.333120,0.194055
581.655580,0.191808
581.978000,0.192218
582.300380,0.193444
582.622720,0.197100
582.945020,0.201886
583.267280,0.195376
583.589500,0.203852
583.911680,0.205462
584.233820,0.200189
584.555920,0.204223
584.877980,0.204774
585.200000,0.202578
585.521980,0.206673
585.843920,0.204698
586.165820,0.206277
586.487680,0.205838
586.809500,0.210321
587.131280,0.213251
587.453020,0.218155
587.774720,0.214075
588.096380,0.213536
588.418000,0.220076
588.739580,0.220178
589.061120,0.217366
589.382620,0.222350
589.704080,0.221599
590.025500,0.223459
590.346880,0.221473
590.668220,0.220666
590.989520,0.221575
591.310780,0.226457
591.632000,0.226230
591.953180,0.232217
592.274320,0.226317
592.595420,0.231412
592.916480,0.232002
593.237500,0.234977
593.558480,0.233253
593.879420,0.231184
594.200320,0.238682
594.521180,0.237981
594.842000,0.245030
595.162780,0.240118
595.483520,0.238235
595.804220,0.241139
596.124880,0.245670
596.445500,0.244171
596.766080,0.248185
597.086620,0.251592
597.407120,0.245919
597.727580,0.254309
598.048000,0.252314
598.368380,0.254603
598.688720,0.256619
599.009020,0.258758
599.329280,0.258382
599.649500,0.253302
599.969680,0.256677
600.289820,0.262286
600.609920,0.259150
600.929980,0.263495
601.250000,0.262973
601.569980,0.265460
601.889920,0.262497
602.209820,0.265422
602.529680,0.270255
602.849500,0.271140
603.169280,0.267842
603.489020,0.274011
603.808720,0.276193
604.128380,0.272627
604.448000,0.277072
604.767580,0.278771
605.087120,0.278670
605.406620,0.280716
605.726080,0.282863
606.045500,0.284759
606.364880,0.283811
606.684220,0.285551
607.003520,0.286697
607.322780,0.286811
607.642000,0.291499
607.961180,0.291125
608.280320,0.292633
608.599420,0.290846
608.918480,0.297067
609.237500,0.294894
609.556480,0.307487
609.875420,0.305966
610.194320,0.302037
610.513180,0.300977
610.832000,0.303752
611.150780,0.307600
611.469520,0.307391
611.788220,0.312576
612.106880,0.307901
612.425500,0.314860
612.744080,0.318560
613.062620,0.310398
613.381120,0.310177
613.699580,0.319129
614.018000,0.315111
614.336380,0.318630
614.654720,0.320620
614.973020,0.323666
615.291280,0.324760
615.609500,0.333756
615.927680,0.321693
616.245820,0.322820
616.563920,0.330743
616.881980,0.331774
617.200000,0.335303
617.517980,0.332918
617.835920,0.333955
618.153820,0.334784
618.471680,0.336434
618.789500,0.342983
619.107280,0.341471
619.425020,0.342848
619.742720,0.340239
620.060380,0.340646
620.378000,0.348647
620.695580,0.349617
621.013120,0.349291
621.330620,0.352055
621.648080,0.346688
621.965500,0.354768
622.282880,0.352144
622.600220,0.358497
622.917520,0.355072
623.234780,0.368049
623.552000,0.363144
623.869180,0.368106
624.186320,0.367081
624.503420,0.368966
624.820480,0.368206
625.137500,0.374171
625.454480,0.374492
625.771420,0.375158
626.088320,0.373266
626.405180,0.372744
626.722000,0.381430
627.038780,0.375627
627.355520,0.381875
627.672220,0.379782
627.988880,0.381337
628.305500,0.386725
628.622080,0.391264
628.938620,0.391437
629.255120,0.391724
629.571580,0.387987
629.888000,0.393986
630.204380,0.395520
630.520720,0.395795
630.837020,0.396238
631.153280,0.396283
631.469500,0.406004
631.785680,0.403556
632.101820,0.398372
632.417920,0.402086
632.733980,0.406663
633.050000,0.409642
633.365980,0.411974
633.681920,0.411695
633.997820,0.413927
634.313680,0.418166
634.629500,0.415807
634.945280,0.417595
635.261020,0.422072
635.576720,0.417205
635.892380,0.421144
636.208000,0.423300
636.523580,0.428237
636.839120,0.425883
637.154620,0.434783
637.470080,0.424103
637.785500,0.432298
638.100880,0.434984
638.416220,0.443198
638.731520,0.428367
639.046780,0.435479
639.362000,0.431479
639.677180,0.438035
639.992320,0.440654
640.307420,0.440854
640.622480,0.444413
640.937500,0.447157
641.252480,0.451271
641.567420,0.451265
641.882320,0.449332
642.197180,0.453678
642.512000,0.453960
642.826780,0.449653
643.141520,0.458461
643.456220,0.455174
643.770880,0.459923
644.085500,0.456959
644.400080,0.456742
644.714620,0.464047
645.029120,0.461771
645.343580,0.472573
645.658000,0.469331
645.972380,0.471636
646.286720,0.466885
646.601020,0.473014
646.915280,0.476008
647.229500,0.475000
647.543680,0.470864
647.857820,0.473713
648.171920,0.479653
648.485980,0.482872
648.800000,0.472306
649.113980,0.480044
649.427920,0.489320
649.741820,0.487497
650.055680,0.487658
650.369500,0.487388
650.683280,0.483352
650.997020,0.489274
651.310720,0.493671
651.624380,0.486264
651.938000,0.490582
652.251580,0.490955
652.565120,0.485467
652.878620,0.498592
653.192080,0.501685
653.505500,0.493689
653.818880,0.505544
654.132220,0.501567
654.445520,0.502836
654.758780,0.502833
655.072000,0.503152
655.385180,0.498431
655.698320,0.506716
656.011420,0.510461
656.324480,0.506266
656.637500,0.511587
656.950480,0.511450
657.263420,0.514336
657.576320,0.514972
657.889180,0.513713
658.202000,0.521135
658.514780,0.518309
658.827520,0.519208
659.140220,0.522026
659.452880,0.521897
659.765500,0.526490
660.078080,0.520614
660.390620,0.516346
660.703120,0.526428
661.015580,0.524847
661.328000,0.529597
661.640380,0.533085
661.952720,0.530364
662.265020,0.534972
662.577280,0.534987
662.889500,0.529486
663.201680,0.539885
663.513820,0.539080
663.825920,0.535703
664.137980,0.542986
664.450000,0.536765
664.761980,0.541080
665.073920,0.543979
665.385820,0.538940
665.697680,0.548430
666.009500,0.553708
666.321280,0.545063
666.633020,0.549202
666.944720,0.545332
667.256380,0.544751
667.568000,0.544497
667.879580,0.558163
668.191120,0.554602
668.502620,0.551866
668.814080,0.559298
669.125500,0.551488
669.436880,0.558783
669.748220,0.545171
670.059520,0.560224
670.370780,0.565762
670.682000,0.569558
670.993180,0.569415
671.304320,0.557314
671.615420,0.563565
671.926480,0.574166
672.237500,0.560915
672.548480,0.568488
672.859420,0.568978
673.170320,0.571636
673.481180,0.573135
673.792000,0.566534
674.102780,0.563734
674.413520,0.580386
674.724220,0.571688
675.034880,0.590026
675.345500,0.579504
675.656080,0.573140
675.966620,0.579847
676.277120,0.580007
676.587580,0.580265
676.898000,0.590146
677.208380,0.583734
677.518720,0.582057
677.829020,0.580562
678.139280,0.587102
678.449500,0.581136
678.759680,0.594230
679.069820,0.582528
679.379920,0.587703
679.689980,0.589677
680.000000,0.592523
680.309980,0.589458
680.619920,0.591443
680.929820,0.590519
681.239680,0.593796
681.549500,0.592963
681.859280,0.590366
682.169020,0.597165
682.478720,0.608078
682.788380,0.592100
683.098000,0.593119
683.407580,0.603752
683.717120,0.596847
684.026620,0.591491
684.336080,0.601743
684.645500,0.600075
684.954880,0.608991
685.264220,0.603624
685.573520,0.608679
685.882780,0.610664
686.192000,0.613243
686.501180,0.606508
686.810320,0.616065
687.119420,0.612315
687.428480,0.615648
687.737500,0.612433
688.046480,0.608129
688.355420,0.612599
688.664320,0.612471
688.973180,0.615620
689.282000,0.625772
689.590780,0.619248
689.899520,0.608052
690.208220,0.622706
690.516880,0.624284
690.825500,0.624528
691.134080,0.613895
691.442620,0.614329
691.751120,0.615472
692.059580,0.621704
692.368000,0.624006
692.676380,0.626718
692.984720,0.627099
693.293020,0.622720
693.601280,0.624952
693.909500,0.637911
694.217680,0.622620
694.525820,0.629474
694.833920,0.634491
695.141980,0.634400
695.450000,0.630534
695.757980,0.632162
696.065920,0.626408
696.373820,0.636644
696.681680,0.630610
696.989500,0.636434
697.297280,0.632439
697.605020,0.652381
697.912720,0.634512
698.220380,0.640693
698.528000,0.649130
698.835580,0.635717
699.143120,0.629774
699.450620,0.646380
699.758080,0.630588
700.065500,0.641261
700.372880,0.644400
700.680220,0.646988
700.987520,0.645635
701.294780,0.648824
701.602000,0.643027
701.909180,0.652623
702.216320,0.648025
702.523420,0.649171
702.830480,0.653861
703.137500,0.638348
703.444480,0.648915
703.751420,0.657199
704.058320,0.660467
704.365180,0.661278
704.672000,0.647921
704.978780,0.648459
705.285520,0.658059
705.592220,0.643529
705.898880,0.656816
706.205500,0.651017
706.512080,0.657583
706.818620,0.663313
707.125120,0.663077
707.431580,0.659242
707.738000,0.653906
708.044380,0.663450
708.350720,0.654948
708.657020,0.664322
708.963280,0.665373
709.269500,0.661840
709.575680,0.664440
709.881820,0.665881
710.187920,0.674708
710.493980,0.667960
710.800000,0.662853
711.105980,0.664910
711.411920,0.668900
711.717820,0.662768
712.023680,0.657209
712.329500,0.675079
712.635280,0.670930
712.941020,0.668342
713.246720,0.669170
713.552380,0.665228
713.858000,0.664959
714.163580,0.666140
714.469120,0.662368
714.774620,0.673510
715.080080,0.679230
715.385500,0.679856
715.690880,0.669034
715.996220,0.674326
716.301520,0.678261
716.606780,0.667846
716.912000,0.678918
717.217180,0.685156
717.522320,0.667992
717.827420,0.676159
718.132480,0.671618
718.437500,0.667346
718.742480,0.671371
719.047420,0.673139
719.352320,0.676629
719.657180,0.686836
719.962000,0.669975
720.266780,0.685085
720.571520,0.675642
720.876220,0.680442
721.180880,0.668896
721.485500,0.680735
721.790080,0.682378
722.094620,0.680961
722.399120,0.689789
722.703580,0.676811
723.008000,0.688659
723.312380,0.681877
723.616720,0.670208
723.921020,0.685578
724.225280,0.681065
724.529500,0.668564
724.833680,0.686833
725.137820,0.672247
725.441920,0.686580
725.745980,0.683669
726.050000,0.685611
726.353980,0.675530
726.657920,0.667117
726.961820,0.680822
727.265680,0.687009
727.569500,0.686472
727.873280,0.683141
728.177020,0.685859
728.480720,0.681019
728.784380,0.694223
729.088000,0.685822
729.391580,0.686405
729.695120,0.690979
729.998620,0.686424
730.302080,0.682845
730.605500,0.691412
730.908880,0.695737
731.212220,0.691479
731.515520,0.687957
731.818780,0.679126
732.122000,0.683563
732.425180,0.679152
732.728320,0.680218
733.031420,0.687719
733.334480,0.691327
733.637500,0.676411
733.940480,0.691914
734.243420,0.687564
734.546320,0.695539
734.849180,0.682851
735.152000,0.690353
735.454780,0.683368
735.757520,0.682824
736.060220,0.693523
736.362880,0.681197
736.665500,0.676240
736.968080,0.684578
737.270620,0.699510
737.573120,0.697052
737.875580,0.702034
738.178000,0.689167
738.480380,0.685405
738.782720,0.680480
739.085020,0.676762
739.387280,0.691242
739.689500,0.703284
739.991680,0.682201
740.293820,0.679381
740.595920,0.693378
740.897980,0.686618
741.200000,0.697701
741.501980,0.706017
741.803920,0.683559
742.105820,0.688099
742.407680,0.697729
742.709500,0.665909
743.011280,0.700469
743.313020,0.683478
743.614720,0.683111
743.916380,0.676163
744.218000,0.698091
744.519580,0.692029
744.821120,0.694611
745.122620,0.692031
745.424080,0.683293
745.725500,0.690404
746.026880,0.699507
746.328220,0.710234
746.629520,0.679109
746.930780,0.685049
747.232000,0.689148
747.533180,0.693106
747.834320,0.678637
748.135420,0.699814
748.436480,0.691204
748.737500,0.672637
749.038480,0.689065
749.339420,0.696951
749.640320,0.705217
749.941180,0.690818
750.242000,0.693467
750.542780,0.686725
750.843520,0.679052
751.144220,0.694231
751.444880,0.691820
751.745500,0.699351
752.046080,0.694035
752.346620,0.683634
752.647120,0.696930
752.947580,0.677878
753.248000,0.676338
753.548380,0.685751
753.848720,0.689633
754.149020,0.675693
754.449280,0.689429
754.749500,0.699403
755.049680,0.696000
755.349820,0.680454
755.649920,0.695968
755.949980,0.692767
756.250000,0.694938
756.549980,0.678548
756.849920,0.692726
757.149820,0.687957
757.449680,0.687789
757.749500,0.704840
758.049280,0.686007
758.349020,0.684979
758.648720,0.692892
758.948380,0.685223
759.248000,0.693396
759.547580,0.697377
759.847120,0.691247
760.146620,0.687415
760.446080,0.684140
760.745500,0.683916
761.044880,0.681818
761.344220,0.689950
761.643520,0.677260
761.942780,0.686494
762.242000,0.686704
762.541180,0.676056
762.840320,0.680478
763.139420,0.692686
763.438480,0.691046
763.737500,0.687112
764.036480,0.675052
764.335420,0.688073
764.634320,0.684685
764.933180,0.665753
765.232000,0.689105
765.530780,0.686316
765.829520,0.693706
766.128220,0.687543
766.426880,0.686567
766.725500,0.682659
767.024080,0.678326
767.322620,0.694329
767.621120,0.675474
767.919580,0.690102
768.218000,0.677839
768.516380,0.682218
768.814720,0.681756
769.113020,0.678842
769.411280,0.689227
769.709500,0.698241
770.007680,0.680300
770.305820,0.693712
770.603920,0.667790
770.901980,0.683060
771.200000,0.677310
771.497980,0.666220
771.795920,0.664883
772.093820,0.669118
772.391680,0.672380
772.689500,0.688514
772.987280,0.678788
773.285020,0.671224
773.582720,0.681081
773.880380,0.689087
774.178000,0.685753
774.475580,0.697924
774.773120,0.678046
775.070620,0.684922
775.368080,0.674015
775.665500,0.666219
775.962880,0.674450
776.260220,0.682369
776.557520,0.671114
776.854780,0.681542
777.152000,0.668435
777.449180,0.683749
777.746320,0.665323
778.043420,0.666439
778.340480,0.675913
778.637500,0.682218
778.934480,0.671822
779.231420,0.665536
779.528320,0.666667
779.825180,0.654150
780.122000,0.668659
780.418780,0.676471
780.715520,0.663984
781.012220,0.670548
781.308880,0.677485
781.605500,0.672603
781.902080,0.663244
782.198620,0.671907
782.495120,0.683128
782.791580,0.665062
783.088000,0.670807
783.384380,0.664374
783.680720,0.660055
783.977020,0.654508
784.273280,0.671329
784.569500,0.679944
784.865680,0.668985
785.161820,0.665972
785.457920,0.652114
785.753980,0.672017
786.050000,0.666436
786.345980,0.668750
786.641920,0.664816
786.937820,0.673789
787.233680,0.664579
787.529500,0.653953
787.825280,0.661473
788.121020,0.660765
788.416720,0.657022
788.712380,0.662200
789.008000,0.656516
789.303580,0.656537
789.599120,0.681455
789.894620,0.677978
790.190080,0.662074
790.485500,0.659467
790.780880,0.658065
791.076220,0.659452
791.371520,0.658678
791.666780,0.666909
791.962000,0.656135
792.257180,0.669107
792.552320,0.665700
792.847420,0.645560
793.142480,0.659341
793.437500,0.656295
793.732480,0.655450
794.027420,0.654303
794.322320,0.671887
794.617180,0.650817
794.912000,0.644874
795.206780,0.665921
795.501520,0.658555
795.796220,0.645926
796.090880,0.643557
796.385500,0.658921
796.680080,0.662678
796.974620,0.656437
797.269120,0.660106
797.563580,0.657252
797.858000,0.645406
798.152380,0.658159
798.446720,0.657692
798.741020,0.651002
799.035280,0.658385
799.329500,0.658199
799.623680,0.662016
