399.985280,0.324324
400.329500,0.229730
400.673680,0.240506
401.017820,0.308824
401.361920,0.348485
401.705980,0.243902
402.050000,0.259740
402.393980,0.352941
402.737920,0.393258
403.081820,0.237113
403.425680,0.279070
403.769500,0.322917
404.113280,0.298851
404.457020,0.370787
404.800720,0.239130
405.144380,0.333333
405.488000,0.311828
405.831580,0.329897
406.175120,0.351064
406.518620,0.350000
406.862080,0.371134
407.205500,0.375000
407.548880,0.357143
407.892220,0.372549
408.235520,0.414894
408.578780,0.380952
408.922000,0.298077
409.265180,0.363636
409.608320,0.373737
409.951420,0.371134
410.294480,0.372549
410.637500,0.369565
410.980480,0.362745
411.323420,0.306122
411.666320,0.366972
412.009180,0.400000
412.352000,0.386139
412.694780,0.366972
413.037520,0.302752
413.380220,0.351351
413.722880,0.437500
414.065500,0.423423
414.408080,0.345133
414.750620,0.353982
415.093120,0.355372
415.435580,0.403361
415.778000,0.386364
416.120380,0.361345
416.462720,0.404762
416.805020,0.398496
417.147280,0.350746
417.489500,0.407143
417.831680,0.376712
418.173820,0.368794
418.515920,0.433566
418.857980,0.417722
419.200000,0.423077
419.541980,0.414201
419.883920,0.438202
420.225820,0.398844
420.567680,0.407821
420.909500,0.382514
421.251280,0.411458
421.593020,0.418367
421.934720,0.429293
422.276380,0.400000
422.618000,0.421569
422.959580,0.416667
423.301120,0.424658
423.642620,0.404348
423.984080,0.418605
424.325500,0.390135
424.666880,0.383621
425.008220,0.399160
425.349520,0.381356
425.690780,0.423077
426.032000,0.396078
426.373180,0.448133
426.714320,0.394531
427.055420,0.409266
427.396480,0.389513
427.737500,0.442688
428.078480,0.391304
428.419420,0.433735
428.760320,0.394636
429.101180,0.444882
429.442000,0.444444
429.782780,0.446154
430.123520,0.419608
430.464220,0.413284
430.804880,0.436782
431.145500,0.418182
431.486080,0.430712
431.826620,0.414729
432.167120,0.408088
432.507580,0.423913
432.848000,0.410072
433.188380,0.415162
433.528720,0.426415
433.869020,0.421429
434.209280,0.392982
434.549500,0.435540
434.889680,0.430976
435.229820,0.440273
435.569920,0.422145
435.909980,0.433657
436.250000,0.447458
436.589980,0.421053
436.929920,0.438095
437.269820,0.388715
437.609680,0.431953
437.949500,0.418675
438.289280,0.419263
438.629020,0.462209
438.968720,0.441860
439.308380,0.411924
439.648000,0.430137
439.987580,0.407407
440.327120,0.418667
440.666620,0.405195
441.006080,0.434783
441.345500,0.412776
441.684880,0.425837
442.024220,0.426799
442.363520,0.419048
442.702780,0.413636
443.042000,0.427313
443.381180,0.426724
443.720320,0.440605
444.059420,0.394958
444.398480,0.414226
444.737500,0.422131
445.076480,0.396825
445.415420,0.407186
445.754320,0.395010
446.093180,0.412844
446.432000,0.417293
446.770780,0.421252
447.109520,0.420956
447.448220,0.411449
447.786880,0.411449
448.125500,0.396552
448.464080,0.389286
448.802620,0.398936
449.141120,0.394464
449.479580,0.412587
449.818000,0.423408
450.156380,0.397993
450.494720,0.403306
450.833020,0.393357
451.171280,0.405822
451.509500,0.414634
451.847680,0.406408
452.185820,0.413081
452.523920,0.402062
452.861980,0.409781
453.200000,0.385382
453.537980,0.388235
453.875920,0.394958
454.213820,0.380137
454.551680,0.403974
454.889500,0.386172
455.227280,0.377224
455.565020,0.380235
455.902720,0.402662
456.240380,0.389351
456.578000,0.402439
456.915580,0.400691
457.253120,0.376645
457.590620,0.376026
457.928080,0.387205
458.265500,0.376689
458.602880,0.370130
458.940220,0.377327
459.277520,0.371200
459.614780,0.386252
459.952000,0.366460
460.289180,0.373418
460.626320,0.381102
460.963420,0.369952
461.300480,0.366972
461.637500,0.379045
461.974480,0.363914
462.311420,0.363636
462.648320,0.357247
462.985180,0.361549
463.322000,0.363095
463.658780,0.353591
463.995520,0.349381
464.332220,0.353186
464.668880,0.348118
465.005500,0.364611
465.342080,0.345711
465.678620,0.346863
466.015120,0.357050
466.351580,0.352718
466.688000,0.354446
467.024380,0.345079
467.360720,0.340909
467.697020,0.353075
468.033280,0.344444
468.369500,0.347682
468.705680,0.350620
469.041820,0.338542
469.377920,0.328633
469.713980,0.332647
470.050000,0.333333
470.385980,0.330724
470.721920,0.329089
471.057820,0.336257
471.393680,0.329280
471.729500,0.326228
472.065280,0.332737
472.401020,0.323582
472.736720,0.330716
473.072380,0.319569
473.408000,0.308094
473.743580,0.316609
474.079120,0.319552
474.414620,0.307040
474.750080,0.304312
475.085500,0.313322
475.420880,0.312240
475.756220,0.303352
476.091520,0.312020
476.426780,0.302589
476.762000,0.305712
477.097180,0.306400
477.432320,0.297254
477.767420,0.298203
478.102480,0.295276
478.437500,0.289819
478.772480,0.285264
479.107420,0.284784
479.442320,0.285372
479.777180,0.287192
480.112000,0.283513
480.446780,0.276695
480.781520,0.290660
481.116220,0.283751
481.450880,0.281030
481.785500,0.279272
482.120080,0.271160
482.454620,0.274281
482.789120,0.277070
483.123580,0.272586
483.458000,0.272152
483.792380,0.274760
484.126720,0.266409
484.461020,0.266979
484.795280,0.265998
485.129500,0.273578
485.463680,0.258140
485.797820,0.256610
486.131920,0.255547
486.465980,0.257143
486.800000,0.254962
487.133980,0.251511
487.467920,0.256312
487.801820,0.248665
488.135680,0.254738
488.469500,0.246596
488.803280,0.246657
489.137020,0.252747
489.470720,0.243323
489.804380,0.240535
490.138000,0.250742
490.471580,0.248342
490.805120,0.238742
491.138620,0.240227
491.472080,0.233216
491.805500,0.234310
492.138880,0.234190
492.472220,0.235294
492.805520,0.231844
493.138780,0.240524
493.472000,0.228763
493.805180,0.234652
494.138320,0.236157
494.471420,0.225260
494.804480,0.221863
495.137500,0.220796
495.470480,0.226896
495.803420,0.224811
496.136320,0.225564
496.469180,0.211786
496.802000,0.220049
497.134780,0.215282
497.467520,0.217125
497.800220,0.216981
498.132880,0.213992
498.465500,0.219583
498.798080,0.213470
499.130620,0.209994
499.463120,0.210556
499.795580,0.215622
500.128000,0.210354
500.460380,0.207212
500.792720,0.206787
501.125020,0.200210
501.457280,0.206789
501.789500,0.201446
502.121680,0.209435
502.453820,0.200918
502.785920,0.191096
503.117980,0.198724
503.450000,0.203415
503.781980,0.199302
504.113920,0.188241
504.445820,0.190569
504.777680,0.192000
505.109500,0.187981
505.441280,0.189293
505.773020,0.193048
506.104720,0.189826
506.436380,0.185045
506.768000,0.184752
507.099580,0.178947
507.431120,0.180328
507.762620,0.182331
508.094080,0.177758
508.425500,0.183473
508.756880,0.181527
509.088220,0.177553
509.419520,0.180168
509.750780,0.170103
510.082000,0.172575
510.413180,0.170889
510.744320,0.178555
511.075420,0.171402
511.406480,0.168312
511.737500,0.174074
512.068480,0.172462
512.399420,0.174648
512.730320,0.164434
513.061180,0.163178
513.392000,0.167534
513.722780,0.168108
514.053520,0.169621
514.384220,0.161275
514.714880,0.158928
515.045500,0.163314
515.376080,0.168523
515.706620,0.164637
516.037120,0.163235
516.367580,0.160177
516.698000,0.158824
517.028380,0.165343
517.358720,0.160000
517.689020,0.162216
518.019280,0.161064
518.349500,0.161176
518.679680,0.158001
519.009820,0.158401
519.339920,0.160822
519.669980,0.158714
520.000000,0.154865
520.329980,0.157595
520.659920,0.152863
520.989820,0.162539
521.319680,0.158951
521.649500,0.155784
521.979280,0.159708
522.309020,0.153008
522.638720,0.151562
522.968380,0.156153
523.298000,0.149791
523.627580,0.151578
523.957120,0.152208
524.286620,0.157374
524.616080,0.155636
524.945500,0.150388
525.274880,0.157517
525.604220,0.152692
525.933520,0.149895
526.262780,0.150532
526.592000,0.151700
526.921180,0.154901
527.250320,0.154744
527.579420,0.152097
527.908480,0.153619
528.237500,0.154419
528.566480,0.152196
528.895420,0.160177
529.224320,0.155027
529.553180,0.156627
529.882000,0.160097
530.210780,0.153475
530.539520,0.153883
530.868220,0.149354
531.196880,0.154324
531.525500,0.155448
531.854080,0.154784
532.182620,0.157403
532.511120,0.148492
532.839580,0.150635
533.168000,0.153145
533.496380,0.152968
533.824720,0.152535
534.153020,0.155149
534.481280,0.151982
534.809500,0.160950
535.137680,0.157552
535.465820,0.151203
535.793920,0.156514
536.121980,0.160302
536.450000,0.160254
536.777980,0.157101
537.105920,0.156912
537.433820,0.161211
537.761680,0.160000
538.089500,0.159450
538.417280,0.160366
538.745020,0.161252
539.072720,0.156970
539.400380,0.162005
539.728000,0.162524
540.055580,0.159176
540.383120,0.162323
540.710620,0.160714
541.038080,0.158613
541.365500,0.161397
541.692880,0.158794
542.020220,0.162648
542.347520,0.167265
542.674780,0.159845
543.002000,0.163751
543.329180,0.163802
543.656320,0.164909
543.983420,0.161026
544.310480,0.166837
544.637500,0.166496
544.964480,0.167900
545.291420,0.163177
545.618320,0.166335
545.945180,0.165788
546.272000,0.169069
546.598780,0.164536
546.925520,0.171447
547.252220,0.166722
547.578880,0.174650
547.905500,0.170588
548.232080,0.167641
548.558620,0.177351
548.885120,0.174354
549.211580,0.177113
549.538000,0.177367
549.864380,0.175563
550.190720,0.175977
550.517020,0.180900
550.843280,0.181759
551.169500,0.175891
551.495680,0.181997
551.821820,0.181254
552.147920,0.176318
552.473980,0.183734
552.800000,0.179529
553.125980,0.184348
553.451920,0.184141
553.777820,0.182878
554.103680,0.187732
554.429500,0.187144
554.755280,0.184579
555.081020,0.186497
555.406720,0.188622
555.732380,0.185361
556.058000,0.191446
556.383580,0.189661
556.709120,0.190558
557.034620,0.191870
557.360080,0.191364
557.685500,0.197441
558.010880,0.196534
558.336220,0.196134
558.661520,0.194612
558.986780,0.201630
559.312000,0.201211
559.637180,0.199282
559.962320,0.202207
560.287420,0.202045
560.612480,0.201292
560.937500,0.208150
561.262480,0.205279
561.587420,0.205296
561.912320,0.202284
562.237180,0.211325
562.562000,0.212121
562.886780,0.207729
563.211520,0.214605
563.536220,0.212616
563.860880,0.211995
564.185500,0.216135
564.510080,0.218585
564.834620,0.218459
565.159120,0.221429
565.483580,0.223489
565.808000,0.224745
566.132380,0.227527
566.456720,0.229025
566.781020,0.227307
567.105280,0.227977
567.429500,0.224583
567.753680,0.225930
568.077820,0.228836
568.401920,0.226891
568.725980,0.236053
569.050000,0.236122
569.373980,0.234869
569.697920,0.235495
570.021820,0.237828
570.345680,0.242250
570.669500,0.235406
570.993280,0.242525
571.317020,0.238582
571.640720,0.246017
571.964380,0.244618
572.288000,0.247033
572.611580,0.250468
572.935120,0.252151
573.258620,0.249439
573.582080,0.251118
573.905500,0.254281
574.228880,0.257981
574.552220,0.261634
574.875520,0.261727
575.198780,0.261294
575.522000,0.257698
575.845180,0.257163
576.168320,0.256198
576.491420,0.271076
576.814480,0.267269
577.137500,0.266955
577.460480,0.270388
577.783420,0.272597
578.106320,0.273860
578.429180,0.278544
578.752000,0.271275
579.074780,0.281861
579.397520,0.275339
579.720220,0.278314
580.042880,0.282458
580.365500,0.281271
580.688080,0.291723
581.010620,0.291934
581.333120,0.296927
581.655580,0.290043
581.978000,0.298637
582.300380,0.292438
582.622720,0.295979
582.945020,0.292913
583.267280,0.300554
583.589500,0.297913
583.911680,0.297872
584.233820,0.293673
584.555920,0.301292
584.877980,0.303078
585.200000,0.303560
585.521980,0.304603
585.843920,0.312386
586.165820,0.305911
586.487680,0.307854
586.809500,0.315032
587.131280,0.310559
587.453020,0.322917
587.774720,0.319633
588.096380,0.315053
588.418000,0.323676
588.739580,0.327105
589.061120,0.329212
589.382620,0.330086
589.704080,0.328191
590.025500,0.333619
590.346880,0.333895
590.668220,0.331000
590.989520,0.328342
591.310780,0.335543
591.632000,0.336885
591.953180,0.342098
592.274320,0.334425
592.595420,0.341864
592.916480,0.347188
593.237500,0.343843
593.558480,0.344902
593.879420,0.350688
594.200320,0.351460
594.521180,0.352191
594.842000,0.358678
595.162780,0.349359
595.483520,0.351502
595.804220,0.356337
596.124880,0.365041
596.445500,0.358397
596.766080,0.365421
597.086620,0.362527
597.407120,0.366509
597.727580,0.372050
598.048000,0.367628
598.368380,0.369805
598.688720,0.367759
599.009020,0.374469
599.329280,0.380522
599.649500,0.374538
599.969680,0.371795
600.289820,0.380876
600.609920,0.376436
600.929980,0.378407
601.250000,0.382703
601.569980,0.385633
601.889920,0.383855
602.209820,0.389069
602.529680,0.396594
602.849500,0.388980
603.169280,0.388812
603.489020,0.394686
603.808720,0.394131
604.128380,0.395971
604.448000,0.394199
604.767580,0.400559
605.087120,0.391136
605.406620,0.403303
605.726080,0.408326
606.045500,0.395096
606.364880,0.401191
606.684220,0.408338
607.003520,0.406250
607.322780,0.410460
607.642000,0.411258
607.961180,0.411391
608.280320,0.416473
608.599420,0.413094
608.918480,0.414370
609.237500,0.426937
609.556480,0.416691
609.875420,0.411400
610.194320,0.417774
610.513180,0.419355
610.832000,0.424062
611.150780,0.429859
611.469520,0.428658
611.788220,0.435308
612.106880,0.431242
612.425500,0.430877
612.744080,0.427208
613.062620,0.448012
613.381120,0.431749
613.699580,0.436849
614.018000,0.436425
614.336380,0.441394
614.654720,0.439690
614.973020,0.441839
615.291280,0.444995
615.609500,0.459905
615.927680,0.449320
616.245820,0.446506
616.563920,0.444203
616.881980,0.453071
617.200000,0.453499
617.517980,0.458619
617.835920,0.451693
618.153820,0.451352
618.471680,0.456124
618.789500,0.461926
619.107280,0.460720
619.425020,0.457342
619.742720,0.468613
620.060380,0.455030
620.378000,0.462240
620.695580,0.469029
621.013120,0.470866
621.330620,0.474114
621.648080,0.466562
621.965500,0.474279
622.282880,0.480454
622.600220,0.466519
622.917520,0.475110
623.234780,0.481196
623.552000,0.484087
623.869180,0.482824
624.186320,0.485833
624.503420,0.477429
624.820480,0.491989
625.137500,0.492580
625.454480,0.483276
625.771420,0.494010
626.088320,0.492749
626.405180,0.489110
626.722000,0.499373
627.038780,0.494361
627.355520,0.493750
627.672220,0.499222
627.988880,0.496423
628.305500,0.504519
628.622080,0.502478
628.938620,0.506422
629.255120,0.504356
629.571580,0.498008
629.888000,0.512427
630.204380,0.506904
630.520720,0.508836
630.837020,0.516497
631.153280,0.516487
631.469500,0.514251
631.785680,0.515069
632.101820,0.515682
632.417920,0.509687
632.733980,0.516206
633.050000,0.524864
633.365980,0.517783
633.681920,0.524165
633.997820,0.527197
634.313680,0.526098
634.629500,0.522855
634.945280,0.527859
635.261020,0.526563
635.576720,0.533177
635.892380,0.525414
636.208000,0.530215
636.523580,0.532885
636.839120,0.529820
637.154620,0.534783
637.470080,0.537159
637.785500,0.536635
638.100880,0.543875
638.416220,0.543860
638.731520,0.539255
639.046780,0.544713
639.362000,0.545298
639.677180,0.541976
639.992320,0.544122
640.307420,0.540601
640.622480,0.547746
640.937500,0.544521
641.252480,0.547612
641.567420,0.558681
641.882320,0.552617
642.197180,0.558394
642.512000,0.555835
642.826780,0.557836
643.141520,0.559322
643.456220,0.565025
643.770880,0.555279
644.085500,0.560928
644.400080,0.563202
644.714620,0.561037
645.029120,0.555831
645.343580,0.561711
645.658000,0.572578
645.972380,0.572760
646.286720,0.572636
646.601020,0.573208
646.915280,0.566219
647.229500,0.565934
647.543680,0.569180
647.857820,0.567024
648.171920,0.570537
648.485980,0.576048
648.800000,0.568476
649.113980,0.581763
649.427920,0.579196
649.741820,0.572960
650.055680,0.580088
650.369500,0.583800
650.683280,0.582408
650.997020,0.578933
651.310720,0.580077
651.624380,0.581593
651.938000,0.589474
652.251580,0.588923
652.565120,0.582728
652.878620,0.588401
653.192080,0.589326
653.505500,0.586536
653.818880,0.593688
654.132220,0.592139
654.445520,0.588202
654.758780,0.588385
655.072000,0.592837
655.385180,0.585735
655.698320,0.587025
656.011420,0.596159
656.324480,0.590790
656.637500,0.595597
656.950480,0.597769
657.263420,0.596216
657.576320,0.594130
657.889180,0.599233
658.202000,0.601751
658.514780,0.603751
658.827520,0.604442
659.140220,0.599940
659.452880,0.601631
659.765500,0.605960
660.078080,0.599759
660.390620,0.601589
660.703120,0.608005
661.015580,0.604294
661.328000,0.607683
661.640380,0.612923
661.952720,0.606976
662.265020,0.609326
662.577280,0.615140
662.889500,0.608010
663.201680,0.611359
663.513820,0.605983
663.825920,0.613833
664.137980,0.613445
664.450000,0.609335
664.761980,0.609493
665.073920,0.609867
665.385820,0.617147
665.697680,0.623802
666.009500,0.630529
666.321280,0.619947
666.633020,0.615359
666.944720,0.615436
667.256380,0.613055
667.568000,0.615829
667.879580,0.623810
668.191120,0.622940
668.502620,0.624444
668.814080,0.624912
669.125500,0.620937
669.436880,0.626902
669.748220,0.616130
670.059520,0.628151
670.370780,0.630132
670.682000,0.630088
670.993180,0.631783
671.304320,0.620253
671.615420,0.625355
671.926480,0.624202
672.237500,0.628796
672.548480,0.631299
672.859420,0.631880
673.170320,0.635836
673.481180,0.640116
673.792000,0.627119
674.102780,0.626212
674.413520,0.638352
674.724220,0.623593
675.034880,0.642098
675.345500,0.631291
675.656080,0.632305
675.966620,0.643507
676.277120,0.632369
676.587580,0.639912
676.898000,0.637551
677.208380,0.634750
677.518720,0.632750
677.829020,0.640059
678.139280,0.640474
678.449500,0.639436
678.759680,0.643312
679.069820,0.632714
679.379920,0.642022
679.689980,0.635722
680.000000,0.637757
680.309980,0.635115
680.619920,0.645210
680.929820,0.642031
681.239680,0.631462
681.549500,0.640370
681.859280,0.647125
682.169020,0.646028
682.478720,0.645475
682.788380,0.638981
683.098000,0.642857
683.407580,0.647655
683.717120,0.647147
684.026620,0.649849
684.336080,0.652520
684.645500,0.642349
684.954880,0.641481
685.264220,0.650057
685.573520,0.653597
685.882780,0.660146
686.192000,0.647103
686.501180,0.653424
686.810320,0.656034
687.119420,0.650703
687.428480,0.652108
687.737500,0.651957
688.046480,0.641104
688.355420,0.638250
688.664320,0.650344
688.973180,0.649311
689.282000,0.649306
689.590780,0.651840
689.899520,0.646031
690.208220,0.647936
690.516880,0.651775
690.825500,0.649434
691.134080,0.648064
691.442620,0.645579
691.751120,0.658703
692.059580,0.662591
692.368000,0.649375
692.676380,0.656870
692.984720,0.654962
693.293020,0.655775
693.601280,0.658909
693.909500,0.654181
694.217680,0.654608
694.525820,0.660320
694.833920,0.655475
695.141980,0.662167
695.450000,0.657252
695.757980,0.660428
696.065920,0.651650
696.373820,0.657044
696.681680,0.648255
696.989500,0.659591
697.297280,0.654998
697.605020,0.672222
697.912720,0.650653
698.220380,0.655254
698.528000,0.674842
698.835580,0.651521
699.143120,0.651988
699.450620,0.654336
699.758080,0.644314
700.065500,0.652035
700.372880,0.657200
700.680220,0.672916
700.987520,0.669444
701.294780,0.666261
701.602000,0.659667
701.909180,0.670509
702.216320,0.657802
702.523420,0.664167
702.830480,0.675248
703.137500,0.653936
703.444480,0.662327
703.751420,0.659172
704.058320,0.658884
704.365180,0.664038
704.672000,0.661386
704.978780,0.666797
705.285520,0.660016
705.592220,0.652941
705.898880,0.662333
706.205500,0.664710
706.512080,0.661927
706.818620,0.666796
707.125120,0.660385
707.431580,0.656506
707.738000,0.676562
708.044380,0.659977
708.350720,0.664501
708.657020,0.662759
708.963280,0.672748
709.269500,0.667319
709.575680,0.667976
709.881820,0.662343
710.187920,0.671984
710.493980,0.655935
710.800000,0.662090
711.105980,0.655120
711.411920,0.664959
711.717820,0.656140
712.023680,0.662651
712.329500,0.670347
712.635280,0.667442
712.941020,0.660224
713.246720,0.661660
713.552380,0.664050
713.858000,0.652345
714.163580,0.662589
714.469120,0.651817
714.774620,0.654955
715.080080,0.663526
715.385500,0.676259
715.690880,0.656410
715.996220,0.666403
716.301520,0.663636
716.606780,0.658805
716.912000,0.661551
717.217180,0.667199
717.522320,0.653678
717.827420,0.666802
718.132480,0.662385
718.437500,0.667346
718.742480,0.660081
719.047420,0.650485
719.352320,0.669988
719.657180,0.670074
719.962000,0.654673
720.266780,0.664312
720.571520,0.657415
720.876220,0.660802
721.180880,0.659281
721.485500,0.661931
721.790080,0.655202
722.094620,0.668954
722.399120,0.667816
722.703580,0.656237
723.008000,0.669254
723.312380,0.658201
723.616720,0.649809
723.921020,0.655695
724.225280,0.650524
724.529500,0.647986
724.833680,0.662811
725.137820,0.648458
725.441920,0.657156
725.745980,0.652796
726.050000,0.652684
726.353980,0.651645
726.657920,0.655870
726.961820,0.659361
727.265680,0.654184
727.569500,0.643967
727.873280,0.652656
728.177020,0.657761
728.480720,0.648148
728.784380,0.657116
729.088000,0.658031
729.391580,0.643297
729.695120,0.660749
729.998620,0.650096
730.302080,0.646804
730.605500,0.649685
730.908880,0.656051
731.212220,0.653771
731.515520,0.645539
731.818780,0.653883
732.122000,0.646161
732.425180,0.647610
732.728320,0.653941
733.031420,0.645113
733.334480,0.644388
733.637500,0.645665
733.940480,0.647902
734.243420,0.644750
734.546320,0.657676
734.849180,0.632231
735.152000,0.649896
735.454780,0.649277
735.757520,0.652266
736.060220,0.645603
736.362880,0.654937
736.665500,0.639164
736.968080,0.653412
737.270620,0.654872
737.573120,0.647926
737.875580,0.643760
738.178000,0.646162
738.480380,0.640000
738.782720,0.642312
739.085020,0.643172
739.387280,0.646896
739.689500,0.638732
739.991680,0.649074
740.293820,0.641238
740.595920,0.632165
740.897980,0.643704
741.200000,0.637689
741.501980,0.637822
741.803920,0.642455
742.105820,0.641850
742.407680,0.645894
742.709500,0.643182
743.011280,0.640680
743.313020,0.634203
743.614720,0.625653
743.916380,0.629070
744.218000,0.643198
744.519580,0.635266
744.821120,0.637725
745.122620,0.630318
745.424080,0.620192
745.725500,0.637296
746.026880,0.629926
746.328220,0.638101
746.629520,0.629139
746.930780,0.623162
747.232000,0.633354
747.533180,0.632703
747.834320,0.629337
748.135420,0.625855
748.436480,0.616968
748.737500,0.625695
749.038480,0.620648
749.339420,0.635345
749.640320,0.631050
749.941180,0.625234
750.242000,0.630025
750.542780,0.628412
750.843520,0.637412
751.144220,0.623077
751.444880,0.634750
751.745500,0.625325
752.046080,0.631815
752.346620,0.607603
752.647120,0.618550
752.947580,0.624191
753.248000,0.626692
753.548380,0.618738
753.848720,0.620090
754.149020,0.611863
754.449280,0.616546
754.749500,0.603849
755.049680,0.612667
755.349820,0.626418
755.649920,0.615995
755.949980,0.616457
756.250000,0.616700
756.549980,0.606601
756.849920,0.624065
757.149820,0.607452
757.449680,0.617162
757.749500,0.612134
758.049280,0.606826
758.349020,0.607093
758.648720,0.628709
758.948380,0.593814
759.248000,0.618598
759.547580,0.613315
759.847120,0.611992
760.146620,0.623816
760.446080,0.603495
760.745500,0.615385
761.044880,0.615767
761.344220,0.623664
761.643520,0.612288
761.942780,0.601819
762.242000,0.603960
762.541180,0.610563
762.840320,0.610253
763.139420,0.608298
763.438480,0.598770
763.737500,0.603032
764.036480,0.598183
764.335420,0.597036
764.634320,0.597367
764.933180,0.603425
765.232000,0.601666
765.530780,0.602105
765.829520,0.608392
766.128220,0.608907
766.426880,0.603412
766.725500,0.595613
767.024080,0.585048
767.322620,0.603043
767.621120,0.586043
767.919580,0.604778
768.218000,0.594391
768.516380,0.599730
768.814720,0.591221
769.113020,0.592695
769.411280,0.601519
769.709500,0.596752
770.007680,0.594410
770.305820,0.594997
770.603920,0.593666
770.901980,0.596995
771.200000,0.591033
771.497980,0.575737
771.795920,0.599331
772.093820,0.581551
772.391680,0.589321
772.689500,0.602703
772.987280,0.584512
773.285020,0.585783
773.582720,0.590541
773.880380,0.599863
774.178000,0.589639
774.475580,0.585399
774.773120,0.574967
775.070620,0.577417
775.368080,0.591182
775.665500,0.567495
775.962880,0.573049
776.260220,0.584791
776.557520,0.586391
776.854780,0.590940
777.152000,0.568302
777.449180,0.579906
777.746320,0.555780
778.043420,0.585948
778.340480,0.585927
778.637500,0.580122
778.934480,0.568931
779.231420,0.573948
779.528320,0.570474
779.825180,0.573123
780.122000,0.571713
780.418780,0.564295
780.715520,0.564051
781.012220,0.574658
781.308880,0.580122
781.605500,0.571918
781.902080,0.559206
782.198620,0.574163
782.495120,0.570645
782.791580,0.578404
783.088000,0.578330
783.384380,0.569464
783.680720,0.574555
783.977020,0.567103
784.273280,0.567832
784.569500,0.573725
784.865680,0.569541
785.161820,0.568056
785.457920,0.555094
785.753980,0.572226
786.050000,0.556630
786.345980,0.552083
786.641920,0.553088
786.937820,0.569088
787.233680,0.548365
787.529500,0.539528
787.825280,0.567989
788.121020,0.560198
788.416720,0.550459
788.712380,0.543018
789.008000,0.565156
789.303580,0.563251
789.599120,0.572364
789.894620,0.553069
790.190080,0.547498
790.485500,0.539957
790.780880,0.545520
791.076220,0.549062
791.371520,0.555556
791.666780,0.550545
791.962000,0.559148
792.257180,0.546852
792.552320,0.553299
792.847420,0.532023
793.142480,0.535531
793.437500,0.540521
793.732480,0.543526
794.027420,0.540059
794.322320,0.530201
794.617180,0.552749
794.912000,0.549034
795.206780,0.538404
795.501520,0.550570
795.796220,0.528148
796.090880,0.549359
796.385500,0.523988
796.680080,0.531040
796.974620,0.536677
797.269120,0.535201
797.563580,0.534351
797.858000,0.528474
798.152380,0.530549
798.446720,0.539231
798.741020,0.530046
799.035280,0.527950
799.329500,0.530408
799.623680,0.534884
