399.985280,0.337838
400.329500,0.364865
400.673680,0.303797
401.017820,0.367647
401.361920,0.393939
401.705980,0.390244
402.050000,0.350649
402.393980,0.388235
402.737920,0.370787
403.081820,0.350515
403.425680,0.395349
403.769500,0.322917
404.113280,0.287356
404.457020,0.404494
404.800720,0.402174
405.144380,0.383838
405.488000,0.354839
405.831580,0.360825
406.175120,0.393617
406.518620,0.410000
406.862080,0.422680
407.205500,0.364583
407.548880,0.387755
407.892220,0.362745
408.235520,0.372340
408.578780,0.371429
408.922000,0.317308
409.265180,0.424242
409.608320,0.414141
409.951420,0.453608
410.294480,0.421569
410.637500,0.402174
410.980480,0.421569
411.323420,0.377551
411.666320,0.486239
412.009180,0.463636
412.352000,0.346535
412.694780,0.449541
413.037520,0.394495
413.380220,0.432432
413.722880,0.366071
414.065500,0.450450
414.408080,0.389381
414.750620,0.389381
415.093120,0.404959
415.435580,0.420168
415.778000,0.431818
416.120380,0.403361
416.462720,0.428571
416.805020,0.466165
417.147280,0.432836
417.489500,0.450000
417.831680,0.404110
418.173820,0.368794
418.515920,0.468531
418.857980,0.424051
419.200000,0.455128
419.541980,0.402367
419.883920,0.398876
420.225820,0.450867
420.567680,0.435754
420.909500,0.398907
421.251280,0.390625
421.593020,0.438776
421.934720,0.419192
422.276380,0.430769
422.618000,0.401961
422.959580,0.460784
423.301120,0.438356
423.642620,0.404348
423.984080,0.432558
424.325500,0.421525
424.666880,0.452586
425.008220,0.432773
425.349520,0.427966
425.690780,0.411538
426.032000,0.380392
426.373180,0.456432
426.714320,0.421875
427.055420,0.440154
427.396480,0.408240
427.737500,0.415020
428.078480,0.422925
428.419420,0.409639
428.760320,0.406130
429.101180,0.433071
429.442000,0.413793
429.782780,0.411538
430.123520,0.423529
430.464220,0.439114
430.804880,0.444444
431.145500,0.407273
431.486080,0.445693
431.826620,0.434109
432.167120,0.389706
432.507580,0.442029
432.848000,0.395683
433.188380,0.429603
433.528720,0.426415
433.869020,0.396429
434.209280,0.385965
434.549500,0.425087
434.889680,0.404040
435.229820,0.385666
435.569920,0.366782
435.909980,0.385113
436.250000,0.437288
436.589980,0.374613
436.929920,0.396825
437.269820,0.385580
437.609680,0.396450
437.949500,0.415663
438.289280,0.399433
438.629020,0.406977
438.968720,0.401163
439.308380,0.352304
439.648000,0.408219
439.987580,0.399471
440.327120,0.376000
440.666620,0.407792
441.006080,0.411765
441.345500,0.393120
441.684880,0.382775
442.024220,0.404467
442.363520,0.385714
442.702780,0.375000
443.042000,0.383260
443.381180,0.400862
443.720320,0.384449
444.059420,0.376050
444.398480,0.361925
444.737500,0.377049
445.076480,0.371032
445.415420,0.373253
445.754320,0.380457
446.093180,0.374312
446.432000,0.368421
446.770780,0.371917
447.109520,0.373162
447.448220,0.368515
447.786880,0.372093
448.125500,0.355172
448.464080,0.362500
448.802620,0.367021
449.141120,0.356401
449.479580,0.360140
449.818000,0.366609
450.156380,0.346154
450.494720,0.352066
450.833020,0.361888
451.171280,0.352740
451.509500,0.350174
451.847680,0.349073
452.185820,0.347676
452.523920,0.345361
452.861980,0.347386
453.200000,0.348837
453.537980,0.331092
453.875920,0.341176
454.213820,0.344178
454.551680,0.326159
454.889500,0.330523
455.227280,0.313167
455.565020,0.346734
455.902720,0.332779
456.240380,0.324459
456.578000,0.334495
456.915580,0.340242
457.253120,0.327303
457.590620,0.333333
457.928080,0.336700
458.265500,0.341216
458.602880,0.329545
458.940220,0.329949
459.277520,0.313600
459.614780,0.338789
459.952000,0.315217
460.289180,0.318038
460.626320,0.318110
460.963420,0.303716
461.300480,0.298165
461.637500,0.303544
461.974480,0.307339
462.311420,0.299553
462.648320,0.294290
462.985180,0.279770
463.322000,0.294643
463.658780,0.294199
463.995520,0.284732
464.332220,0.288089
464.668880,0.293011
465.005500,0.288204
465.342080,0.297055
465.678620,0.293973
466.015120,0.291074
466.351580,0.289507
466.688000,0.269184
467.024380,0.292831
467.360720,0.276136
467.697020,0.280182
468.033280,0.291111
468.369500,0.279249
468.705680,0.287486
469.041820,0.273958
469.377920,0.271150
469.713980,0.283213
470.050000,0.270531
470.385980,0.270059
470.721920,0.262488
471.057820,0.268031
471.393680,0.260056
471.729500,0.265060
472.065280,0.263864
472.401020,0.259752
472.736720,0.257417
473.072380,0.247756
473.408000,0.243690
473.743580,0.248270
474.079120,0.247201
474.414620,0.245123
474.750080,0.242474
475.085500,0.240954
475.420880,0.246461
475.756220,0.242845
476.091520,0.240409
476.426780,0.240291
476.762000,0.229284
477.097180,0.235200
477.432320,0.239095
477.767420,0.232843
478.102480,0.236220
478.437500,0.225780
478.772480,0.227738
479.107420,0.226200
479.442320,0.231815
479.777180,0.230708
480.112000,0.216487
480.446780,0.219018
480.781520,0.217391
481.116220,0.227162
481.450880,0.217799
481.785500,0.225475
482.120080,0.224922
482.454620,0.219114
482.789120,0.215764
483.123580,0.216511
483.458000,0.218354
483.792380,0.204473
484.126720,0.214672
484.461020,0.199844
484.795280,0.212028
485.129500,0.212783
485.463680,0.201550
485.797820,0.219285
486.131920,0.202754
486.465980,0.200772
486.800000,0.206870
487.133980,0.197885
487.467920,0.201989
487.801820,0.201373
488.135680,0.200910
488.469500,0.190620
488.803280,0.194651
489.137020,0.193407
489.470720,0.191395
489.804380,0.198961
490.138000,0.194362
490.471580,0.196021
490.805120,0.194425
491.138620,0.182658
491.472080,0.194346
491.805500,0.198047
492.138880,0.189020
492.472220,0.183391
492.805520,0.182263
493.138780,0.186768
493.472000,0.182609
493.805180,0.180082
494.138320,0.180787
494.471420,0.185547
494.804480,0.181759
495.137500,0.181001
495.470480,0.184831
495.803420,0.178841
496.136320,0.180451
496.469180,0.169429
496.802000,0.175428
497.134780,0.183141
497.467520,0.177370
497.800220,0.172759
498.132880,0.176367
498.465500,0.174392
498.798080,0.168950
499.130620,0.170129
499.463120,0.169568
499.795580,0.167217
500.128000,0.168392
500.460380,0.171152
500.792720,0.167020
501.125020,0.165528
501.457280,0.167102
501.789500,0.165806
502.121680,0.165889
502.453820,0.169811
502.785920,0.163582
503.117980,0.160942
503.450000,0.164239
503.781980,0.162431
504.113920,0.162636
504.445820,0.160914
504.777680,0.162353
505.109500,0.159135
505.441280,0.162524
505.773020,0.156881
506.104720,0.154969
506.436380,0.162328
506.768000,0.162301
507.099580,0.156979
507.431120,0.160187
507.762620,0.158835
508.094080,0.157703
508.425500,0.159664
508.756880,0.158665
509.088220,0.158694
509.419520,0.152235
509.750780,0.156982
510.082000,0.158582
510.413180,0.155689
510.744320,0.154625
511.075420,0.154904
511.406480,0.152797
511.737500,0.153241
512.068480,0.154135
512.399420,0.157277
512.730320,0.150577
513.061180,0.154139
513.392000,0.155230
513.722780,0.158021
514.053520,0.152372
514.384220,0.157945
514.714880,0.155098
515.045500,0.148946
515.376080,0.154479
515.706620,0.156357
516.037120,0.151961
516.367580,0.154263
516.698000,0.153922
517.028380,0.159881
517.358720,0.160000
517.689020,0.158754
518.019280,0.157050
518.349500,0.156107
518.679680,0.150934
519.009820,0.155364
519.339920,0.162325
519.669980,0.155701
520.000000,0.155374
520.329980,0.157595
520.659920,0.153374
520.989820,0.162023
521.319680,0.166152
521.649500,0.154756
521.979280,0.161795
522.309020,0.160270
522.638720,0.157194
522.968380,0.162358
523.298000,0.160230
523.627580,0.160890
523.957120,0.160519
524.286620,0.165190
524.616080,0.160807
524.945500,0.161240
525.274880,0.161108
525.604220,0.164079
525.933520,0.158805
526.262780,0.159655
526.592000,0.162861
526.921180,0.168106
527.250320,0.167935
527.579420,0.168267
527.908480,0.169867
528.237500,0.166832
528.566480,0.170659
528.895420,0.170034
529.224320,0.172858
529.553180,0.170120
529.882000,0.171776
530.210780,0.169884
530.539520,0.169223
530.868220,0.177597
531.196880,0.166269
531.525500,0.180145
531.854080,0.173077
532.182620,0.179355
532.511120,0.174478
532.839580,0.172414
533.168000,0.173200
533.496380,0.176712
533.824720,0.179453
534.153020,0.176103
534.481280,0.178414
534.809500,0.186456
535.137680,0.179253
535.465820,0.185997
535.793920,0.182741
536.121980,0.179606
536.450000,0.186469
536.777980,0.187264
537.105920,0.186384
537.433820,0.184124
537.761680,0.189388
538.089500,0.187778
538.417280,0.190609
538.745020,0.190571
539.072720,0.189770
539.400380,0.191142
539.728000,0.196941
540.055580,0.191760
540.383120,0.194713
540.710620,0.189732
541.038080,0.196975
541.365500,0.197059
541.692880,0.199128
542.020220,0.199352
542.347520,0.195980
542.674780,0.195483
543.002000,0.199090
543.329180,0.205191
543.656320,0.212025
543.983420,0.202051
544.310480,0.205573
544.637500,0.210167
544.964480,0.208614
545.291420,0.210369
545.618320,0.213479
545.945180,0.210943
546.272000,0.211664
546.598780,0.212389
546.925520,0.213320
547.252220,0.216243
547.578880,0.218964
547.905500,0.215359
548.232080,0.219298
548.558620,0.220631
548.885120,0.224076
549.211580,0.220186
549.538000,0.228275
549.864380,0.225723
550.190720,0.226025
550.517020,0.224576
550.843280,0.231270
551.169500,0.224555
551.495680,0.232260
551.821820,0.237100
552.147920,0.229343
552.473980,0.240040
552.800000,0.230216
553.125980,0.243615
553.451920,0.243530
553.777820,0.247502
554.103680,0.243680
554.429500,0.241045
554.755280,0.242657
555.081020,0.243984
555.406720,0.246868
555.732380,0.241274
556.058000,0.251867
556.383580,0.247860
556.709120,0.252240
557.034620,0.252842
557.360080,0.257686
557.685500,0.254149
558.010880,0.255806
558.336220,0.253779
558.661520,0.263027
558.986780,0.261871
559.312000,0.262108
559.637180,0.259964
559.962320,0.262727
560.287420,0.268336
560.612480,0.263007
560.937500,0.275330
561.262480,0.277126
561.587420,0.272398
561.912320,0.268607
562.237180,0.273501
562.562000,0.279087
562.886780,0.278335
563.211520,0.276826
563.536220,0.277922
563.860880,0.279517
564.185500,0.284053
564.510080,0.279533
564.834620,0.288054
565.159120,0.279699
565.483580,0.284683
565.808000,0.283012
566.132380,0.290563
566.456720,0.292895
566.781020,0.297449
567.105280,0.297164
567.429500,0.299697
567.753680,0.303414
568.077820,0.299961
568.401920,0.308251
568.725980,0.302846
569.050000,0.309886
569.373980,0.303769
569.697920,0.310580
570.021820,0.311236
570.345680,0.303483
570.669500,0.307135
570.993280,0.310078
571.317020,0.312386
571.640720,0.320119
571.964380,0.317743
572.288000,0.323442
572.611580,0.328341
572.935120,0.326973
573.258620,0.325355
573.582080,0.327496
573.905500,0.325391
574.228880,0.327023
574.552220,0.334188
574.875520,0.331348
575.198780,0.330683
575.522000,0.333944
575.845180,0.328797
576.168320,0.342077
576.491420,0.340480
576.814480,0.349729
577.137500,0.344156
577.460480,0.341428
577.783420,0.340836
578.106320,0.346510
578.429180,0.351361
578.752000,0.354290
579.074780,0.356372
579.397520,0.349903
579.720220,0.354569
580.042880,0.358110
580.365500,0.363997
580.688080,0.361601
581.010620,0.363145
581.333120,0.358049
581.655580,0.367632
581.978000,0.372132
582.300380,0.368387
582.622720,0.368820
582.945020,0.373862
583.267280,0.370563
583.589500,0.372071
583.911680,0.375675
584.233820,0.372049
584.555920,0.386070
584.877980,0.381910
585.200000,0.380295
585.521980,0.386160
585.843920,0.387126
586.165820,0.386654
586.487680,0.383689
586.809500,0.389439
587.131280,0.390417
587.453020,0.397321
587.774720,0.397694
588.096380,0.395858
588.418000,0.401814
588.739580,0.398678
589.061120,0.404543
589.382620,0.406304
589.704080,0.401403
590.025500,0.414384
590.346880,0.415121
590.668220,0.406329
590.989520,0.411814
591.310780,0.413698
591.632000,0.411749
591.953180,0.422364
592.274320,0.412503
592.595420,0.418912
592.916480,0.422711
593.237500,0.421450
593.558480,0.427495
593.879420,0.425411
594.200320,0.423520
594.521180,0.427092
594.842000,0.435787
595.162780,0.435897
595.483520,0.434991
595.804220,0.433942
596.124880,0.440181
596.445500,0.431229
596.766080,0.439903
597.086620,0.438429
597.407120,0.436546
597.727580,0.447892
598.048000,0.442211
598.368380,0.447659
598.688720,0.446134
599.009020,0.450372
599.329280,0.456360
599.649500,0.450079
599.969680,0.451923
600.289820,0.460470
600.609920,0.455517
600.929980,0.456173
601.250000,0.460541
601.569980,0.461248
601.889920,0.457364
602.209820,0.456439
602.529680,0.472123
602.849500,0.465085
603.169280,0.469275
603.489020,0.469416
603.808720,0.467910
604.128380,0.469647
604.448000,0.472099
604.767580,0.472346
605.087120,0.469529
605.406620,0.472432
605.726080,0.476190
606.045500,0.474784
606.364880,0.477460
606.684220,0.487150
607.003520,0.482798
607.322780,0.488630
607.642000,0.479322
607.961180,0.485979
608.280320,0.487529
608.599420,0.482039
608.918480,0.492669
609.237500,0.492371
609.556480,0.490678
609.875420,0.490254
610.194320,0.495424
610.513180,0.486534
610.832000,0.496426
611.150780,0.500751
611.469520,0.497738
611.788220,0.497582
612.106880,0.493064
612.425500,0.497868
612.744080,0.509388
613.062620,0.507951
613.381120,0.506703
613.699580,0.514102
614.018000,0.509521
614.336380,0.512647
614.654720,0.508217
614.973020,0.508794
615.291280,0.513790
615.609500,0.518542
615.927680,0.512052
616.245820,0.518862
616.563920,0.520050
616.881980,0.515435
617.200000,0.523484
617.517980,0.513690
617.835920,0.522212
618.153820,0.517563
618.471680,0.517209
618.789500,0.528949
619.107280,0.528013
619.425020,0.527434
619.742720,0.527307
620.060380,0.523660
620.378000,0.535242
620.695580,0.539591
621.013120,0.525039
621.330620,0.525573
621.648080,0.529653
621.965500,0.532936
622.282880,0.544451
622.600220,0.527795
622.917520,0.537807
623.234780,0.549984
623.552000,0.547740
623.869180,0.547747
624.186320,0.546323
624.503420,0.545141
624.820480,0.540685
625.137500,0.544364
625.454480,0.544858
625.771420,0.546343
626.088320,0.540038
626.405180,0.547293
626.722000,0.547051
627.038780,0.548872
627.355520,0.546250
627.672220,0.562053
627.988880,0.551477
628.305500,0.560299
628.622080,0.559789
628.938620,0.554128
629.255120,0.569073
629.571580,0.554091
629.888000,0.557840
630.204380,0.563670
630.520720,0.560938
630.837020,0.560592
631.153280,0.562950
631.469500,0.563675
631.785680,0.568113
632.101820,0.573281
632.417920,0.565425
632.733980,0.574730
633.050000,0.575804
633.365980,0.566094
633.681920,0.569809
633.997820,0.576509
634.313680,0.583309
634.629500,0.571513
634.945280,0.581232
635.261020,0.577928
635.576720,0.582501
635.892380,0.577403
636.208000,0.574085
636.523580,0.592517
636.839120,0.587724
637.154620,0.573913
637.470080,0.585366
637.785500,0.596131
638.100880,0.587315
638.416220,0.596491
638.731520,0.583668
639.046780,0.590737
639.362000,0.584002
639.677180,0.587379
639.992320,0.586411
640.307420,0.587806
640.622480,0.594231
640.937500,0.590291
641.252480,0.595364
641.567420,0.593919
641.882320,0.588530
642.197180,0.596856
642.512000,0.597817
642.826780,0.597781
643.141520,0.598777
643.456220,0.599336
643.770880,0.603372
644.085500,0.591392
644.400080,0.600843
644.714620,0.605909
645.029120,0.592959
645.343580,0.602578
645.658000,0.606162
645.972380,0.613045
646.286720,0.601799
646.601020,0.606698
646.915280,0.611736
647.229500,0.603846
647.543680,0.598177
647.857820,0.612992
648.171920,0.606348
648.485980,0.614415
648.800000,0.606228
649.113980,0.609202
649.427920,0.614147
649.741820,0.608409
650.055680,0.608886
650.369500,0.619675
650.683280,0.610433
650.997020,0.607811
651.310720,0.611998
651.624380,0.610989
651.938000,0.618006
652.251580,0.620095
652.565120,0.611794
652.878620,0.621059
653.192080,0.615449
653.505500,0.614025
653.818880,0.623258
654.132220,0.623184
654.445520,0.617697
654.758780,0.622096
655.072000,0.615186
655.385180,0.621683
655.698320,0.618748
656.011420,0.620808
656.324480,0.620810
656.637500,0.616744
656.950480,0.622725
657.263420,0.629323
657.576320,0.627038
657.889180,0.626364
658.202000,0.625302
658.514780,0.617743
658.827520,0.626050
659.140220,0.619119
659.452880,0.627605
659.765500,0.617700
660.078080,0.611496
660.390620,0.620532
660.703120,0.625420
661.015580,0.630061
661.328000,0.632242
661.640380,0.626281
661.952720,0.626285
662.265020,0.628229
662.577280,0.631361
662.889500,0.625039
663.201680,0.635609
663.513820,0.629141
663.825920,0.629523
664.137980,0.631545
664.450000,0.621483
664.761980,0.634697
665.073920,0.631289
665.385820,0.624018
665.697680,0.635041
666.009500,0.636847
666.321280,0.632207
666.633020,0.631649
666.944720,0.638018
667.256380,0.631225
667.568000,0.635190
667.879580,0.632993
668.191120,0.640453
668.502620,0.637111
668.814080,0.637544
669.125500,0.637359
669.436880,0.635546
669.748220,0.635860
670.059520,0.649160
670.370780,0.636395
670.682000,0.640354
670.993180,0.638830
671.304320,0.635021
671.615420,0.637074
671.926480,0.630944
672.237500,0.632726
672.548480,0.631299
672.859420,0.635454
673.170320,0.638012
673.481180,0.646271
673.792000,0.626037
674.102780,0.635189
674.413520,0.639081
674.724220,0.631942
675.034880,0.642098
675.345500,0.633844
675.656080,0.633394
675.966620,0.638778
676.277120,0.641889
676.587580,0.643962
676.898000,0.641657
677.208380,0.633641
677.518720,0.628009
677.829020,0.645972
678.139280,0.636768
678.449500,0.643892
678.759680,0.635444
679.069820,0.636803
679.379920,0.643908
679.689980,0.641292
680.000000,0.635140
680.309980,0.638085
680.619920,0.641424
680.929820,0.633072
681.239680,0.639586
681.549500,0.630370
681.859280,0.637789
682.169020,0.637449
682.478720,0.640613
682.788380,0.641196
683.098000,0.643231
683.407580,0.640150
683.717120,0.644144
684.026620,0.635166
684.336080,0.638121
684.645500,0.632248
684.954880,0.641859
685.264220,0.644772
685.573520,0.650933
685.882780,0.650173
686.192000,0.633935
686.501180,0.634885
686.810320,0.647194
687.119420,0.644622
687.428480,0.643373
687.737500,0.642748
688.046480,0.642255
688.355420,0.637495
688.664320,0.642693
688.973180,0.636677
689.282000,0.650077
689.590780,0.643021
689.899520,0.634258
690.208220,0.637232
690.516880,0.644903
690.825500,0.642642
691.134080,0.640091
691.442620,0.637957
691.751120,0.642017
692.059580,0.649981
692.368000,0.635365
692.676380,0.637786
692.984720,0.634351
693.293020,0.636018
693.601280,0.636017
693.909500,0.639047
694.217680,0.637471
694.525820,0.637852
694.833920,0.643647
695.141980,0.641728
695.450000,0.637023
695.757980,0.638273
696.065920,0.633398
696.373820,0.640108
696.681680,0.632144
696.989500,0.642609
697.297280,0.627771
697.605020,0.649206
697.912720,0.629900
698.220380,0.629673
698.528000,0.638449
698.835580,0.636507
699.143120,0.633281
699.450620,0.640016
699.758080,0.633725
700.065500,0.645251
700.372880,0.643600
700.680220,0.633426
700.987520,0.643651
701.294780,0.639497
701.602000,0.639461
701.909180,0.641097
702.216320,0.627689
702.523420,0.639700
702.830480,0.632079
703.137500,0.632112
703.444480,0.642998
703.751420,0.639053
704.058320,0.637119
704.365180,0.635647
704.672000,0.648713
704.978780,0.630901
705.285520,0.625587
705.592220,0.625882
705.898880,0.633176
706.205500,0.638106
706.512080,0.635466
706.818620,0.635449
707.125120,0.634615
707.431580,0.631497
707.738000,0.635938
708.044380,0.630259
708.350720,0.634696
708.657020,0.637749
708.963280,0.636258
709.269500,0.632485
709.575680,0.634185
709.881820,0.641903
710.187920,0.630350
710.493980,0.625291
710.800000,0.628528
711.105980,0.622364
711.411920,0.626724
711.717820,0.615595
712.023680,0.622620
712.329500,0.634464
712.635280,0.632558
712.941020,0.619250
713.246720,0.623320
713.552380,0.622841
713.858000,0.622389
714.163580,0.623520
714.469120,0.619383
714.774620,0.622582
715.080080,0.619945
715.385500,0.629097
715.690880,0.616963
715.996220,0.621632
716.301520,0.619368
716.606780,0.615173
716.912000,0.623990
717.217180,0.622905
717.522320,0.611133
717.827420,0.618796
718.132480,0.619029
718.437500,0.628618
718.742480,0.614919
719.047420,0.611650
719.352320,0.628061
719.657180,0.623876
719.962000,0.619934
720.266780,0.614458
720.571520,0.608119
720.876220,0.617430
721.180880,0.614967
721.485500,0.611784
721.790080,0.608917
722.094620,0.622213
722.399120,0.629470
722.703580,0.616374
723.008000,0.615783
723.312380,0.613000
723.616720,0.611135
723.921020,0.617150
724.225280,0.611257
724.529500,0.607268
724.833680,0.617438
725.137820,0.608370
725.441920,0.603210
725.745980,0.609396
726.050000,0.612088
726.353980,0.604326
726.657920,0.596491
726.961820,0.614155
727.265680,0.608877
727.569500,0.604662
727.873280,0.600462
728.177020,0.607554
728.480720,0.602315
728.784380,0.600282
729.088000,0.602920
729.391580,0.607769
729.695120,0.606046
729.998620,0.607553
730.302080,0.603075
730.605500,0.602135
730.908880,0.601176
731.212220,0.602840
731.515520,0.588981
731.818780,0.595631
732.122000,0.598425
732.425180,0.591424
732.728320,0.598413
733.031420,0.579449
733.334480,0.595408
733.637500,0.591230
733.940480,0.587001
734.243420,0.589195
734.546320,0.595436
734.849180,0.580062
735.152000,0.596473
735.454780,0.589360
735.757520,0.589568
736.060220,0.592944
736.362880,0.585084
736.665500,0.581723
736.968080,0.586781
737.270620,0.589548
737.573120,0.594978
737.875580,0.598681
738.178000,0.596625
738.480380,0.582162
738.782720,0.580153
739.085020,0.584802
739.387280,0.581486
739.689500,0.584938
739.991680,0.577204
740.293820,0.571034
740.595920,0.584307
740.897980,0.582722
741.200000,0.583287
741.501980,0.587393
741.803920,0.567568
742.105820,0.580936
742.407680,0.590565
742.709500,0.572727
743.011280,0.574443
743.313020,0.562319
743.614720,0.558909
743.916380,0.565698
744.218000,0.576969
744.519580,0.580314
744.821120,0.588623
745.122620,0.554224
745.424080,0.560096
745.725500,0.570911
746.026880,0.573276
746.328220,0.563502
746.629520,0.555689
746.930780,0.564951
747.232000,0.562845
747.533180,0.565589
747.834320,0.567864
748.135420,0.563704
748.436480,0.570805
748.737500,0.556516
749.038480,0.554673
749.339420,0.558805
749.640320,0.571967
749.941180,0.558401
750.242000,0.552764
750.542780,0.553350
750.843520,0.563741
751.144220,0.555128
751.444880,0.554217
751.745500,0.553247
752.046080,0.563823
752.346620,0.543814
752.647120,0.542129
752.947580,0.554981
753.248000,0.548034
753.548380,0.545218
753.848720,0.547972
754.149020,0.531915
754.449280,0.551543
754.749500,0.548772
755.049680,0.549333
755.349820,0.548366
755.649920,0.547257
755.949980,0.548109
756.250000,0.555556
756.549980,0.549175
756.849920,0.545207
757.149820,0.541583
757.449680,0.544554
757.749500,0.543967
758.049280,0.543345
758.349020,0.538943
758.648720,0.541753
758.948380,0.531271
759.248000,0.549191
759.547580,0.535306
759.847120,0.532736
760.146620,0.539242
760.446080,0.538978
760.745500,0.532168
761.044880,0.547585
761.344220,0.533856
761.643520,0.541667
761.942780,0.535339
762.242000,0.535361
762.541180,0.534507
762.840320,0.530899
763.139420,0.532349
763.438480,0.533835
763.737500,0.536182
764.036480,0.535989
764.335420,0.538462
764.634320,0.530839
764.933180,0.523973
765.232000,0.537127
765.530780,0.527018
765.829520,0.523776
766.128220,0.521921
766.426880,0.533760
766.725500,0.521590
767.024080,0.519204
767.322620,0.515906
767.621120,0.516260
767.919580,0.520819
768.218000,0.523940
768.516380,0.524679
768.814720,0.515089
769.113020,0.520331
769.411280,0.522099
769.709500,0.521651
770.007680,0.513292
770.305820,0.521298
770.603920,0.518868
770.901980,0.504781
771.200000,0.508832
771.497980,0.500670
771.795920,0.506355
772.093820,0.507353
772.391680,0.507581
772.689500,0.505405
772.987280,0.512458
773.285020,0.504443
773.582720,0.505405
773.880380,0.518188
774.178000,0.507157
774.475580,0.507703
774.773120,0.505355
775.070620,0.515213
775.368080,0.504342
775.665500,0.499664
775.962880,0.497665
776.260220,0.510767
776.557520,0.506338
776.854780,0.503043
777.152000,0.489390
777.449180,0.516521
777.746320,0.496640
778.043420,0.502046
778.340480,0.487145
778.637500,0.499662
778.934480,0.494284
779.231420,0.483718
779.528320,0.490314
779.825180,0.472991
780.122000,0.480744
780.418780,0.488372
780.715520,0.488263
781.012220,0.498630
781.308880,0.493577
781.605500,0.481507
781.902080,0.480493
782.198620,0.481203
782.495120,0.488340
782.791580,0.488308
783.088000,0.479641
783.384380,0.484869
783.680720,0.478796
783.977020,0.479697
784.273280,0.488112
784.569500,0.491964
784.865680,0.491655
785.161820,0.484028
785.457920,0.469161
785.753980,0.484299
786.050000,0.475138
786.345980,0.477083
786.641920,0.471201
786.937820,0.485043
787.233680,0.455115
787.529500,0.478502
787.825280,0.485836
788.121020,0.481586
788.416720,0.471418
788.712380,0.464739
789.008000,0.459632
789.303580,0.474205
789.599120,0.465455
789.894620,0.472202
790.190080,0.456853
790.485500,0.457883
790.780880,0.450896
791.076220,0.466811
791.371520,0.460421
791.666780,0.469091
791.962000,0.470242
792.257180,0.453148
792.552320,0.463379
792.847420,0.458515
793.142480,0.460806
793.437500,0.445731
793.732480,0.457206
794.027420,0.457715
794.322320,0.468307
794.617180,0.459881
794.912000,0.455423
795.206780,0.448173
795.501520,0.464639
795.796220,0.449630
796.090880,0.451394
796.385500,0.443778
796.680080,0.439043
796.974620,0.447605
797.269120,0.448145
797.563580,0.461832
797.858000,0.450266
798.152380,0.455530
798.446720,0.446154
798.741020,0.448382
799.035280,0.445652
799.329500,0.446497
799.623680,0.450388
