400,1.0000
401,1.0000
402,1.0000
403,0.0000
404,1.0000
405,1.0000
406,1.0000
407,1.0000
408,1.0000
409,1.0000
410,1.0000
411,1.0000
412,1.0000
413,1.0000
414,1.0000
415,1.0000
416,1.0000
417,1.0000
418,1.0000
419,1.0000
420,1.0000
421,1.0000
422,1.0000
423,1.0000
424,1.0000
425,1.0000
426,1.0000
427,1.0000
428,1.0000
429,1.0000
430,1.0000
431,1.0000
432,1.0000
433,1.0000
434,1.0000
435,0.9765
436,1.0000
437,1.0000
438,1.0000
439,1.0000
440,1.0000
441,1.0000
442,1.0000
443,1.0000
444,1.0000
445,1.0000
446,1.0000
447,1.0000
448,0.9124
449,0.8013
450,0.8925
451,0.8233
452,0.8084
453,0.7046
454,0.6800
455,0.5504
456,0.5461
457,0.5304
458,0.5788
459,0.5274
460,0.6020
461,0.5853
462,0.5613
463,0.6143
464,0.6346
465,0.6044
466,0.6712
467,0.6665
468,0.6435
469,0.6292
470,0.6039
471,0.6514
472,0.6265
473,0.5996
474,0.6196
475,0.5875
476,0.5041
477,0.4939
478,0.5285
479,0.5183
480,0.5573
481,0.5046
482,0.5012
483,0.5131
484,0.4906
485,0.5105
486,0.5437
487,0.5432
488,0.5190
489,0.5518
490,0.5543
491,0.5133
492,0.5287
493,0.5862
494,0.5477
495,0.5308
496,0.5291
497,0.5145
498,0.4987
499,0.4989
500,0.5224
501,0.4629
502,0.4496
503,0.4664
504,0.4467
505,0.4795
506,0.4739
507,0.4884
508,0.5010
509,0.4729
510,0.4995
511,0.4924
512,0.5268
513,0.5306
514,0.4945
515,0.5237
516,0.4997
517,0.4781
518,0.4943
519,0.4471
520,0.4226
521,0.4326
522,0.3860
523,0.3712
524,0.3340
525,0.3300
526,0.3066
527,0.2763
528,0.2689
529,0.2476
530,0.2413
531,0.2283
532,0.2149
533,0.1991
534,0.2176
535,0.2179
536,0.2032
537,0.1953
538,0.2057
539,0.2182
540,0.2168
541,0.2206
542,0.2140
543,0.2185
544,0.2280
545,0.2144
546,0.2376
547,0.2337
548,0.2261
549,0.2199
550,0.2213
551,0.2114
552,0.2054
553,0.2225
554,0.2038
555,0.1838
556,0.1970
557,0.1728
558,0.1709
559,0.1659
560,0.1447
561,0.1577
562,0.1356
563,0.1386
564,0.1215
565,0.1143
566,0.1230
567,0.1091
568,0.1068
569,0.1095
570,0.1012
571,0.0961
572,0.1066
573,0.1045
574,0.1194
575,0.1132
576,0.1215
577,0.1358
578,0.1265
579,0.1381
580,0.1424
581,0.1461
582,0.1612
583,0.1689
584,0.1645
585,0.1790
586,0.1598
587,0.1789
588,0.1892
589,0.1814
590,0.1968
591,0.1954
592,0.1811
593,0.2102
594,0.1938
595,0.1925
596,0.2177
597,0.1977
598,0.1832
599,0.2122
600,0.1950
601,0.1908
602,0.2003
603,0.1866
604,0.1758
605,0.1923
606,0.1731
607,0.1654
608,0.1922
609,0.1571
610,0.1598
611,0.1934
612,0.1634
613,0.1569
614,0.1825
615,0.1613
616,0.1591
617,0.1933
618,0.1725
619,0.1549
620,0.1925
621,0.1876
622,0.1623
623,0.1884
624,0.1910
625,0.1642
626,0.1880
627,0.2211
628,0.1761
629,0.1907
630,0.2247
631,0.1872
632,0.2012
633,0.2289
634,0.2109
635,0.1840
636,0.2174
637,0.2247
638,0.1881
639,0.2154
640,0.2317
641,0.1984
642,0.1970
643,0.2332
644,0.2136
645,0.1834
646,0.2099
647,0.2369
648,0.1859
649,0.1998
650,0.2345
651,0.1842
652,0.1742
653,0.2165
654,0.2158
655,0.1606
656,0.1720
657,0.2084
658,0.1795
659,0.1481
660,0.1992
661,0.1880
662,0.1395
663,0.1608
664,0.1965
665,0.1824
666,0.1394
667,0.1732
668,0.2250
669,0.1729
670,0.1425
671,0.2009
672,0.2073
673,0.1517
674,0.1738
675,0.2331
676,0.2002
677,0.1503
678,0.2041
679,0.2371
680,0.1951
681,0.1500
682,0.1988
683,0.2373
684,0.1887
685,0.1575
686,0.2018
687,0.2289
688,0.1670
689,0.1540
690,0.2227
691,0.2226
692,0.1567
693,0.1442
694,0.2259
695,0.2123
696,0.1392
697,0.1603
698,0.2177
699,0.2067
700,0.1519
701,0.1296
702,0.2052
703,0.2257
704,0.1435
705,0.1276
706,0.1924
707,0.2163
708,0.1547
709,0.1157
710,0.1865
711,0.2213
712,0.1515
713,0.1126
714,0.1736
715,0.2179
716,0.1688
717,0.1069
718,0.1480
719,0.1967
720,0.1753
721,0.1012
722,0.1190
723,0.1956
724,0.2015
725,0.1331
726,0.1139
727,0.2005
728,0.2388
729,0.1719
730,0.1307
731,0.1924
732,0.2709
733,0.2393
734,0.1576
735,0.1761
736,0.2675
737,0.2874
738,0.2116
739,0.1619
740,0.2416
741,0.3029
742,0.2747
743,0.1817
744,0.1928
745,0.2780
746,0.3254
747,0.2327
748,0.1692
749,0.2228
750,0.3090
751,0.2912
752,0.1982
753,0.1688
754,0.2276
755,0.3092
756,0.2599
757,0.1622
758,0.1653
759,0.2462
760,0.2810
761,0.1985
762,0.1280
763,0.1857
764,0.2709
765,0.2711
766,0.1818
767,0.1290
768,0.2062
769,0.2886
770,0.2693
771,0.1781
772,0.1279
773,0.2042
774,0.2863
775,0.2802
776,0.1847
777,0.1290
778,0.1863
779,0.2791
780,0.2628
781,0.1328
782,0.1244
783,0.1941
784,0.2783
785,0.2561
786,0.1575
787,0.1099
788,0.1770
789,0.2749
790,0.2714
791,0.1964
792,0.1279
793,0.1967
794,0.3146
795,0.3267
796,0.2299
797,0.1520
798,0.1906
799,0.3148
800,0.4108
801,0.3500
802,0.2250
803,0.2274
804,0.3616
805,0.4305
806,0.4050
807,0.2632
808,0.2431
809,0.3129
810,0.4552
811,0.4934
812,0.3636
813,0.2442
814,0.2810
815,0.4355
816,0.5188
817,0.4481
818,0.3260
819,0.2558
820,0.3331
821,0.4815
822,0.4967
823,0.3955
824,0.2891
825,0.2947
826,0.4191
827,0.5137
828,0.4820
829,0.3512
830,0.2655
831,0.3234
832,0.4942
833,0.5480
834,0.4794
835,0.3044
836,0.2721
837,0.3739
838,0.5044
839,0.5221
840,0.4082
841,0.2966
842,0.2463
843,0.3656
844,0.4647
845,0.4604
846,0.3536
847,0.2269
848,0.2236
849,0.3429
850,0.4098
851,0.4137
852,0.3015
853,0.1825
854,0.1702
855,0.2724
856,0.3746
857,0.3631
858,0.2773
859,0.1456
860,0.1545
861,0.2397
862,0.3486
863,0.3623
864,0.2699
865,0.1506
866,0.1051
867,0.2010
868,0.3058
869,0.3372
870,0.2872
871,0.1652
872,0.0893
873,0.1471
874,0.2542
875,0.3326
876,0.2839
877,0.1836
878,0.1145
879,0.1276
880,0.2527
881,0.3404
882,0.3839
883,0.2754
884,0.1886
885,0.1810
886,0.2748
887,0.4177
888,0.5075
889,0.4746
890,0.3343
891,0.2615
892,0.2814
893,0.4415
894,0.5575
895,0.5685
896,0.4684
897,0.3487
898,0.3358
899,0.3850
900,0.5514
901,0.6593
902,0.6376
903,0.5027
904,0.3643
905,0.3097
906,0.4508
907,0.6146
908,0.6915
909,0.6581
910,0.5240
911,0.3846
912,0.3321
913,0.5177
914,0.6978
915,0.7474
916,0.7041
917,0.5193
918,0.3735
919,0.3785
920,0.5001
921,0.7278
922,0.7254
923,0.6668
924,0.4886
925,0.3221
926,0.3146
927,0.3974
928,0.5430
929,0.6526
930,0.5368
931,0.3392
932,0.1917
933,0.1414
934,0.1465
935,0.1770
936,0.2120
937,0.0845
938,0.0000
939,0.0000
940,0.0000
941,0.0000
942,0.0000
