399.985280,0.364865
400.329500,0.324324
400.673680,0.329114
401.017820,0.426471
401.361920,0.378788
401.705980,0.341463
402.050000,0.363636
402.393980,0.400000
402.737920,0.449438
403.081820,0.360825
403.425680,0.430233
403.769500,0.333333
404.113280,0.356322
404.457020,0.404494
404.800720,0.336957
405.144380,0.404040
405.488000,0.344086
405.831580,0.422680
406.175120,0.361702
406.518620,0.370000
406.862080,0.402062
407.205500,0.343750
407.548880,0.346939
407.892220,0.401961
408.235520,0.351064
408.578780,0.409524
408.922000,0.384615
409.265180,0.373737
409.608320,0.414141
409.951420,0.432990
410.294480,0.411765
410.637500,0.380435
410.980480,0.441176
411.323420,0.438776
411.666320,0.376147
412.009180,0.409091
412.352000,0.326733
412.694780,0.422018
413.037520,0.376147
413.380220,0.405405
413.722880,0.464286
414.065500,0.414414
414.408080,0.398230
414.750620,0.389381
415.093120,0.355372
415.435580,0.403361
415.778000,0.454545
416.120380,0.411765
416.462720,0.436508
416.805020,0.458647
417.147280,0.432836
417.489500,0.435714
417.831680,0.404110
418.173820,0.397163
418.515920,0.419580
418.857980,0.417722
419.200000,0.403846
419.541980,0.455621
419.883920,0.421348
420.225820,0.427746
420.567680,0.407821
420.909500,0.437158
421.251280,0.447917
421.593020,0.418367
421.934720,0.419192
422.276380,0.430769
422.618000,0.397059
422.959580,0.397059
423.301120,0.415525
423.642620,0.360870
423.984080,0.418605
424.325500,0.417040
424.666880,0.448276
425.008220,0.445378
425.349520,0.411017
425.690780,0.376923
426.032000,0.411765
426.373180,0.419087
426.714320,0.437500
427.055420,0.405405
427.396480,0.423221
427.737500,0.434783
428.078480,0.415020
428.419420,0.469880
428.760320,0.440613
429.101180,0.444882
429.442000,0.444444
429.782780,0.434615
430.123520,0.454902
430.464220,0.450185
430.804880,0.444444
431.145500,0.410909
431.486080,0.434457
431.826620,0.441860
432.167120,0.430147
432.507580,0.423913
432.848000,0.435252
433.188380,0.454874
433.528720,0.426415
433.869020,0.446429
434.209280,0.424561
434.549500,0.452962
434.889680,0.468013
435.229820,0.419795
435.569920,0.408304
435.909980,0.427184
436.250000,0.454237
436.589980,0.421053
436.929920,0.466667
437.269820,0.432602
437.609680,0.437870
437.949500,0.445783
438.289280,0.430595
438.629020,0.453488
438.968720,0.441860
439.308380,0.425474
439.648000,0.438356
439.987580,0.449735
440.327120,0.453333
440.666620,0.444156
441.006080,0.432225
441.345500,0.432432
441.684880,0.440191
442.024220,0.446650
442.363520,0.438095
442.702780,0.418182
443.042000,0.447137
443.381180,0.441810
443.720320,0.438445
444.059420,0.422269
444.398480,0.430962
444.737500,0.434426
445.076480,0.432540
445.415420,0.441118
445.754320,0.426195
446.093180,0.431193
446.432000,0.445489
446.770780,0.444023
447.109520,0.457721
447.448220,0.449016
447.786880,0.443649
448.125500,0.446552
448.464080,0.425000
448.802620,0.432624
449.141120,0.434256
449.479580,0.437063
449.818000,0.449225
450.156380,0.436455
450.494720,0.433058
450.833020,0.451049
451.171280,0.446918
451.509500,0.451220
451.847680,0.445194
452.185820,0.440620
452.523920,0.462199
452.861980,0.455312
453.200000,0.436877
453.537980,0.436975
453.875920,0.448739
454.213820,0.460616
454.551680,0.443709
454.889500,0.426644
455.227280,0.432384
455.565020,0.432161
455.902720,0.449251
456.240380,0.425957
456.578000,0.433798
456.915580,0.450777
457.253120,0.449013
457.590620,0.433498
457.928080,0.454545
458.265500,0.449324
458.602880,0.438312
458.940220,0.445008
459.277520,0.436800
459.614780,0.448445
459.952000,0.419255
460.289180,0.454114
460.626320,0.440945
460.963420,0.432956
461.300480,0.435780
461.637500,0.423729
461.974480,0.455657
462.311420,0.430700
462.648320,0.430454
462.985180,0.431851
463.322000,0.431548
463.658780,0.428177
463.995520,0.436039
464.332220,0.439058
464.668880,0.432796
465.005500,0.432976
465.342080,0.431498
465.678620,0.434194
466.015120,0.438551
466.351580,0.445006
466.688000,0.426309
467.024380,0.425273
467.360720,0.429545
467.697020,0.424829
468.033280,0.433333
468.369500,0.424945
468.705680,0.437430
469.041820,0.421875
469.377920,0.437093
469.713980,0.428424
470.050000,0.430918
470.385980,0.425636
470.721920,0.438786
471.057820,0.441520
471.393680,0.424696
471.729500,0.422614
472.065280,0.437388
472.401020,0.424645
472.736720,0.423211
473.072380,0.421005
473.408000,0.428198
473.743580,0.413495
474.079120,0.416882
474.414620,0.424936
474.750080,0.421481
475.085500,0.417763
475.420880,0.425479
475.756220,0.417007
476.091520,0.423700
476.426780,0.408576
476.762000,0.415125
477.097180,0.424000
477.432320,0.424071
477.767420,0.410948
478.102480,0.411811
478.437500,0.434319
478.772480,0.415288
479.107420,0.413344
479.442320,0.408473
479.777180,0.417661
480.112000,0.406780
480.446780,0.408418
480.781520,0.418680
481.116220,0.425222
481.450880,0.401249
481.785500,0.414557
482.120080,0.413793
482.454620,0.411033
482.789120,0.414809
483.123580,0.408100
483.458000,0.405854
483.792380,0.413738
484.126720,0.407722
484.461020,0.399688
484.795280,0.414803
485.129500,0.407638
485.463680,0.400000
485.797820,0.405910
486.131920,0.403213
486.465980,0.395367
486.800000,0.403817
487.133980,0.401813
487.467920,0.400918
487.801820,0.415713
488.135680,0.405610
488.469500,0.403177
488.803280,0.399703
489.137020,0.395604
489.470720,0.390208
489.804380,0.401633
490.138000,0.399110
490.471580,0.405306
490.805120,0.391708
491.138620,0.390192
491.472080,0.395053
491.805500,0.399582
492.138880,0.399583
492.472220,0.401384
492.805520,0.405726
493.138780,0.399724
493.472000,0.389298
493.805180,0.401091
494.138320,0.386925
494.471420,0.385417
494.804480,0.385511
495.137500,0.387677
495.470480,0.399618
495.803420,0.382872
496.136320,0.390977
496.469180,0.375691
496.802000,0.378362
497.134780,0.390540
497.467520,0.382263
497.800220,0.385024
498.132880,0.387419
498.465500,0.382387
498.798080,0.381279
499.130620,0.384054
499.463120,0.386861
499.795580,0.381188
500.128000,0.386921
500.460380,0.381593
500.792720,0.381760
501.125020,0.374672
501.457280,0.373890
501.789500,0.381715
502.121680,0.386729
502.453820,0.377358
502.785920,0.367184
503.117980,0.372915
503.450000,0.376695
503.781980,0.369208
504.113920,0.362257
504.445820,0.373359
504.777680,0.360471
505.109500,0.364423
505.441280,0.366157
505.773020,0.363081
506.104720,0.365049
506.436380,0.368670
506.768000,0.366230
507.099580,0.358810
507.431120,0.361593
507.762620,0.365602
508.094080,0.363263
508.425500,0.366480
508.756880,0.355281
509.088220,0.366145
509.419520,0.358007
509.750780,0.360356
510.082000,0.359608
510.413180,0.351451
510.744320,0.354809
511.075420,0.351512
511.406480,0.359191
511.737500,0.347685
512.068480,0.353853
512.399420,0.353991
512.730320,0.347806
513.061180,0.352997
513.392000,0.354472
513.722780,0.349183
514.053520,0.343076
514.384220,0.345861
514.714880,0.349449
515.045500,0.340038
515.376080,0.342857
515.706620,0.344861
516.037120,0.346078
516.367580,0.336619
516.698000,0.339706
517.028380,0.346077
517.358720,0.341235
517.689020,0.345203
518.019280,0.334671
518.349500,0.340091
518.679680,0.337203
519.009820,0.339069
519.339920,0.333166
519.669980,0.329985
520.000000,0.332654
520.329980,0.336962
520.659920,0.330266
520.989820,0.331269
521.319680,0.338477
521.649500,0.321851
521.979280,0.334551
522.309020,0.332469
522.638720,0.322069
522.968380,0.328335
523.298000,0.330898
523.627580,0.321262
523.957120,0.325195
524.286620,0.323085
524.616080,0.322130
524.945500,0.319897
525.274880,0.327347
525.604220,0.316253
525.933520,0.321803
526.262780,0.316270
526.592000,0.323186
526.921180,0.320467
527.250320,0.320649
527.579420,0.313290
527.908480,0.310192
528.237500,0.317776
528.566480,0.316367
528.895420,0.310498
529.224320,0.314017
529.553180,0.307952
529.882000,0.315815
530.210780,0.303089
530.539520,0.304890
530.868220,0.313547
531.196880,0.305781
531.525500,0.310896
531.854080,0.303471
532.182620,0.303129
532.511120,0.301624
532.839580,0.307169
533.168000,0.303555
533.496380,0.301826
533.824720,0.296546
534.153020,0.307624
534.481280,0.298238
534.809500,0.301231
535.137680,0.296007
535.465820,0.298969
535.793920,0.291455
536.121980,0.298363
536.450000,0.298943
536.777980,0.295769
537.105920,0.299709
537.433820,0.292962
537.761680,0.293469
538.089500,0.292594
538.417280,0.287704
538.745020,0.293185
539.072720,0.286997
539.400380,0.292929
539.728000,0.286807
540.055580,0.288015
540.383120,0.287416
540.710620,0.286086
541.038080,0.281815
541.365500,0.284926
541.692880,0.281613
542.020220,0.284995
542.347520,0.291816
542.674780,0.280875
543.002000,0.282365
543.329180,0.284462
543.656320,0.279887
543.983420,0.275897
544.310480,0.274550
544.637500,0.277039
544.964480,0.276245
545.291420,0.280492
545.618320,0.275896
545.945180,0.272248
546.272000,0.269659
546.598780,0.269420
546.925520,0.272338
547.252220,0.269066
547.578880,0.271750
547.905500,0.265359
548.232080,0.271605
548.558620,0.264562
548.885120,0.265293
549.211580,0.267760
549.538000,0.270752
549.864380,0.262058
550.190720,0.262189
550.517020,0.262712
550.843280,0.265798
551.169500,0.256043
551.495680,0.262484
551.821820,0.258328
552.147920,0.255368
552.473980,0.261771
552.800000,0.253434
553.125980,0.259659
553.451920,0.255806
553.777820,0.260160
554.103680,0.256825
554.429500,0.249414
554.755280,0.249666
555.081020,0.254679
555.406720,0.249915
555.732380,0.246696
556.058000,0.248812
556.383580,0.244779
556.709120,0.251895
557.034620,0.250086
557.360080,0.243523
557.685500,0.247234
558.010880,0.242981
558.336220,0.241476
558.661520,0.244949
558.986780,0.243090
559.312000,0.241097
559.637180,0.239856
559.962320,0.239587
560.287420,0.242243
560.612480,0.238249
560.937500,0.235316
561.262480,0.235704
561.587420,0.235401
561.912320,0.237657
562.237180,0.233161
562.562000,0.237935
562.886780,0.235600
563.211520,0.228018
563.536220,0.231169
563.860880,0.231988
564.185500,0.227767
564.510080,0.233258
564.834620,0.223297
565.159120,0.223308
565.483580,0.224629
565.808000,0.223610
566.132380,0.226781
566.456720,0.225246
566.781020,0.224306
567.105280,0.218526
567.429500,0.219272
567.753680,0.227081
568.077820,0.224198
568.401920,0.222307
568.725980,0.223150
569.050000,0.222433
569.373980,0.219642
569.697920,0.212363
570.021820,0.216854
570.345680,0.213548
570.669500,0.219763
570.993280,0.215947
571.317020,0.211911
571.640720,0.214153
571.964380,0.216036
572.288000,0.212166
572.611580,0.216024
572.935120,0.211373
573.258620,0.207928
573.582080,0.210507
573.905500,0.211095
574.228880,0.209354
574.552220,0.213998
574.875520,0.205138
575.198780,0.206361
575.522000,0.208211
575.845180,0.205587
576.168320,0.201581
576.491420,0.207122
576.814480,0.196383
577.137500,0.204906
577.460480,0.200797
577.783420,0.202572
578.106320,0.202635
578.429180,0.204666
578.752000,0.200069
579.074780,0.192515
579.397520,0.202066
579.720220,0.201737
580.042880,0.202841
580.365500,0.195897
580.688080,0.196065
581.010620,0.197773
581.333120,0.199399
581.655580,0.197136
581.978000,0.197539
582.300380,0.192145
582.622720,0.197429
582.945020,0.195709
583.267280,0.191143
583.589500,0.192295
583.911680,0.189902
584.233820,0.191376
584.555920,0.194768
584.877980,0.192839
585.200000,0.187231
585.521980,0.191535
585.843920,0.189140
586.165820,0.195308
586.487680,0.186277
586.809500,0.184218
587.131280,0.188110
587.453020,0.188988
587.774720,0.191307
588.096380,0.185823
588.418000,0.185836
588.739580,0.188272
589.061120,0.185164
589.382620,0.181089
589.704080,0.180645
590.025500,0.184646
590.346880,0.179876
590.668220,0.180622
590.989520,0.175818
591.310780,0.181718
591.632000,0.183333
591.953180,0.183781
592.274320,0.176085
592.595420,0.176994
592.916480,0.177941
593.237500,0.178119
593.558480,0.176486
593.879420,0.177232
594.200320,0.175998
594.521180,0.177689
594.842000,0.175712
595.162780,0.172276
595.483520,0.170699
595.804220,0.174006
596.124880,0.177724
596.445500,0.173959
596.766080,0.175854
597.086620,0.173301
597.407120,0.168773
597.727580,0.172898
598.048000,0.169267
598.368380,0.167806
598.688720,0.168545
599.009020,0.170913
599.329280,0.168441
599.649500,0.168780
599.969680,0.168002
600.289820,0.171207
600.609920,0.166711
600.929980,0.164618
601.250000,0.167297
601.569980,0.163381
601.889920,0.166533
602.209820,0.164773
602.529680,0.169459
602.849500,0.163939
603.169280,0.161753
603.489020,0.162746
603.808720,0.158804
604.128380,0.163355
604.448000,0.160773
604.767580,0.163128
605.087120,0.159003
605.406620,0.161489
605.726080,0.163388
606.045500,0.158540
606.364880,0.159059
606.684220,0.160480
607.003520,0.158544
607.322780,0.154349
607.642000,0.157381
607.961180,0.153223
608.280320,0.155452
608.599420,0.153534
608.918480,0.154252
609.237500,0.154049
609.556480,0.153004
609.875420,0.153278
610.194320,0.150576
610.513180,0.153596
610.832000,0.155450
611.150780,0.153199
611.469520,0.150830
611.788220,0.151753
612.106880,0.150181
612.425500,0.147381
612.744080,0.152355
613.062620,0.144343
613.381120,0.150213
613.699580,0.148069
614.018000,0.151413
614.336380,0.145898
614.654720,0.150388
614.973020,0.147794
615.291280,0.149985
615.609500,0.148970
615.927680,0.148949
616.245820,0.145640
616.563920,0.147964
616.881980,0.150296
617.200000,0.142768
617.517980,0.145613
617.835920,0.141348
618.153820,0.144234
618.471680,0.146667
618.789500,0.144430
619.107280,0.143349
619.425020,0.149699
619.742720,0.145009
620.060380,0.144782
620.378000,0.143801
620.695580,0.139208
621.013120,0.139843
621.330620,0.142767
621.648080,0.140063
621.965500,0.143350
622.282880,0.141236
622.600220,0.141503
622.917520,0.137051
623.234780,0.144327
623.552000,0.140675
623.869180,0.144028
624.186320,0.141675
624.503420,0.143887
624.820480,0.137292
625.137500,0.143669
625.454480,0.141294
625.771420,0.140605
626.088320,0.135561
626.405180,0.140324
626.722000,0.140841
627.038780,0.138784
627.355520,0.141875
627.672220,0.138103
627.988880,0.138725
628.305500,0.134310
628.622080,0.137856
628.938620,0.137615
629.255120,0.140012
629.571580,0.136684
629.888000,0.139613
630.204380,0.134704
630.520720,0.137416
630.837020,0.135677
631.153280,0.133393
631.469500,0.138569
631.785680,0.136829
632.101820,0.137817
632.417920,0.137407
632.733980,0.132053
633.050000,0.140085
633.365980,0.135448
633.681920,0.133055
633.997820,0.134788
634.313680,0.134179
634.629500,0.132704
634.945280,0.133431
635.261020,0.134723
635.576720,0.135349
635.892380,0.133895
636.208000,0.136258
636.523580,0.133002
636.839120,0.136943
637.154620,0.135942
637.470080,0.133429
637.785500,0.134232
638.100880,0.136693
638.416220,0.133448
638.731520,0.134384
639.046780,0.131081
639.362000,0.131307
639.677180,0.135637
639.992320,0.131097
640.307420,0.135150
640.622480,0.132176
640.937500,0.133981
641.252480,0.136275
641.567420,0.133276
641.882320,0.133352
642.197180,0.135879
642.512000,0.134341
642.826780,0.133981
643.141520,0.133926
643.456220,0.135584
643.770880,0.129077
644.085500,0.131917
644.400080,0.129494
644.714620,0.132107
645.029120,0.132563
645.343580,0.134120
645.658000,0.133222
645.972380,0.134557
646.286720,0.129736
646.601020,0.131470
646.915280,0.133534
647.229500,0.131319
647.543680,0.130351
647.857820,0.131296
648.171920,0.131579
648.485980,0.127706
648.800000,0.129512
649.113980,0.130820
649.427920,0.133981
649.741820,0.132179
650.055680,0.133022
650.369500,0.133128
650.683280,0.129578
650.997020,0.131463
651.310720,0.128233
651.624380,0.128846
651.938000,0.134072
652.251580,0.128583
652.565120,0.129122
652.878620,0.130912
653.192080,0.131742
653.505500,0.129874
653.818880,0.134490
654.132220,0.129878
654.445520,0.130176
654.758780,0.130878
655.072000,0.126934
655.385180,0.130385
655.698320,0.130323
656.011420,0.127257
656.324480,0.130866
656.637500,0.130939
656.950480,0.128303
657.263420,0.130358
657.576320,0.130151
657.889180,0.131230
658.202000,0.128623
658.514780,0.134564
658.827520,0.129052
659.140220,0.127660
659.452880,0.130776
659.765500,0.134256
660.078080,0.130003
660.390620,0.132295
660.703120,0.133211
661.015580,0.130982
661.328000,0.131927
661.640380,0.133582
661.952720,0.132980
662.265020,0.132325
662.577280,0.132952
662.889500,0.129927
663.201680,0.132419
663.513820,0.131554
663.825920,0.135126
664.137980,0.128636
664.450000,0.128197
664.761980,0.133879
665.073920,0.125609
665.385820,0.129581
665.697680,0.129917
666.009500,0.135018
666.321280,0.133863
666.633020,0.131649
666.944720,0.132120
667.256380,0.134253
667.568000,0.132812
667.879580,0.133673
668.191120,0.127060
668.502620,0.134543
668.814080,0.134035
669.125500,0.133425
669.436880,0.135546
669.748220,0.133264
670.059520,0.132703
670.370780,0.132916
670.682000,0.129204
670.993180,0.135659
671.304320,0.134318
671.615420,0.133878
671.926480,0.133073
672.237500,0.128975
672.548480,0.132363
672.859420,0.136169
673.170320,0.135292
673.481180,0.132513
673.792000,0.129102
674.102780,0.135009
674.413520,0.134524
674.724220,0.131034
675.034880,0.137514
675.345500,0.138950
675.656080,0.135027
675.966620,0.136049
676.277120,0.137312
676.587580,0.139543
676.898000,0.134005
677.208380,0.133826
677.518720,0.134573
677.829020,0.137103
678.139280,0.138251
678.449500,0.135165
678.759680,0.136755
679.069820,0.135316
679.379920,0.142965
679.689980,0.136651
680.000000,0.134579
680.309980,0.137713
680.619920,0.134419
680.929820,0.135498
681.239680,0.138109
681.549500,0.138148
681.859280,0.141524
682.169020,0.140619
682.478720,0.140987
682.788380,0.141381
683.098000,0.141361
683.407580,0.140713
683.717120,0.137012
684.026620,0.142696
684.336080,0.138689
684.645500,0.139169
684.954880,0.142803
685.264220,0.140808
685.573520,0.145413
685.882780,0.145378
686.192000,0.142965
686.501180,0.142263
686.810320,0.144120
687.119420,0.137970
687.428480,0.138245
687.737500,0.142364
688.046480,0.143788
688.355420,0.148246
688.664320,0.144989
688.973180,0.147397
689.282000,0.143133
689.590780,0.145322
689.899520,0.142803
690.208220,0.150994
690.516880,0.146621
690.825500,0.149057
691.134080,0.149203
691.442620,0.144436
691.751120,0.145999
692.059580,0.143294
692.368000,0.141234
692.676380,0.146947
692.984720,0.149237
693.293020,0.145517
693.601280,0.149180
693.909500,0.145289
694.217680,0.148515
694.525820,0.145849
694.833920,0.147272
695.141980,0.145391
695.450000,0.149237
695.757980,0.153170
696.065920,0.148738
696.373820,0.147806
696.681680,0.147296
696.989500,0.152451
697.297280,0.148580
697.605020,0.154762
697.912720,0.151038
698.220380,0.146399
698.528000,0.155854
698.835580,0.151719
699.143120,0.151208
699.450620,0.156325
699.758080,0.154902
700.065500,0.156425
700.372880,0.158800
700.680220,0.153969
700.987520,0.150000
701.294780,0.160584
701.602000,0.155309
701.909180,0.158585
702.216320,0.156433
702.523420,0.156669
702.830480,0.159604
703.137500,0.154716
703.444480,0.160947
703.751420,0.160158
704.058320,0.157103
704.365180,0.158123
704.672000,0.160396
704.978780,0.159969
705.285520,0.155712
705.592220,0.154902
705.898880,0.159180
706.205500,0.157277
706.512080,0.161927
706.818620,0.159830
707.125120,0.165385
707.431580,0.162173
707.738000,0.162500
708.044380,0.158240
708.350720,0.160871
708.657020,0.165299
708.963280,0.158385
709.269500,0.162427
709.575680,0.164637
709.881820,0.161557
710.187920,0.164591
710.493980,0.163693
710.800000,0.164760
711.105980,0.163404
711.411920,0.166338
711.717820,0.166082
712.023680,0.165177
712.329500,0.170741
712.635280,0.166279
712.941020,0.164283
713.246720,0.166798
713.552380,0.169937
713.858000,0.165550
714.163580,0.168903
714.469120,0.164127
714.774620,0.170944
715.080080,0.168041
715.385500,0.174261
715.690880,0.169625
715.996220,0.166403
716.301520,0.170356
716.606780,0.170204
716.912000,0.172859
717.217180,0.168795
717.522320,0.171372
717.827420,0.167616
718.132480,0.173023
718.437500,0.175296
718.742480,0.175403
719.047420,0.174757
719.352320,0.177252
719.657180,0.172935
719.962000,0.177833
720.266780,0.172829
720.571520,0.173985
720.876220,0.175123
721.180880,0.173913
721.485500,0.169662
721.790080,0.174522
722.094620,0.185249
722.399120,0.177079
722.703580,0.179168
723.008000,0.179819
723.312380,0.171761
723.616720,0.178071
723.921020,0.177566
724.225280,0.181065
724.529500,0.178196
724.833680,0.183274
725.137820,0.179295
725.441920,0.181008
725.745980,0.180761
726.050000,0.178169
726.353980,0.177107
726.657920,0.182186
726.961820,0.182648
727.265680,0.179843
727.569500,0.185558
727.873280,0.183372
728.177020,0.187011
728.480720,0.184259
728.784380,0.186942
729.088000,0.190297
729.391580,0.185220
729.695120,0.187620
729.998620,0.186424
730.302080,0.186929
730.605500,0.183891
730.908880,0.183733
731.212220,0.182664
731.515520,0.187226
731.818780,0.188350
732.122000,0.186516
732.425180,0.190241
732.728320,0.190878
733.031420,0.195489
733.334480,0.191837
733.637500,0.186492
733.940480,0.188843
734.243420,0.192661
734.546320,0.191390
734.849180,0.191116
735.152000,0.189834
735.454780,0.190599
735.757520,0.192835
736.060220,0.195893
736.362880,0.195378
736.665500,0.193734
736.968080,0.194519
737.270620,0.193794
737.573120,0.200873
737.875580,0.199010
738.178000,0.194883
738.480380,0.196216
738.782720,0.201745
739.085020,0.196035
739.387280,0.195122
739.689500,0.197622
739.991680,0.203818
740.293820,0.201769
740.595920,0.200890
740.897980,0.197064
741.200000,0.206955
741.501980,0.206877
741.803920,0.197072
742.105820,0.203046
742.407680,0.202679
742.709500,0.196591
743.011280,0.202227
743.313020,0.201159
743.614720,0.200813
743.916380,0.201744
744.218000,0.207637
744.519580,0.208333
744.821120,0.217365
745.122620,0.209107
745.424080,0.199519
745.725500,0.211829
746.026880,0.207512
746.328220,0.207152
746.629520,0.206502
746.930780,0.212623
747.232000,0.206622
747.533180,0.217816
747.834320,0.214851
748.135420,0.207582
748.436480,0.217093
748.737500,0.213712
749.038480,0.211973
749.339420,0.217797
749.640320,0.212445
749.941180,0.215490
750.242000,0.211055
750.542780,0.217122
750.843520,0.224215
751.144220,0.219872
751.444880,0.217502
751.745500,0.215584
752.046080,0.223861
752.346620,0.211985
752.647120,0.216199
752.947580,0.217982
753.248000,0.223082
753.548380,0.223813
753.848720,0.221507
754.149020,0.206319
754.449280,0.218647
754.749500,0.214997
755.049680,0.219333
755.349820,0.218145
755.649920,0.222736
755.949980,0.226277
756.250000,0.226824
756.549980,0.221122
756.849920,0.224337
757.149820,0.220226
757.449680,0.229703
757.749500,0.228357
758.049280,0.224573
758.349020,0.227399
758.648720,0.229814
758.948380,0.226117
759.248000,0.229784
759.547580,0.227976
759.847120,0.226740
760.146620,0.230717
760.446080,0.221102
760.745500,0.230769
761.044880,0.228693
761.344220,0.240912
761.643520,0.233757
761.942780,0.239328
762.242000,0.239745
762.541180,0.227465
762.840320,0.237360
763.139420,0.230661
763.438480,0.227614
763.737500,0.231564
764.036480,0.227813
764.335420,0.227946
764.634320,0.225225
764.933180,0.230137
765.232000,0.233171
765.530780,0.234386
765.829520,0.246154
766.128220,0.246347
766.426880,0.240938
766.725500,0.241261
767.024080,0.238683
767.322620,0.241355
767.621120,0.238482
767.919580,0.238908
768.218000,0.235978
768.516380,0.244760
768.814720,0.242112
769.113020,0.246726
769.411280,0.247928
769.709500,0.246279
770.007680,0.242672
770.305820,0.248141
770.603920,0.241240
770.901980,0.247268
771.200000,0.243207
771.497980,0.250670
771.795920,0.246823
772.093820,0.243984
772.391680,0.250494
772.689500,0.245946
772.987280,0.243771
773.285020,0.250854
773.582720,0.254730
773.880380,0.263555
774.178000,0.247444
774.475580,0.255861
774.773120,0.246988
775.070620,0.244760
775.368080,0.255845
775.665500,0.251175
775.962880,0.247498
776.260220,0.254374
776.557520,0.258172
776.854780,0.260987
777.152000,0.246684
777.449180,0.262980
777.746320,0.249328
778.043420,0.258527
778.340480,0.257781
778.637500,0.260987
778.934480,0.258238
779.231420,0.265265
779.528320,0.258517
779.825180,0.254282
780.122000,0.256308
780.418780,0.264022
780.715520,0.264923
781.012220,0.269178
781.308880,0.261663
781.605500,0.259589
781.902080,0.266940
782.198620,0.261107
782.495120,0.269547
782.791580,0.277854
783.088000,0.269151
783.384380,0.264787
783.680720,0.269494
783.977020,0.262904
784.273280,0.266434
784.569500,0.265549
784.865680,0.263561
785.161820,0.262500
785.457920,0.268191
785.753980,0.274250
786.050000,0.269337
786.345980,0.276389
786.641920,0.273421
786.937820,0.277778
787.233680,0.260264
787.529500,0.266297
787.825280,0.274788
788.121020,0.276912
788.416720,0.273112
788.712380,0.271509
789.008000,0.274788
789.303580,0.277739
789.599120,0.279273
789.894620,0.280144
790.190080,0.266135
790.485500,0.275018
790.780880,0.281720
791.076220,0.279942
791.371520,0.277415
791.666780,0.282909
791.962000,0.274798
792.257180,0.284773
792.552320,0.286439
792.847420,0.285298
793.142480,0.279853
793.437500,0.278582
793.732480,0.292612
794.027420,0.287834
794.322320,0.289336
794.617180,0.281575
794.912000,0.282318
795.206780,0.286353
795.501520,0.282890
795.796220,0.287407
796.090880,0.297664
796.385500,0.282609
796.680080,0.283470
796.974620,0.294162
797.269120,0.278577
797.563580,0.290076
797.858000,0.288535
798.152380,0.296984
798.446720,0.286154
798.741020,0.285054
799.035280,0.293478
799.329500,0.293303
799.623680,0.295349
