399.985280,0.405405
400.329500,0.432432
400.673680,0.341772
401.017820,0.455882
401.361920,0.469697
401.705980,0.378049
402.050000,0.350649
402.393980,0.411765
402.737920,0.438202
403.081820,0.422680
403.425680,0.395349
403.769500,0.427083
404.113280,0.425287
404.457020,0.471910
404.800720,0.347826
405.144380,0.444444
405.488000,0.365591
405.831580,0.443299
406.175120,0.425532
406.518620,0.400000
406.862080,0.422680
407.205500,0.343750
407.548880,0.377551
407.892220,0.382353
408.235520,0.425532
408.578780,0.438095
408.922000,0.375000
409.265180,0.454545
409.608320,0.353535
409.951420,0.432990
410.294480,0.431373
410.637500,0.478261
410.980480,0.392157
411.323420,0.397959
411.666320,0.477064
412.009180,0.436364
412.352000,0.475248
412.694780,0.440367
413.037520,0.431193
413.380220,0.432432
413.722880,0.401786
414.065500,0.468468
414.408080,0.460177
414.750620,0.451327
415.093120,0.446281
415.435580,0.453782
415.778000,0.446970
416.120380,0.436975
416.462720,0.428571
416.805020,0.466165
417.147280,0.410448
417.489500,0.428571
417.831680,0.404110
418.173820,0.432624
418.515920,0.475524
418.857980,0.424051
419.200000,0.442308
419.541980,0.426036
419.883920,0.415730
420.225820,0.393064
420.567680,0.446927
420.909500,0.464481
421.251280,0.432292
421.593020,0.448980
421.934720,0.409091
422.276380,0.425641
422.618000,0.446078
422.959580,0.441176
423.301120,0.452055
423.642620,0.395652
423.984080,0.451163
424.325500,0.448430
424.666880,0.452586
425.008220,0.453782
425.349520,0.423729
425.690780,0.392308
426.032000,0.407843
426.373180,0.414938
426.714320,0.441406
427.055420,0.413127
427.396480,0.419476
427.737500,0.426877
428.078480,0.430830
428.419420,0.429719
428.760320,0.421456
429.101180,0.437008
429.442000,0.444444
429.782780,0.453846
430.123520,0.454902
430.464220,0.424354
430.804880,0.452107
431.145500,0.400000
431.486080,0.464419
431.826620,0.453488
432.167120,0.404412
432.507580,0.434783
432.848000,0.424460
433.188380,0.436823
433.528720,0.430189
433.869020,0.432143
434.209280,0.428070
434.549500,0.418118
434.889680,0.407407
435.229820,0.419795
435.569920,0.404844
435.909980,0.398058
436.250000,0.437288
436.589980,0.393189
436.929920,0.422222
437.269820,0.420063
437.609680,0.437870
437.949500,0.436747
438.289280,0.419263
438.629020,0.436047
438.968720,0.427326
439.308380,0.401084
439.648000,0.421918
439.987580,0.423280
440.327120,0.421333
440.666620,0.387013
441.006080,0.411765
441.345500,0.422604
441.684880,0.425837
442.024220,0.409429
442.363520,0.419048
442.702780,0.422727
443.042000,0.422907
443.381180,0.422414
443.720320,0.419006
444.059420,0.405462
444.398480,0.414226
444.737500,0.407787
445.076480,0.416667
445.415420,0.435130
445.754320,0.422037
446.093180,0.409174
446.432000,0.421053
446.770780,0.419355
447.109520,0.419118
447.448220,0.409660
447.786880,0.415027
448.125500,0.422414
448.464080,0.403571
448.802620,0.407801
449.141120,0.406574
449.479580,0.428322
449.818000,0.414802
450.156380,0.404682
450.494720,0.398347
450.833020,0.405594
451.171280,0.400685
451.509500,0.404181
451.847680,0.419899
452.185820,0.401033
452.523920,0.414089
452.861980,0.411467
453.200000,0.415282
453.537980,0.400000
453.875920,0.408403
454.213820,0.412671
454.551680,0.400662
454.889500,0.408094
455.227280,0.403915
455.565020,0.410385
455.902720,0.400998
456.240380,0.387687
456.578000,0.402439
456.915580,0.390328
457.253120,0.383224
457.590620,0.389163
457.928080,0.404040
458.265500,0.408784
458.602880,0.404221
458.940220,0.402707
459.277520,0.390400
459.614780,0.407529
459.952000,0.378882
460.289180,0.398734
460.626320,0.381102
460.963420,0.392569
461.300480,0.396024
461.637500,0.377504
461.974480,0.408257
462.311420,0.391952
462.648320,0.371889
462.985180,0.371593
463.322000,0.398810
463.658780,0.372928
463.995520,0.375516
464.332220,0.383657
464.668880,0.388441
465.005500,0.390080
465.342080,0.384123
465.678620,0.386224
466.015120,0.386805
466.351580,0.379267
466.688000,0.366626
467.024380,0.386391
467.360720,0.364773
467.697020,0.374715
468.033280,0.373333
468.369500,0.376380
468.705680,0.379932
469.041820,0.371875
469.377920,0.376356
469.713980,0.374871
470.050000,0.364251
470.385980,0.370841
470.721920,0.367287
471.057820,0.371345
471.393680,0.362021
471.729500,0.366080
472.065280,0.364937
472.401020,0.364362
472.736720,0.362129
473.072380,0.359964
473.408000,0.360313
473.743580,0.360727
474.079120,0.362618
474.414620,0.363020
474.750080,0.353133
475.085500,0.366776
475.420880,0.362198
475.756220,0.356500
476.091520,0.358056
476.426780,0.357605
476.762000,0.351569
477.097180,0.350400
477.432320,0.349758
477.767420,0.359477
478.102480,0.345669
478.437500,0.353859
478.772480,0.353822
479.107420,0.351505
479.442320,0.361311
479.777180,0.357995
480.112000,0.338213
480.446780,0.349182
480.781520,0.343800
481.116220,0.355699
481.450880,0.341920
481.785500,0.354430
482.120080,0.346395
482.454620,0.344988
482.789120,0.350318
483.123580,0.343458
483.458000,0.333861
483.792380,0.339457
484.126720,0.335135
484.461020,0.332553
484.795280,0.329992
485.129500,0.346843
485.463680,0.337984
485.797820,0.342146
486.131920,0.339709
486.465980,0.328185
486.800000,0.339695
487.133980,0.326284
487.467920,0.330528
487.801820,0.331808
488.135680,0.325246
488.469500,0.326778
488.803280,0.326895
489.137020,0.320879
489.470720,0.325668
489.804380,0.332591
490.138000,0.323442
490.471580,0.325718
490.805120,0.317370
491.138620,0.326226
491.472080,0.318728
491.805500,0.318689
492.138880,0.314107
492.472220,0.320415
492.805520,0.329609
493.138780,0.319090
493.472000,0.318395
493.805180,0.313779
494.138320,0.313542
494.471420,0.313151
494.804480,0.309185
495.137500,0.318357
495.470480,0.316762
495.803420,0.311083
496.136320,0.312657
496.469180,0.306323
496.802000,0.303790
497.134780,0.309278
497.467520,0.322936
497.800220,0.313090
498.132880,0.314521
498.465500,0.308806
498.798080,0.303653
499.130620,0.302077
499.463120,0.302077
499.795580,0.295930
500.128000,0.295913
500.460380,0.292788
500.792720,0.292153
501.125020,0.296900
501.457280,0.302872
501.789500,0.294421
502.121680,0.304821
502.453820,0.296787
502.785920,0.290145
503.117980,0.293916
503.450000,0.294827
503.781980,0.293971
504.113920,0.293030
504.445820,0.288284
504.777680,0.286588
505.109500,0.293750
505.441280,0.289675
505.773020,0.286050
506.104720,0.286387
506.436380,0.290109
506.768000,0.287184
507.099580,0.286957
507.431120,0.282436
507.762620,0.281015
508.094080,0.277119
508.425500,0.285247
508.756880,0.277549
509.088220,0.278749
509.419520,0.283520
509.750780,0.281631
510.082000,0.279384
510.413180,0.280055
510.744320,0.277036
511.075420,0.278185
511.406480,0.270334
511.737500,0.269444
512.068480,0.274906
512.399420,0.269953
512.730320,0.264203
513.061180,0.275928
513.392000,0.268812
513.722780,0.269452
514.053520,0.269286
514.384220,0.269267
514.714880,0.272858
515.045500,0.258621
515.376080,0.269734
515.706620,0.261568
516.037120,0.260294
516.367580,0.261705
516.698000,0.254902
517.028380,0.261172
517.358720,0.259259
517.689020,0.255193
518.019280,0.259910
518.349500,0.265585
518.679680,0.253407
519.009820,0.254049
519.339920,0.248998
519.669980,0.251130
520.000000,0.255222
520.329980,0.257646
520.659920,0.251022
520.989820,0.251290
521.319680,0.253601
521.649500,0.249357
521.979280,0.252088
522.309020,0.245851
522.638720,0.238607
522.968380,0.251293
523.298000,0.242693
523.627580,0.241593
523.957120,0.244156
524.286620,0.246483
524.616080,0.247156
524.945500,0.231525
525.274880,0.247819
525.604220,0.240683
525.933520,0.231656
526.262780,0.232641
526.592000,0.242516
526.921180,0.239716
527.250320,0.233891
527.579420,0.243557
527.908480,0.239291
528.237500,0.235353
528.566480,0.237026
528.895420,0.231641
529.224320,0.230312
529.553180,0.240482
529.882000,0.234063
530.210780,0.229730
530.539520,0.232023
530.868220,0.230254
531.196880,0.228858
531.525500,0.230508
531.854080,0.224203
532.182620,0.223727
532.511120,0.224594
532.839580,0.226860
533.168000,0.230629
533.496380,0.221005
533.824720,0.225213
534.153020,0.228266
534.481280,0.220705
534.809500,0.222515
535.137680,0.221788
535.465820,0.220361
535.793920,0.221658
536.121980,0.216114
536.450000,0.219450
536.777980,0.222874
537.105920,0.221254
537.433820,0.216448
537.761680,0.218367
538.089500,0.215702
538.417280,0.211301
538.745020,0.218304
539.072720,0.209293
539.400380,0.216006
539.728000,0.211855
540.055580,0.208989
540.383120,0.212584
540.710620,0.204613
541.038080,0.215419
541.365500,0.216544
541.692880,0.207122
542.020220,0.206909
542.347520,0.211055
542.674780,0.206069
543.002000,0.208188
543.329180,0.206594
543.656320,0.206399
543.983420,0.206154
544.310480,0.206592
544.637500,0.205732
544.964480,0.202557
545.291420,0.198405
545.618320,0.208167
545.945180,0.200066
546.272000,0.195937
546.598780,0.195674
546.925520,0.198154
547.252220,0.201056
547.578880,0.195829
547.905500,0.197712
548.232080,0.193957
548.558620,0.193296
548.885120,0.196925
549.211580,0.192543
549.538000,0.195201
549.864380,0.192605
550.190720,0.191153
550.517020,0.194915
550.843280,0.193811
551.169500,0.185433
551.495680,0.192838
551.821820,0.193011
552.147920,0.189330
552.473980,0.186368
552.800000,0.187377
553.125980,0.188933
553.451920,0.189449
553.777820,0.190207
554.103680,0.189080
554.429500,0.187479
554.755280,0.183578
555.081020,0.179144
555.406720,0.179478
555.732380,0.180278
556.058000,0.179566
556.383580,0.178706
556.709120,0.183666
557.034620,0.180847
557.360080,0.179275
557.685500,0.181189
558.010880,0.183016
558.336220,0.175395
558.661520,0.177951
558.986780,0.177534
559.312000,0.179843
559.637180,0.175224
559.962320,0.173015
560.287420,0.177362
560.612480,0.174381
560.937500,0.173275
561.262480,0.173387
561.587420,0.174102
561.912320,0.166912
562.237180,0.170984
562.562000,0.172840
562.886780,0.173541
563.211520,0.171013
563.536220,0.168831
563.860880,0.172388
564.185500,0.168856
564.510080,0.169300
564.834620,0.169334
565.159120,0.165414
565.483580,0.170277
565.808000,0.167991
566.132380,0.165237
566.456720,0.168178
566.781020,0.162791
567.105280,0.164461
567.429500,0.161229
567.753680,0.161488
568.077820,0.165056
568.401920,0.164248
568.725980,0.163947
569.050000,0.164259
569.373980,0.163685
569.697920,0.162685
570.021820,0.167041
570.345680,0.161117
570.669500,0.167493
570.993280,0.161314
571.317020,0.161125
571.640720,0.156725
571.964380,0.158500
572.288000,0.160237
572.611580,0.158368
572.935120,0.159746
573.258620,0.163426
573.582080,0.157601
573.905500,0.159717
574.228880,0.160356
574.552220,0.157200
574.875520,0.158228
575.198780,0.149982
575.522000,0.155792
575.845180,0.154370
576.168320,0.154510
576.491420,0.157340
576.814480,0.153345
577.137500,0.154401
577.460480,0.157666
577.783420,0.156127
578.106320,0.154202
578.429180,0.155885
578.752000,0.148663
579.074780,0.152731
579.397520,0.154616
579.720220,0.157979
580.042880,0.152296
580.365500,0.151886
580.688080,0.150271
581.010620,0.154236
581.333120,0.152305
581.655580,0.149517
581.978000,0.150648
582.300380,0.150276
582.622720,0.151945
582.945020,0.147919
583.267280,0.149463
583.589500,0.150241
583.911680,0.147983
584.233820,0.146679
584.555920,0.147179
584.877980,0.149183
585.200000,0.147023
585.521980,0.143343
585.843920,0.146126
586.165820,0.147471
586.487680,0.146855
586.809500,0.144614
587.131280,0.139308
587.453020,0.145833
587.774720,0.146659
588.096380,0.143816
588.418000,0.145449
588.739580,0.144582
589.061120,0.142323
589.382620,0.138109
589.704080,0.143619
590.025500,0.144977
590.346880,0.142496
590.668220,0.145057
590.989520,0.140322
591.310780,0.144711
591.632000,0.142623
591.953180,0.145309
592.274320,0.141414
592.595420,0.137662
592.916480,0.142353
593.237500,0.142549
593.558480,0.139629
593.879420,0.140815
594.200320,0.144120
594.521180,0.142098
594.842000,0.142934
595.162780,0.142895
595.483520,0.143047
595.804220,0.138561
596.124880,0.138822
596.445500,0.137281
596.766080,0.147620
597.086620,0.141985
597.407120,0.140864
597.727580,0.137894
598.048000,0.142290
598.368380,0.139926
598.688720,0.137615
599.009020,0.140658
599.329280,0.139702
599.649500,0.136556
599.969680,0.137553
600.289820,0.140759
600.609920,0.139995
600.929980,0.136291
601.250000,0.136216
601.569980,0.136106
601.889920,0.140604
602.209820,0.136093
602.529680,0.137600
602.849500,0.138571
603.169280,0.135575
603.489020,0.138666
603.808720,0.134120
604.128380,0.137141
604.448000,0.135359
604.767580,0.133799
605.087120,0.137950
605.406620,0.136860
605.726080,0.137725
606.045500,0.133463
606.364880,0.134108
606.684220,0.135351
607.003520,0.135608
607.322780,0.132746
607.642000,0.132682
607.961180,0.133565
608.280320,0.137761
608.599420,0.131808
608.918480,0.136950
609.237500,0.136737
609.556480,0.134359
609.875420,0.133491
610.194320,0.134632
610.513180,0.137023
610.832000,0.135795
611.150780,0.132472
611.469520,0.133333
611.788220,0.134220
612.106880,0.132992
612.425500,0.134287
612.744080,0.140043
613.062620,0.131498
613.381120,0.135893
613.699580,0.133660
614.018000,0.132064
614.336380,0.131092
614.654720,0.133643
614.973020,0.134526
615.291280,0.134180
615.609500,0.134390
615.927680,0.131335
616.245820,0.133581
616.563920,0.136152
616.881980,0.132211
617.200000,0.138414
617.517980,0.136279
617.835920,0.130786
618.153820,0.134287
618.471680,0.134884
618.789500,0.131844
619.107280,0.131455
619.425020,0.137964
619.742720,0.133396
620.060380,0.134754
620.378000,0.135620
620.695580,0.133461
621.013120,0.132598
621.330620,0.137747
621.648080,0.135016
621.965500,0.132685
622.282880,0.132409
622.600220,0.132344
622.917520,0.135476
623.234780,0.137255
623.552000,0.136537
623.869180,0.134258
624.186320,0.136581
624.503420,0.131975
624.820480,0.132579
625.137500,0.134512
625.454480,0.137230
625.771420,0.135246
626.088320,0.135246
626.405180,0.134412
626.722000,0.134253
627.038780,0.137845
627.355520,0.140625
627.672220,0.134059
627.988880,0.136547
628.305500,0.139919
628.622080,0.139405
628.938620,0.132416
629.255120,0.139701
629.571580,0.139749
629.888000,0.138386
630.204380,0.136852
630.520720,0.136197
630.837020,0.142769
631.153280,0.134592
631.469500,0.137356
631.785680,0.136829
632.101820,0.139023
632.417920,0.138003
632.733980,0.136255
633.050000,0.141904
633.365980,0.135448
633.681920,0.136038
633.997820,0.137478
634.313680,0.140666
634.629500,0.143026
634.945280,0.141642
635.261020,0.142647
635.576720,0.140928
635.892380,0.139994
636.208000,0.140616
636.523580,0.142064
636.839120,0.139838
637.154620,0.140580
637.470080,0.142898
637.785500,0.144490
638.100880,0.142485
638.416220,0.138913
638.731520,0.140115
639.046780,0.143315
639.362000,0.142775
639.677180,0.143632
639.992320,0.143502
640.307420,0.139084
640.622480,0.140857
640.937500,0.143135
641.252480,0.143815
641.567420,0.142654
641.882320,0.137249
642.197180,0.144301
642.512000,0.145536
642.826780,0.141470
643.141520,0.144207
643.456220,0.144715
643.770880,0.145108
644.085500,0.147010
644.400080,0.144663
644.714620,0.142977
645.029120,0.149065
645.343580,0.147559
645.658000,0.142936
645.972380,0.147164
646.286720,0.147452
646.601020,0.150567
646.915280,0.148889
647.229500,0.145330
647.543680,0.148302
647.857820,0.147261
648.171920,0.150298
648.485980,0.149630
648.800000,0.146046
649.113980,0.148282
649.427920,0.149515
649.741820,0.142072
650.055680,0.150302
650.369500,0.151065
650.683280,0.149001
650.997020,0.149890
651.310720,0.150523
651.624380,0.151374
651.938000,0.149861
652.251580,0.156415
652.565120,0.150922
652.878620,0.149212
653.192080,0.151124
653.505500,0.152034
653.818880,0.152687
654.132220,0.152663
654.445520,0.155984
654.758780,0.149292
655.072000,0.152149
655.385180,0.152924
655.698320,0.153472
656.011420,0.153339
656.324480,0.152142
656.637500,0.157590
656.950480,0.151497
657.263420,0.150458
657.576320,0.156834
657.889180,0.157181
658.202000,0.150362
658.514780,0.154510
658.827520,0.155462
659.140220,0.154630
659.452880,0.154334
659.765500,0.152017
660.078080,0.155281
660.390620,0.158876
660.703120,0.159792
661.015580,0.162883
661.328000,0.160264
661.640380,0.156260
661.952720,0.159763
662.265020,0.161626
662.577280,0.161896
662.889500,0.162725
663.201680,0.163369
663.513820,0.159537
663.825920,0.160102
664.137980,0.163219
664.450000,0.161445
664.761980,0.157774
665.073920,0.161636
665.385820,0.163285
665.697680,0.161322
666.009500,0.164616
666.321280,0.166004
666.633020,0.159242
666.944720,0.160431
667.256380,0.166555
667.568000,0.162024
667.879580,0.166327
668.191120,0.167926
668.502620,0.165697
668.814080,0.165614
669.125500,0.163189
669.436880,0.170816
669.748220,0.166494
670.059520,0.170168
670.370780,0.165971
670.682000,0.166726
670.993180,0.169133
671.304320,0.167370
671.615420,0.171875
671.926480,0.166785
672.237500,0.165416
672.548480,0.167495
672.859420,0.169407
673.170320,0.169750
673.481180,0.173063
673.792000,0.169492
674.102780,0.174147
674.413520,0.169522
674.724220,0.173503
675.034880,0.173451
675.345500,0.172137
675.656080,0.173503
675.966620,0.176792
676.277120,0.173563
676.587580,0.172312
676.898000,0.176558
677.208380,0.173752
677.518720,0.173961
677.829020,0.177753
678.139280,0.174574
678.449500,0.177869
678.759680,0.176845
679.069820,0.174349
679.379920,0.182950
679.689980,0.179725
680.000000,0.178692
680.309980,0.177803
680.619920,0.177206
680.929820,0.179545
681.239680,0.178360
681.549500,0.178519
681.859280,0.180358
682.169020,0.182395
682.478720,0.189604
682.788380,0.181986
683.098000,0.183994
683.407580,0.184240
683.717120,0.180931
684.026620,0.180346
684.336080,0.181887
684.645500,0.184437
684.954880,0.180582
685.264220,0.183843
685.573520,0.189951
685.882780,0.184887
686.192000,0.184349
686.501180,0.188801
686.810320,0.190623
687.119420,0.185481
687.428480,0.190277
687.737500,0.188795
688.046480,0.184049
688.355420,0.189740
688.664320,0.188982
688.973180,0.189127
689.282000,0.194059
689.590780,0.192485
689.899520,0.192176
690.208220,0.194954
690.516880,0.195113
690.825500,0.195094
691.134080,0.186409
691.442620,0.194360
691.751120,0.199469
692.059580,0.199465
692.368000,0.198031
692.676380,0.199618
692.984720,0.196565
693.293020,0.197188
693.601280,0.200305
693.909500,0.200151
694.217680,0.196877
694.525820,0.202589
694.833920,0.196490
695.141980,0.199769
695.450000,0.201145
695.757980,0.199007
696.065920,0.205825
696.373820,0.200539
696.681680,0.200614
696.989500,0.208800
697.297280,0.204201
697.605020,0.208730
697.912720,0.198693
698.220380,0.201889
698.528000,0.208070
698.835580,0.206638
699.143120,0.204599
699.450620,0.210024
699.758080,0.206667
700.065500,0.206704
700.372880,0.208000
700.680220,0.210610
700.987520,0.209921
701.294780,0.210057
701.602000,0.209588
701.909180,0.215819
702.216320,0.206492
702.523420,0.213891
702.830480,0.212277
703.137500,0.211613
703.444480,0.215385
703.751420,0.209862
704.058320,0.207756
704.365180,0.212934
704.672000,0.219802
704.978780,0.215763
705.285520,0.214397
705.592220,0.214118
705.898880,0.217888
706.205500,0.214397
706.512080,0.215245
706.818620,0.216718
707.125120,0.217308
707.431580,0.216100
707.738000,0.222266
708.044380,0.220378
708.350720,0.214368
708.657020,0.220008
708.963280,0.219720
709.269500,0.221918
709.575680,0.220825
709.881820,0.222877
710.187920,0.221401
710.493980,0.228084
710.800000,0.226163
711.105980,0.224398
711.411920,0.226646
711.717820,0.220663
712.023680,0.227361
712.329500,0.226341
712.635280,0.230620
712.941020,0.230769
713.246720,0.229249
713.552380,0.229592
713.858000,0.229011
714.163580,0.224941
714.469120,0.230168
714.774620,0.232531
715.080080,0.235571
715.385500,0.233813
715.690880,0.235108
715.996220,0.229398
716.301520,0.231621
716.606780,0.233491
716.912000,0.236672
717.217180,0.233440
717.522320,0.232207
717.827420,0.240439
718.132480,0.232437
718.437500,0.233999
718.742480,0.240726
719.047420,0.234223
719.352320,0.234537
719.657180,0.241619
719.962000,0.242763
720.266780,0.233901
720.571520,0.238608
720.876220,0.241817
721.180880,0.236204
721.485500,0.238195
721.790080,0.235669
722.094620,0.249142
722.399120,0.237829
722.703580,0.240463
723.008000,0.247952
723.312380,0.247525
723.616720,0.240969
723.921020,0.245128
724.225280,0.245637
724.529500,0.246060
724.833680,0.249110
725.137820,0.248018
725.441920,0.239857
725.745980,0.245638
726.050000,0.248083
726.353980,0.247859
726.657920,0.245164
726.961820,0.254338
727.265680,0.253814
727.569500,0.249543
727.873280,0.248499
728.177020,0.254261
728.480720,0.249537
728.784380,0.252701
729.088000,0.250589
729.391580,0.253908
729.695120,0.264395
729.998620,0.261950
730.302080,0.260932
730.605500,0.258612
730.908880,0.262616
731.212220,0.257591
731.515520,0.253535
731.818780,0.253398
732.122000,0.255413
732.425180,0.260227
732.728320,0.254834
733.031420,0.253133
733.334480,0.264286
733.637500,0.251008
733.940480,0.262538
734.243420,0.269113
734.546320,0.266079
734.849180,0.260847
735.152000,0.261411
735.454780,0.261364
735.757520,0.265543
736.060220,0.260664
736.362880,0.264706
736.665500,0.260574
736.968080,0.262225
737.270620,0.269461
737.573120,0.274563
737.875580,0.266630
738.178000,0.267284
738.480380,0.267027
738.782720,0.260632
739.085020,0.265419
739.387280,0.269956
739.689500,0.266704
739.991680,0.274565
740.293820,0.273079
740.595920,0.278798
740.897980,0.275551
741.200000,0.267527
741.501980,0.277937
741.803920,0.277027
742.105820,0.270164
742.407680,0.279557
742.709500,0.274432
743.011280,0.277843
743.313020,0.277101
743.614720,0.268717
743.916380,0.276163
744.218000,0.279833
744.519580,0.278986
744.821120,0.285629
745.122620,0.281007
745.424080,0.273437
745.725500,0.282438
746.026880,0.285099
746.328220,0.287300
746.629520,0.273329
746.930780,0.277574
747.232000,0.280809
747.533180,0.286760
747.834320,0.275715
748.135420,0.285270
748.436480,0.295696
748.737500,0.287832
749.038480,0.293830
749.339420,0.289359
749.640320,0.291640
749.941180,0.289194
750.242000,0.290829
750.542780,0.286600
750.843520,0.290199
751.144220,0.280769
751.444880,0.289791
751.745500,0.284416
752.046080,0.294419
752.346620,0.291881
752.647120,0.296538
752.947580,0.296248
753.248000,0.296583
753.548380,0.292128
753.848720,0.287830
754.149020,0.284977
754.449280,0.290873
754.749500,0.290644
755.049680,0.291333
755.349820,0.298866
755.649920,0.296761
755.949980,0.289317
756.250000,0.297830
756.549980,0.300330
756.849920,0.302515
757.149820,0.286094
757.449680,0.297030
757.749500,0.302658
758.049280,0.292833
758.349020,0.298331
758.648720,0.309869
758.948380,0.300344
759.248000,0.297170
759.547580,0.309348
759.847120,0.301172
760.146620,0.302436
760.446080,0.305108
760.745500,0.300000
761.044880,0.308949
761.344220,0.305773
761.643520,0.301554
761.942780,0.311407
762.242000,0.321782
762.541180,0.314789
762.840320,0.318118
763.139420,0.305204
763.438480,0.309638
763.737500,0.308753
764.036480,0.317261
764.335420,0.308398
764.634320,0.319473
764.933180,0.315068
765.232000,0.311589
765.530780,0.320000
765.829520,0.327972
766.128220,0.314544
766.426880,0.314854
766.725500,0.316655
767.024080,0.317558
767.322620,0.318119
767.621120,0.313686
767.919580,0.305802
768.218000,0.317373
768.516380,0.310345
768.814720,0.318930
769.113020,0.321847
769.411280,0.325967
769.709500,0.316644
770.007680,0.315610
770.305820,0.330629
770.603920,0.314690
770.901980,0.323087
771.200000,0.318614
771.497980,0.319705
771.795920,0.321070
772.093820,0.328877
772.391680,0.323665
772.689500,0.315541
772.987280,0.329966
773.285020,0.324675
773.582720,0.328378
773.880380,0.330817
774.178000,0.329243
774.475580,0.343603
774.773120,0.334672
775.070620,0.335362
775.368080,0.331329
775.665500,0.327065
775.962880,0.334890
776.260220,0.335128
776.557520,0.337558
776.854780,0.346180
777.152000,0.324271
777.449180,0.342549
777.746320,0.323925
778.043420,0.337653
778.340480,0.334235
778.637500,0.340095
778.934480,0.339610
779.231420,0.332429
779.528320,0.331997
779.825180,0.332016
780.122000,0.343293
780.418780,0.343365
780.715520,0.339370
781.012220,0.345205
781.308880,0.344828
781.605500,0.343836
781.902080,0.344285
782.198620,0.339029
782.495120,0.340878
782.791580,0.352820
783.088000,0.349206
783.384380,0.350069
783.680720,0.342681
783.977020,0.342739
784.273280,0.348252
784.569500,0.352900
784.865680,0.351878
785.161820,0.352778
785.457920,0.343035
785.753980,0.346127
786.050000,0.345304
786.345980,0.350000
786.641920,0.351145
786.937820,0.361111
787.233680,0.347251
787.529500,0.350208
787.825280,0.354816
788.121020,0.348442
788.416720,0.354975
788.712380,0.352609
789.008000,0.354108
789.303580,0.349117
789.599120,0.361455
789.894620,0.359567
790.190080,0.354605
790.485500,0.360691
790.780880,0.358423
791.076220,0.367965
791.371520,0.353667
791.666780,0.365818
791.962000,0.358560
792.257180,0.371157
792.552320,0.368383
792.847420,0.364629
793.142480,0.361905
793.437500,0.356729
793.732480,0.366496
794.027420,0.362018
794.322320,0.361670
794.617180,0.358098
794.912000,0.360327
795.206780,0.366145
795.501520,0.372624
795.796220,0.365185
796.090880,0.370008
796.385500,0.354573
796.680080,0.370980
796.974620,0.368263
797.269120,0.367146
797.563580,0.364885
797.858000,0.383447
798.152380,0.369683
798.446720,0.373846
798.741020,0.375193
799.035280,0.371118
799.329500,0.374904
799.623680,0.376744
