399.985280,0.378378
400.329500,0.378378
400.673680,0.367089
401.017820,0.485294
401.361920,0.363636
401.705980,0.402439
402.050000,0.311688
402.393980,0.411765
402.737920,0.426966
403.081820,0.432990
403.425680,0.360465
403.769500,0.302083
404.113280,0.310345
404.457020,0.438202
404.800720,0.402174
405.144380,0.434343
405.488000,0.376344
405.831580,0.350515
406.175120,0.404255
406.518620,0.420000
406.862080,0.371134
407.205500,0.375000
407.548880,0.397959
407.892220,0.382353
408.235520,0.457447
408.578780,0.380952
408.922000,0.442308
409.265180,0.373737
409.608320,0.424242
409.951420,0.412371
410.294480,0.401961
410.637500,0.369565
410.980480,0.411765
411.323420,0.397959
411.666320,0.403670
412.009180,0.436364
412.352000,0.396040
412.694780,0.440367
413.037520,0.376147
413.380220,0.414414
413.722880,0.500000
414.065500,0.432432
414.408080,0.433628
414.750620,0.451327
415.093120,0.421488
415.435580,0.394958
415.778000,0.446970
416.120380,0.453782
416.462720,0.428571
416.805020,0.390977
417.147280,0.410448
417.489500,0.435714
417.831680,0.438356
418.173820,0.432624
418.515920,0.461538
418.857980,0.430380
419.200000,0.410256
419.541980,0.408284
419.883920,0.415730
420.225820,0.439306
420.567680,0.396648
420.909500,0.420765
421.251280,0.427083
421.593020,0.418367
421.934720,0.414141
422.276380,0.451282
422.618000,0.431373
422.959580,0.455882
423.301120,0.410959
423.642620,0.400000
423.984080,0.413953
424.325500,0.381166
424.666880,0.396552
425.008220,0.382353
425.349520,0.423729
425.690780,0.392308
426.032000,0.400000
426.373180,0.419087
426.714320,0.421875
427.055420,0.405405
427.396480,0.426966
427.737500,0.391304
428.078480,0.415020
428.419420,0.425703
428.760320,0.409962
429.101180,0.421260
429.442000,0.398467
429.782780,0.407692
430.123520,0.411765
430.464220,0.413284
430.804880,0.452107
431.145500,0.414545
431.486080,0.415730
431.826620,0.418605
432.167120,0.419118
432.507580,0.427536
432.848000,0.402878
433.188380,0.425993
433.528720,0.441509
433.869020,0.417857
434.209280,0.382456
434.549500,0.421603
434.889680,0.414141
435.229820,0.409556
435.569920,0.380623
435.909980,0.378641
436.250000,0.403390
436.589980,0.368421
436.929920,0.419048
437.269820,0.401254
437.609680,0.396450
437.949500,0.406627
438.289280,0.407932
438.629020,0.404070
438.968720,0.389535
439.308380,0.384824
439.648000,0.408219
439.987580,0.407407
440.327120,0.405333
440.666620,0.402597
441.006080,0.396419
441.345500,0.407862
441.684880,0.387560
442.024220,0.392060
442.363520,0.390476
442.702780,0.377273
443.042000,0.387665
443.381180,0.387931
443.720320,0.412527
444.059420,0.382353
444.398480,0.384937
444.737500,0.393443
445.076480,0.369048
445.415420,0.395210
445.754320,0.372141
446.093180,0.385321
446.432000,0.368421
446.770780,0.377609
447.109520,0.391544
447.448220,0.391771
447.786880,0.388193
448.125500,0.382759
448.464080,0.350000
448.802620,0.381206
449.141120,0.382353
449.479580,0.388112
449.818000,0.388985
450.156380,0.376254
450.494720,0.383471
450.833020,0.374126
451.171280,0.375000
451.509500,0.391986
451.847680,0.381113
452.185820,0.383821
452.523920,0.367698
452.861980,0.372681
453.200000,0.367110
453.537980,0.356303
453.875920,0.368067
454.213820,0.369863
454.551680,0.360927
454.889500,0.352445
455.227280,0.361210
455.565020,0.366834
455.902720,0.381032
456.240380,0.341098
456.578000,0.371080
456.915580,0.360967
457.253120,0.358553
457.590620,0.372742
457.928080,0.372054
458.265500,0.368243
458.602880,0.350649
458.940220,0.357022
459.277520,0.347200
459.614780,0.378069
459.952000,0.349379
460.289180,0.354430
460.626320,0.355906
460.963420,0.352181
461.300480,0.353211
461.637500,0.338983
461.974480,0.347095
462.311420,0.345753
462.648320,0.349927
462.985180,0.334290
463.322000,0.360119
463.658780,0.339779
463.995520,0.337001
464.332220,0.347645
464.668880,0.348118
465.005500,0.348525
465.342080,0.345711
465.678620,0.341943
466.015120,0.350582
466.351580,0.341340
466.688000,0.341048
467.024380,0.325638
467.360720,0.328409
467.697020,0.334852
468.033280,0.346667
468.369500,0.348786
468.705680,0.348365
469.041820,0.335417
469.377920,0.321041
469.713980,0.336766
470.050000,0.340097
470.385980,0.324853
470.721920,0.334966
471.057820,0.331384
471.393680,0.324602
471.729500,0.328082
472.065280,0.330948
472.401020,0.328901
472.736720,0.327225
473.072380,0.320467
473.408000,0.322019
473.743580,0.322664
474.079120,0.330749
474.414620,0.322307
474.750080,0.321400
475.085500,0.319901
475.420880,0.320566
475.756220,0.316435
476.091520,0.314578
476.426780,0.306634
476.762000,0.316975
477.097180,0.315200
477.432320,0.317447
477.767420,0.305556
478.102480,0.314961
478.437500,0.311987
478.772480,0.305753
479.107420,0.310008
479.442320,0.307754
479.777180,0.303898
480.112000,0.306626
480.446780,0.300857
480.781520,0.298712
481.116220,0.302344
481.450880,0.292740
481.785500,0.298259
482.120080,0.298589
482.454620,0.295260
482.789120,0.296178
483.123580,0.297508
483.458000,0.303797
483.792380,0.297923
484.126720,0.294981
484.461020,0.301327
484.795280,0.291442
485.129500,0.300078
485.463680,0.290698
485.797820,0.297823
486.131920,0.289977
486.465980,0.283398
486.800000,0.293130
487.133980,0.284743
487.467920,0.287682
487.801820,0.288330
488.135680,0.289613
488.469500,0.280635
488.803280,0.285290
489.137020,0.285714
489.470720,0.275223
489.804380,0.281366
490.138000,0.291543
490.471580,0.285925
490.805120,0.275197
491.138620,0.277186
491.472080,0.277739
491.805500,0.285914
492.138880,0.271022
492.472220,0.275433
492.805520,0.277235
493.138780,0.273604
493.472000,0.277592
493.805180,0.277626
494.138320,0.276851
494.471420,0.266927
494.804480,0.265847
495.137500,0.271502
495.470480,0.268324
495.803420,0.273300
496.136320,0.263784
496.469180,0.271332
496.802000,0.268337
497.134780,0.270467
497.467520,0.272171
497.800220,0.264741
498.132880,0.266314
498.465500,0.264195
498.798080,0.257420
499.130620,0.256597
499.463120,0.264458
499.795580,0.255776
500.128000,0.256676
500.460380,0.255113
500.792720,0.256628
501.125020,0.257488
501.457280,0.247520
501.789500,0.253099
502.121680,0.252462
502.453820,0.251402
502.785920,0.255128
503.117980,0.247792
503.450000,0.251130
503.781980,0.249626
504.113920,0.245614
504.445820,0.245989
504.777680,0.250824
505.109500,0.249038
505.441280,0.249044
505.773020,0.246595
506.104720,0.244936
506.436380,0.242310
506.768000,0.249298
507.099580,0.236613
507.431120,0.243091
507.762620,0.242011
508.094080,0.238377
508.425500,0.238562
508.756880,0.239140
509.088220,0.234591
509.419520,0.237430
509.750780,0.238519
510.082000,0.233675
510.413180,0.240903
510.744320,0.238380
511.075420,0.231897
511.406480,0.230371
511.737500,0.228241
512.068480,0.230263
512.399420,0.229108
512.730320,0.223095
513.061180,0.233111
513.392000,0.229058
513.722780,0.235351
514.053520,0.230954
514.384220,0.225024
514.714880,0.226903
515.045500,0.218391
515.376080,0.223729
515.706620,0.229907
516.037120,0.230392
516.367580,0.220798
516.698000,0.221569
517.028380,0.220457
517.358720,0.224198
517.689020,0.220574
518.019280,0.226292
518.349500,0.220983
518.679680,0.217062
519.009820,0.214575
519.339920,0.215932
519.669980,0.211954
520.000000,0.222618
520.329980,0.214619
520.659920,0.213190
520.989820,0.214138
521.319680,0.207819
521.649500,0.213882
521.979280,0.210856
522.309020,0.214212
522.638720,0.202253
522.968380,0.204240
523.298000,0.206159
523.627580,0.204346
523.957120,0.203117
524.286620,0.205315
524.616080,0.205791
524.945500,0.205685
525.274880,0.201129
525.604220,0.206004
525.933520,0.205975
526.262780,0.200203
526.592000,0.211060
526.921180,0.198070
527.250320,0.198884
527.579420,0.203638
527.908480,0.198424
528.237500,0.201589
528.566480,0.201098
528.895420,0.196156
529.224320,0.194651
529.553180,0.196145
529.882000,0.198054
530.210780,0.192085
530.539520,0.195110
530.868220,0.189086
531.196880,0.191591
531.525500,0.200000
531.854080,0.190901
532.182620,0.191499
532.511120,0.194432
532.839580,0.193739
533.168000,0.188241
533.496380,0.192694
533.824720,0.192014
534.153020,0.188587
534.481280,0.189427
534.809500,0.193492
535.137680,0.192708
535.465820,0.180412
535.793920,0.187817
536.121980,0.183802
536.450000,0.187315
536.777980,0.186845
537.105920,0.187630
537.433820,0.187398
537.761680,0.188163
538.089500,0.189397
538.417280,0.184242
538.745020,0.181458
539.072720,0.180008
539.400380,0.183761
539.728000,0.177820
540.055580,0.180150
540.383120,0.179821
540.710620,0.178199
541.038080,0.179270
541.365500,0.175000
541.692880,0.178779
542.020220,0.177042
542.347520,0.175879
542.674780,0.178546
543.002000,0.177747
543.329180,0.175377
543.656320,0.175457
543.983420,0.169573
544.310480,0.172953
544.637500,0.179461
544.964480,0.173957
545.291420,0.172815
545.618320,0.172643
545.945180,0.170402
546.272000,0.170052
546.598780,0.170108
546.925520,0.172107
547.252220,0.165071
547.578880,0.170740
547.905500,0.168301
548.232080,0.171540
548.558620,0.168890
548.885120,0.164540
549.211580,0.169720
549.538000,0.168288
549.864380,0.164309
550.190720,0.164675
550.517020,0.161995
550.843280,0.164495
551.169500,0.159351
551.495680,0.164258
551.821820,0.164272
552.147920,0.162329
552.473980,0.161014
552.800000,0.162525
553.125980,0.163720
553.451920,0.163238
553.777820,0.161892
554.103680,0.159757
554.429500,0.157683
554.755280,0.159212
555.081020,0.158422
555.406720,0.159160
555.732380,0.155540
556.058000,0.157502
556.383580,0.156453
556.709120,0.155755
557.034620,0.156045
557.360080,0.156131
557.685500,0.156985
558.010880,0.153206
558.336220,0.153603
558.661520,0.155264
558.986780,0.154500
559.312000,0.154915
559.637180,0.155117
559.962320,0.153435
560.287420,0.157264
560.612480,0.155005
560.937500,0.156755
561.262480,0.152859
561.587420,0.147987
561.912320,0.149595
562.237180,0.148038
562.562000,0.153012
562.886780,0.150502
563.211520,0.150522
563.536220,0.148052
563.860880,0.149378
564.185500,0.151970
564.510080,0.147103
564.834620,0.149609
565.159120,0.148120
565.483580,0.147472
565.808000,0.150208
566.132380,0.152928
566.456720,0.143613
566.781020,0.144411
567.105280,0.145936
567.429500,0.149090
567.753680,0.146145
568.077820,0.145729
568.401920,0.144767
568.725980,0.149905
569.050000,0.144867
569.373980,0.144652
569.697920,0.145999
570.021820,0.145318
570.345680,0.144279
570.669500,0.142312
570.993280,0.146918
571.317020,0.138473
571.640720,0.144498
571.964380,0.145509
572.288000,0.146142
572.611580,0.147136
572.935120,0.148896
573.258620,0.144353
573.582080,0.144560
573.905500,0.141102
574.228880,0.141797
574.552220,0.142543
574.875520,0.141474
575.198780,0.141308
575.522000,0.141862
575.845180,0.141117
576.168320,0.144808
576.491420,0.147166
576.814480,0.143942
577.137500,0.141414
577.460480,0.138818
577.783420,0.138978
578.106320,0.140670
578.429180,0.138565
578.752000,0.140327
579.074780,0.142953
579.397520,0.139768
579.720220,0.140283
580.042880,0.140073
580.365500,0.143283
580.688080,0.145522
581.010620,0.142761
581.333120,0.145291
581.655580,0.142857
581.978000,0.139674
582.300380,0.135021
582.622720,0.136454
582.945020,0.138817
583.267280,0.140020
583.589500,0.139005
583.911680,0.136869
584.233820,0.139754
584.555920,0.147179
584.877980,0.139761
585.200000,0.136280
585.521980,0.139018
585.843920,0.140024
586.165820,0.136197
586.487680,0.137225
586.809500,0.138614
587.131280,0.139899
587.453020,0.139881
587.774720,0.136310
588.096380,0.136523
588.418000,0.141352
588.739580,0.142570
589.061120,0.136285
589.382620,0.135817
589.704080,0.136045
590.025500,0.140696
590.346880,0.137999
590.668220,0.137777
590.989520,0.135053
591.310780,0.138360
591.632000,0.139071
591.953180,0.140880
592.274320,0.136500
592.595420,0.139278
592.916480,0.136648
593.237500,0.138777
593.558480,0.139360
593.879420,0.138117
594.200320,0.138227
594.521180,0.136521
594.842000,0.140516
595.162780,0.136752
595.483520,0.136932
595.804220,0.136144
596.124880,0.141753
596.445500,0.134661
596.766080,0.137940
597.086620,0.139331
597.407120,0.133755
597.727580,0.142403
598.048000,0.137794
598.368380,0.137559
598.688720,0.135518
599.009020,0.141720
599.329280,0.137573
599.649500,0.136820
599.969680,0.136752
600.289820,0.139156
600.609920,0.138124
600.929980,0.135222
601.250000,0.138378
601.569980,0.138536
601.889920,0.137664
602.209820,0.137175
602.529680,0.141719
602.849500,0.136661
603.169280,0.135850
603.489020,0.141434
603.808720,0.137959
604.128380,0.136589
604.448000,0.137293
604.767580,0.137709
605.087120,0.137119
605.406620,0.136860
605.726080,0.140576
606.045500,0.135971
606.364880,0.140629
606.684220,0.141633
607.003520,0.138761
607.322780,0.139284
607.642000,0.137852
607.961180,0.139347
608.280320,0.139211
608.599420,0.139050
608.918480,0.141642
609.237500,0.139378
609.556480,0.141462
609.875420,0.139398
610.194320,0.142014
610.513180,0.138503
610.832000,0.137880
611.150780,0.141184
611.469520,0.142383
611.788220,0.140568
612.106880,0.140832
612.425500,0.142814
612.744080,0.143121
613.062620,0.143425
613.381120,0.139549
613.699580,0.139485
614.018000,0.139742
614.336380,0.142813
614.654720,0.139225
614.973020,0.141006
615.291280,0.143167
615.609500,0.144532
615.927680,0.141533
616.245820,0.141002
616.563920,0.142680
616.881980,0.143124
617.200000,0.140591
617.517980,0.137834
617.835920,0.141970
618.153820,0.141125
618.471680,0.141705
618.789500,0.143801
619.107280,0.144914
619.425020,0.145576
619.742720,0.144068
620.060380,0.143529
620.378000,0.144116
620.695580,0.143678
621.013120,0.148661
621.330620,0.142767
621.648080,0.145110
621.965500,0.146487
622.282880,0.142182
622.600220,0.141188
622.917520,0.147133
623.234780,0.154613
623.552000,0.149586
623.869180,0.147810
624.186320,0.148997
624.503420,0.148589
624.820480,0.149544
625.137500,0.150300
625.454480,0.146296
625.771420,0.148172
626.088320,0.149748
626.405180,0.150280
626.722000,0.149937
627.038780,0.148810
627.355520,0.146875
627.672220,0.153033
627.988880,0.151166
628.305500,0.148021
628.622080,0.153346
628.938620,0.151070
629.255120,0.148413
629.571580,0.152927
629.888000,0.147284
630.204380,0.150046
630.520720,0.155698
630.837020,0.153562
631.153280,0.154376
631.469500,0.153426
631.785680,0.154611
632.101820,0.158625
632.417920,0.153800
632.733980,0.151861
633.050000,0.157065
633.365980,0.155305
633.681920,0.157518
633.997820,0.158996
634.313680,0.159245
634.629500,0.156591
634.945280,0.159238
635.261020,0.162313
635.576720,0.158544
635.892380,0.157130
636.208000,0.161825
636.523580,0.161941
636.839120,0.155761
637.154620,0.161739
637.470080,0.160689
637.785500,0.165006
638.100880,0.161599
638.416220,0.160483
638.731520,0.161032
639.046780,0.161666
639.362000,0.160837
639.677180,0.161051
639.992320,0.159853
640.307420,0.162124
640.622480,0.159339
640.937500,0.160610
641.252480,0.167830
641.567420,0.164535
641.882320,0.161192
642.197180,0.169006
642.512000,0.164288
642.826780,0.165881
643.141520,0.168102
643.456220,0.166851
643.770880,0.165008
644.085500,0.168530
644.400080,0.171910
644.714620,0.168896
645.029120,0.166942
645.343580,0.165935
645.658000,0.167083
645.972380,0.172650
646.286720,0.168711
646.601020,0.172710
646.915280,0.166987
647.229500,0.173077
647.543680,0.172052
647.857820,0.172309
648.171920,0.171460
648.485980,0.169361
648.800000,0.169744
649.113980,0.174889
649.427920,0.174480
649.741820,0.176422
650.055680,0.175261
650.369500,0.178812
650.683280,0.176748
650.997020,0.173542
651.310720,0.175289
651.624380,0.172802
651.938000,0.175069
652.251580,0.175898
652.565120,0.173281
652.878620,0.180743
653.192080,0.180618
653.505500,0.174474
653.818880,0.176855
654.132220,0.179436
654.445520,0.180091
654.758780,0.177337
655.072000,0.177937
655.385180,0.176320
655.698320,0.182338
656.011420,0.182001
656.324480,0.181580
656.637500,0.183372
656.950480,0.179096
657.263420,0.184452
657.576320,0.178180
657.889180,0.182542
658.202000,0.182065
658.514780,0.180709
658.827520,0.182473
659.140220,0.185496
659.452880,0.185140
659.765500,0.180313
660.078080,0.189588
660.390620,0.182096
660.703120,0.187595
661.015580,0.187730
661.328000,0.190806
661.640380,0.192296
661.952720,0.189972
662.265020,0.191241
662.577280,0.185115
662.889500,0.191107
663.201680,0.193044
663.513820,0.195240
663.825920,0.191483
664.137980,0.195217
664.450000,0.190537
664.761980,0.190507
665.073920,0.193768
665.385820,0.190118
665.697680,0.193719
666.009500,0.195544
666.321280,0.196488
666.633020,0.194481
666.944720,0.202224
667.256380,0.197510
667.568000,0.195992
667.879580,0.195578
668.191120,0.204327
668.502620,0.200616
668.814080,0.201404
669.125500,0.196031
669.436880,0.195021
669.748220,0.194531
670.059520,0.198529
670.370780,0.202157
670.682000,0.205310
670.993180,0.200493
671.304320,0.202883
671.615420,0.196378
671.926480,0.209368
672.237500,0.201858
672.548480,0.206884
672.859420,0.204789
673.170320,0.206384
673.481180,0.206372
673.792000,0.204472
674.102780,0.199282
674.413520,0.205614
674.724220,0.207260
675.034880,0.207921
675.345500,0.204595
675.656080,0.209074
675.966620,0.207712
676.277120,0.209081
676.587580,0.213549
676.898000,0.206794
677.208380,0.205176
677.518720,0.206419
677.829020,0.212860
678.139280,0.213862
678.449500,0.217601
678.759680,0.218434
679.069820,0.213383
679.379920,0.216522
679.689980,0.210175
680.000000,0.211963
680.309980,0.213437
680.619920,0.215449
680.929820,0.211646
681.239680,0.211226
681.549500,0.212593
681.859280,0.215086
682.169020,0.223051
682.478720,0.224009
682.788380,0.220377
683.098000,0.223635
683.407580,0.223640
683.717120,0.216592
684.026620,0.225151
684.336080,0.219022
684.645500,0.215488
684.954880,0.217605
685.264220,0.222726
685.573520,0.229539
685.882780,0.227081
686.192000,0.223476
686.501180,0.222096
686.810320,0.231745
687.119420,0.228810
687.428480,0.224839
687.737500,0.230238
688.046480,0.224310
688.355420,0.225198
688.664320,0.230681
688.973180,0.230858
689.282000,0.233410
689.590780,0.228911
689.899520,0.226358
690.208220,0.233180
690.516880,0.229095
690.825500,0.234340
691.134080,0.230828
691.442620,0.229421
691.751120,0.235116
692.059580,0.231563
692.368000,0.238925
692.676380,0.236641
692.984720,0.233588
693.293020,0.238222
693.601280,0.236932
693.909500,0.236095
694.217680,0.237243
694.525820,0.238766
694.833920,0.237314
695.141980,0.242576
695.450000,0.233206
695.757980,0.244843
696.065920,0.240388
696.373820,0.239800
696.681680,0.238205
696.989500,0.246237
697.297280,0.245430
697.605020,0.244444
697.912720,0.240968
698.220380,0.238489
698.528000,0.246440
698.835580,0.245358
699.143120,0.242790
699.450620,0.244630
699.758080,0.240392
700.065500,0.249002
700.372880,0.246800
700.680220,0.247706
700.987520,0.253571
701.294780,0.251419
701.602000,0.253566
701.909180,0.250000
702.216320,0.243254
702.523420,0.252960
702.830480,0.257426
703.137500,0.250974
703.444480,0.257199
703.751420,0.252465
704.058320,0.258409
704.365180,0.254338
704.672000,0.253861
704.978780,0.253609
705.285520,0.251174
705.592220,0.261176
705.898880,0.259259
706.205500,0.257042
706.512080,0.263033
706.818620,0.261223
707.125120,0.262692
707.431580,0.262993
707.738000,0.260547
708.044380,0.256658
708.350720,0.259457
708.657020,0.265338
708.963280,0.259705
709.269500,0.263405
709.575680,0.265226
709.881820,0.265330
710.187920,0.264981
710.493980,0.266874
710.800000,0.261632
711.105980,0.264684
711.411920,0.270792
711.717820,0.265887
712.023680,0.265838
712.329500,0.271293
712.635280,0.271318
712.941020,0.272903
713.246720,0.269170
713.552380,0.267661
713.858000,0.273157
714.163580,0.275454
714.469120,0.271200
714.774620,0.275563
715.080080,0.271692
715.385500,0.276179
715.690880,0.270217
715.996220,0.273376
716.301520,0.279051
716.606780,0.279874
716.912000,0.275040
717.217180,0.279729
717.522320,0.278728
717.827420,0.277868
718.132480,0.282216
718.437500,0.275581
718.742480,0.277823
719.047420,0.274272
719.352320,0.284350
719.657180,0.278823
719.962000,0.277502
720.266780,0.285418
720.571520,0.288318
720.876220,0.280278
721.180880,0.284699
721.485500,0.279983
721.790080,0.283227
722.094620,0.289880
722.399120,0.285653
722.703580,0.285041
723.008000,0.286330
723.312380,0.281533
723.616720,0.280918
723.921020,0.285405
724.225280,0.292321
724.529500,0.287653
724.833680,0.295374
725.137820,0.290308
725.441920,0.288453
725.745980,0.291723
726.050000,0.288678
726.353980,0.288869
726.657920,0.289699
726.961820,0.299087
727.265680,0.294961
727.569500,0.292505
727.873280,0.295150
728.177020,0.302165
728.480720,0.298148
728.784380,0.299671
729.088000,0.292982
729.391580,0.300805
729.695120,0.301823
729.998620,0.307839
730.302080,0.299375
730.605500,0.295973
730.908880,0.300343
731.212220,0.293830
731.515520,0.301316
731.818780,0.298058
732.122000,0.302657
732.425180,0.308526
732.728320,0.301934
733.031420,0.297744
733.334480,0.305102
733.637500,0.301915
733.940480,0.307062
734.243420,0.311417
734.546320,0.311722
734.849180,0.298554
735.152000,0.311203
735.454780,0.306302
735.757520,0.309273
736.060220,0.315429
736.362880,0.315126
736.665500,0.308094
736.968080,0.313272
737.270620,0.314099
737.573120,0.308952
737.875580,0.322155
738.178000,0.307567
738.480380,0.310811
738.782720,0.310251
739.085020,0.306718
739.387280,0.322616
739.689500,0.318800
739.991680,0.327344
740.293820,0.311222
740.595920,0.312743
740.897980,0.319029
741.200000,0.314638
741.501980,0.322636
741.803920,0.319257
742.105820,0.319797
742.407680,0.320326
742.709500,0.322159
743.011280,0.319461
743.313020,0.323478
743.614720,0.322113
743.916380,0.316860
744.218000,0.323986
744.519580,0.323068
744.821120,0.331138
745.122620,0.320551
745.424080,0.321514
745.725500,0.329511
746.026880,0.330665
746.328220,0.326757
746.629520,0.315473
746.930780,0.325368
747.232000,0.329859
747.533180,0.328859
747.834320,0.334145
748.135420,0.321939
748.436480,0.339988
748.737500,0.332304
749.038480,0.334759
749.339420,0.331674
749.640320,0.337524
749.941180,0.334791
750.242000,0.331030
750.542780,0.339330
750.843520,0.338245
751.144220,0.336538
751.444880,0.345593
751.745500,0.327273
752.046080,0.336754
752.346620,0.335052
752.647120,0.337035
752.947580,0.344761
753.248000,0.348162
753.548380,0.331815
753.848720,0.345138
754.149020,0.335268
754.449280,0.344714
754.749500,0.342402
755.049680,0.342667
755.349820,0.336224
755.649920,0.345671
755.949980,0.339748
756.250000,0.339908
756.549980,0.337294
756.849920,0.352141
757.149820,0.337325
757.449680,0.340594
757.749500,0.349012
758.049280,0.352218
758.349020,0.337969
758.648720,0.354037
758.948380,0.349828
759.248000,0.353100
759.547580,0.357095
759.847120,0.343901
760.146620,0.345737
760.446080,0.355511
760.745500,0.356643
761.044880,0.357244
761.344220,0.356379
761.643520,0.352401
761.942780,0.347096
762.242000,0.362801
762.541180,0.358451
762.840320,0.365169
763.139420,0.350211
763.438480,0.348599
763.737500,0.365265
764.036480,0.359189
764.335420,0.357092
764.634320,0.347886
764.933180,0.358904
765.232000,0.363636
765.530780,0.359298
765.829520,0.369930
766.128220,0.365344
766.426880,0.365316
766.725500,0.372173
767.024080,0.356653
767.322620,0.363762
767.621120,0.367209
767.919580,0.359044
768.218000,0.364569
768.516380,0.366464
768.814720,0.363512
769.113020,0.369400
769.411280,0.376381
769.709500,0.368065
770.007680,0.361282
770.305820,0.373901
770.603920,0.365229
770.901980,0.371585
771.200000,0.366848
771.497980,0.364611
771.795920,0.371906
772.093820,0.365642
772.391680,0.372446
772.689500,0.376351
772.987280,0.377778
773.285020,0.370472
773.582720,0.375000
773.880380,0.382979
774.178000,0.373551
774.475580,0.381782
774.773120,0.382195
775.070620,0.366464
775.368080,0.374081
775.665500,0.372062
775.962880,0.383589
776.260220,0.378197
776.557520,0.396931
776.854780,0.379310
777.152000,0.377321
777.449180,0.383682
777.746320,0.379032
778.043420,0.379263
778.340480,0.383627
778.637500,0.392833
778.934480,0.383995
779.231420,0.375848
779.528320,0.374749
779.825180,0.376812
780.122000,0.389774
780.418780,0.401505
780.715520,0.387659
781.012220,0.398630
781.308880,0.382691
781.605500,0.386986
781.902080,0.390828
782.198620,0.385509
782.495120,0.395062
782.791580,0.394773
783.088000,0.397516
783.384380,0.394773
783.680720,0.390561
783.977020,0.384721
784.273280,0.398601
784.569500,0.396925
784.865680,0.402643
785.161820,0.406944
785.457920,0.401940
785.753980,0.400558
786.050000,0.392265
786.345980,0.400694
786.641920,0.400416
786.937820,0.413818
787.233680,0.395268
787.529500,0.395978
787.825280,0.401558
788.121020,0.399433
788.416720,0.410021
788.712380,0.410437
789.008000,0.387394
789.303580,0.404947
789.599120,0.402909
789.894620,0.410830
790.190080,0.414068
790.485500,0.408927
790.780880,0.403584
791.076220,0.402597
791.371520,0.412491
791.666780,0.413818
791.962000,0.396767
792.257180,0.406296
792.552320,0.421320
792.847420,0.411936
793.142480,0.415385
793.437500,0.404486
793.732480,0.413314
794.027420,0.412463
794.322320,0.411633
794.617180,0.407132
794.912000,0.417533
795.206780,0.412379
795.501520,0.422814
795.796220,0.410370
796.090880,0.416729
796.385500,0.410045
796.680080,0.413613
796.974620,0.410928
797.269120,0.423921
797.563580,0.413740
797.858000,0.413819
798.152380,0.424594
798.446720,0.426923
798.741020,0.421418
799.035280,0.430901
799.329500,0.427252
799.623680,0.423256
