399.985280,0.405405
400.329500,0.364865
400.673680,0.405063
401.017820,0.382353
401.361920,0.424242
401.705980,0.341463
402.050000,0.389610
402.393980,0.388235
402.737920,0.404494
403.081820,0.381443
403.425680,0.441860
403.769500,0.343750
404.113280,0.379310
404.457020,0.494382
404.800720,0.358696
405.144380,0.404040
405.488000,0.430108
405.831580,0.422680
406.175120,0.393617
406.518620,0.400000
406.862080,0.432990
407.205500,0.395833
407.548880,0.367347
407.892220,0.392157
408.235520,0.414894
408.578780,0.380952
408.922000,0.384615
409.265180,0.404040
409.608320,0.323232
409.951420,0.402062
410.294480,0.470588
410.637500,0.413043
410.980480,0.450980
411.323420,0.357143
411.666320,0.440367
412.009180,0.472727
412.352000,0.415842
412.694780,0.403670
413.037520,0.394495
413.380220,0.396396
413.722880,0.437500
414.065500,0.423423
414.408080,0.380531
414.750620,0.424779
415.093120,0.347107
415.435580,0.411765
415.778000,0.424242
416.120380,0.445378
416.462720,0.420635
416.805020,0.398496
417.147280,0.410448
417.489500,0.428571
417.831680,0.369863
418.173820,0.397163
418.515920,0.433566
418.857980,0.405063
419.200000,0.410256
419.541980,0.467456
419.883920,0.410112
420.225820,0.421965
420.567680,0.418994
420.909500,0.453552
421.251280,0.437500
421.593020,0.397959
421.934720,0.388889
422.276380,0.405128
422.618000,0.416667
422.959580,0.411765
423.301120,0.420091
423.642620,0.365217
423.984080,0.413953
424.325500,0.390135
424.666880,0.375000
425.008220,0.386555
425.349520,0.415254
425.690780,0.369231
426.032000,0.380392
426.373180,0.427386
426.714320,0.406250
427.055420,0.389961
427.396480,0.382022
427.737500,0.399209
428.078480,0.395257
428.419420,0.393574
428.760320,0.406130
429.101180,0.421260
429.442000,0.402299
429.782780,0.403846
430.123520,0.407843
430.464220,0.398524
430.804880,0.421456
431.145500,0.385455
431.486080,0.430712
431.826620,0.410853
432.167120,0.393382
432.507580,0.384058
432.848000,0.374101
433.188380,0.382671
433.528720,0.388679
433.869020,0.378571
434.209280,0.364912
434.549500,0.365854
434.889680,0.387205
435.229820,0.382253
435.569920,0.363322
435.909980,0.362460
436.250000,0.416949
436.589980,0.362229
436.929920,0.403175
437.269820,0.379310
437.609680,0.384615
437.949500,0.370482
438.289280,0.371105
438.629020,0.406977
438.968720,0.377907
439.308380,0.365854
439.648000,0.386301
439.987580,0.391534
440.327120,0.378667
440.666620,0.381818
441.006080,0.388747
441.345500,0.385749
441.684880,0.363636
442.024220,0.364764
442.363520,0.376190
442.702780,0.363636
443.042000,0.385463
443.381180,0.372845
443.720320,0.365011
444.059420,0.352941
444.398480,0.366109
444.737500,0.362705
445.076480,0.365079
445.415420,0.361277
445.754320,0.345114
446.093180,0.348624
446.432000,0.362782
446.770780,0.364326
447.109520,0.362132
447.448220,0.357782
447.786880,0.357782
448.125500,0.343103
448.464080,0.351786
448.802620,0.354610
449.141120,0.366782
449.479580,0.370629
449.818000,0.347676
450.156380,0.357860
450.494720,0.352066
450.833020,0.347902
451.171280,0.352740
451.509500,0.358885
451.847680,0.354132
452.185820,0.347676
452.523920,0.357388
452.861980,0.347386
453.200000,0.355482
453.537980,0.344538
453.875920,0.337815
454.213820,0.347603
454.551680,0.346026
454.889500,0.332209
455.227280,0.334520
455.565020,0.338358
455.902720,0.341098
456.240380,0.324459
456.578000,0.336237
456.915580,0.341969
457.253120,0.333882
457.590620,0.339901
457.928080,0.346801
458.265500,0.339527
458.602880,0.326299
458.940220,0.331641
459.277520,0.324800
459.614780,0.338789
459.952000,0.326087
460.289180,0.325949
460.626320,0.327559
460.963420,0.321486
461.300480,0.328746
461.637500,0.325116
461.974480,0.331804
462.311420,0.317437
462.648320,0.325037
462.985180,0.308465
463.322000,0.328869
463.658780,0.323204
463.995520,0.305365
464.332220,0.329640
464.668880,0.315860
465.005500,0.328418
465.342080,0.317542
465.678620,0.298893
466.015120,0.316947
466.351580,0.317320
466.688000,0.316687
467.024380,0.303767
467.360720,0.305682
467.697020,0.302961
468.033280,0.307778
468.369500,0.310155
468.705680,0.316798
469.041820,0.303125
469.377920,0.305857
469.713980,0.315139
470.050000,0.307246
470.385980,0.300391
470.721920,0.304603
471.057820,0.306043
471.393680,0.304958
471.729500,0.299351
472.065280,0.305009
472.401020,0.300532
472.736720,0.292321
473.072380,0.300718
473.408000,0.296780
473.743580,0.290657
474.079120,0.292851
474.414620,0.287532
474.750080,0.288039
475.085500,0.298520
475.420880,0.288093
475.756220,0.286182
476.091520,0.283035
476.426780,0.288026
476.762000,0.284795
477.097180,0.282400
477.432320,0.284330
477.767420,0.288399
478.102480,0.276378
478.437500,0.289819
478.772480,0.281324
479.107420,0.279902
479.442320,0.274181
479.777180,0.281623
480.112000,0.268875
480.446780,0.275916
480.781520,0.272947
481.116220,0.266774
481.450880,0.270101
481.785500,0.270570
482.120080,0.270376
482.454620,0.274281
482.789120,0.271497
483.123580,0.267913
483.458000,0.256329
483.792380,0.272364
484.126720,0.261004
484.461020,0.262295
484.795280,0.265227
485.129500,0.275136
485.463680,0.262791
485.797820,0.269829
486.131920,0.260138
486.465980,0.260232
486.800000,0.277099
487.133980,0.268127
487.467920,0.262433
487.801820,0.266209
488.135680,0.261562
488.469500,0.246596
488.803280,0.262259
489.137020,0.248352
489.470720,0.261128
489.804380,0.256867
490.138000,0.254451
490.471580,0.253500
490.805120,0.250179
491.138620,0.252310
491.472080,0.250177
491.805500,0.253138
492.138880,0.250174
492.472220,0.248443
492.805520,0.247207
493.138780,0.248794
493.472000,0.246823
493.805180,0.240791
494.138320,0.243496
494.471420,0.238281
494.804480,0.254204
495.137500,0.245828
495.470480,0.240280
495.803420,0.242443
496.136320,0.243108
496.469180,0.237569
496.802000,0.240220
497.134780,0.243178
497.467520,0.242202
497.800220,0.237618
498.132880,0.239859
498.465500,0.235805
498.798080,0.229452
499.130620,0.239191
499.463120,0.234700
499.795580,0.232673
500.128000,0.234877
500.460380,0.229279
500.792720,0.227996
501.125020,0.231739
501.457280,0.224543
501.789500,0.223140
502.121680,0.233800
502.453820,0.231515
502.785920,0.228114
503.117980,0.226202
503.450000,0.232044
503.781980,0.225212
504.113920,0.223329
504.445820,0.222168
504.777680,0.221176
505.109500,0.222115
505.441280,0.218451
505.773020,0.216064
506.104720,0.220914
506.436380,0.217227
506.768000,0.218896
507.099580,0.214188
507.431120,0.220141
507.762620,0.222744
508.094080,0.216044
508.425500,0.214286
508.756880,0.213535
509.088220,0.213891
509.419520,0.217877
509.750780,0.209934
510.082000,0.210821
510.413180,0.210041
510.744320,0.211229
511.075420,0.209899
511.406480,0.206394
511.737500,0.203241
512.068480,0.210996
512.399420,0.207512
512.730320,0.203695
513.061180,0.211227
513.392000,0.209655
513.722780,0.205572
514.053520,0.205079
514.384220,0.200285
514.714880,0.206319
515.045500,0.195881
515.376080,0.202906
515.706620,0.202143
516.037120,0.199020
516.367580,0.200591
516.698000,0.196078
517.028380,0.201092
517.358720,0.193086
517.689020,0.199308
518.019280,0.199699
518.349500,0.198175
518.679680,0.195861
519.009820,0.191802
519.339920,0.197395
519.669980,0.189352
520.000000,0.194091
520.329980,0.192328
520.659920,0.193763
520.989820,0.189886
521.319680,0.195473
521.649500,0.186632
521.979280,0.196242
522.309020,0.187241
522.638720,0.184332
522.968380,0.191830
523.298000,0.187370
523.627580,0.192964
523.957120,0.189610
524.286620,0.180823
524.616080,0.185109
524.945500,0.183979
525.274880,0.192919
525.604220,0.185300
525.933520,0.178721
526.262780,0.180943
526.592000,0.187722
526.921180,0.187405
527.250320,0.179097
527.579420,0.183931
527.908480,0.179222
528.237500,0.181231
528.566480,0.177146
528.895420,0.176442
529.224320,0.176820
529.553180,0.174940
529.882000,0.184428
530.210780,0.173263
530.539520,0.175935
530.868220,0.169459
531.196880,0.171046
531.525500,0.180630
531.854080,0.175891
532.182620,0.175152
532.511120,0.169838
532.839580,0.171960
533.168000,0.177758
533.496380,0.178082
533.824720,0.171377
534.153020,0.170753
534.481280,0.173128
534.809500,0.171944
535.137680,0.171007
535.465820,0.169244
535.793920,0.168782
536.121980,0.170793
536.450000,0.170825
536.777980,0.173439
537.105920,0.171025
537.433820,0.166939
537.761680,0.168571
538.089500,0.169567
538.417280,0.167131
538.745020,0.170365
539.072720,0.163217
539.400380,0.164724
539.728000,0.168642
540.055580,0.162172
540.383120,0.162695
540.710620,0.165179
541.038080,0.160457
541.365500,0.162132
541.692880,0.162791
542.020220,0.159410
542.347520,0.168342
542.674780,0.161609
543.002000,0.156403
543.329180,0.162750
543.656320,0.162799
543.983420,0.156239
544.310480,0.161060
544.637500,0.163084
544.964480,0.160162
545.291420,0.159521
545.618320,0.161023
545.945180,0.152604
546.272000,0.154653
546.598780,0.154376
546.925520,0.154303
547.252220,0.152856
547.578880,0.155099
547.905500,0.156209
548.232080,0.157245
548.558620,0.154572
548.885120,0.151456
549.211580,0.152041
549.538000,0.151751
549.864380,0.154984
550.190720,0.152728
550.517020,0.153520
550.843280,0.146906
551.169500,0.149173
551.495680,0.149474
551.821820,0.152515
552.147920,0.149967
552.473980,0.150807
552.800000,0.151079
553.125980,0.150950
553.451920,0.150962
553.777820,0.149234
554.103680,0.150320
554.429500,0.147305
554.755280,0.150200
555.081020,0.147727
555.406720,0.145953
555.732380,0.144697
556.058000,0.146300
556.383580,0.145156
556.709120,0.148863
557.034620,0.144678
557.360080,0.145078
557.685500,0.144882
558.010880,0.144194
558.336220,0.142355
558.661520,0.148883
558.986780,0.150248
559.312000,0.143162
559.637180,0.145422
559.962320,0.141331
560.287420,0.145980
560.612480,0.144600
560.937500,0.143539
561.262480,0.146261
561.587420,0.141458
561.912320,0.144436
562.237180,0.143967
562.562000,0.145155
562.886780,0.141583
563.211520,0.141952
563.536220,0.145826
563.860880,0.139947
564.185500,0.138462
564.510080,0.144470
564.834620,0.142166
565.159120,0.139474
565.483580,0.142911
565.808000,0.140371
566.132380,0.138754
566.456720,0.140212
566.781020,0.139910
567.105280,0.137618
567.429500,0.141123
567.753680,0.139241
568.077820,0.139544
568.401920,0.140183
568.725980,0.144592
569.050000,0.142205
569.373980,0.142368
569.697920,0.135760
570.021820,0.139700
570.345680,0.141217
570.669500,0.142312
570.993280,0.143226
571.317020,0.136281
571.640720,0.140793
571.964380,0.134744
572.288000,0.136128
572.611580,0.139648
572.935120,0.138421
573.258620,0.143231
573.582080,0.140089
573.905500,0.143336
574.228880,0.141797
574.552220,0.140344
574.875520,0.137379
575.198780,0.136249
575.522000,0.138563
575.845180,0.138252
576.168320,0.144448
576.491420,0.142078
576.814480,0.141049
577.137500,0.141414
577.460480,0.141356
577.783420,0.141122
578.106320,0.139245
578.429180,0.141039
578.752000,0.137548
579.074780,0.137222
579.397520,0.137831
579.720220,0.136422
580.042880,0.140403
580.365500,0.139643
580.688080,0.139756
581.010620,0.141748
581.333120,0.140281
581.655580,0.140526
581.978000,0.144330
582.300380,0.140539
582.622720,0.140738
582.945020,0.139792
583.267280,0.140345
583.589500,0.139005
583.911680,0.139092
584.233820,0.137236
584.555920,0.146864
584.877980,0.143216
585.200000,0.135666
585.521980,0.140871
585.843920,0.135448
586.165820,0.134979
586.487680,0.140837
586.809500,0.143114
587.131280,0.138421
587.453020,0.140179
587.774720,0.143111
588.096380,0.139148
588.418000,0.138426
588.739580,0.141420
589.061120,0.140886
589.382620,0.140688
589.704080,0.137447
590.025500,0.141553
590.346880,0.139404
590.668220,0.143377
590.989520,0.138935
591.310780,0.140845
591.632000,0.142896
591.953180,0.142264
592.274320,0.143052
592.595420,0.137392
592.916480,0.139636
593.237500,0.143358
593.558480,0.137745
593.879420,0.140545
594.200320,0.144924
594.521180,0.141833
594.842000,0.141859
595.162780,0.145032
595.483520,0.144111
595.804220,0.139903
596.124880,0.141220
596.445500,0.142258
596.766080,0.142511
597.086620,0.141454
597.407120,0.142180
597.727580,0.147176
598.048000,0.144406
598.368380,0.145187
598.688720,0.142595
599.009020,0.140924
599.329280,0.139968
599.649500,0.141574
599.969680,0.141560
600.289820,0.147436
600.609920,0.141865
600.929980,0.144041
601.250000,0.147568
601.569980,0.143937
601.889920,0.145950
602.209820,0.139881
602.529680,0.143917
602.849500,0.142117
603.169280,0.143015
603.489020,0.144201
603.808720,0.145639
604.128380,0.150938
604.448000,0.145304
604.767580,0.144693
605.087120,0.148753
605.406620,0.148335
605.726080,0.150556
606.045500,0.147673
606.364880,0.146016
606.684220,0.148201
607.003520,0.146216
607.322780,0.142979
607.642000,0.148765
607.961180,0.144550
608.280320,0.149942
608.599420,0.145713
608.918480,0.143402
609.237500,0.146714
609.556480,0.150044
609.875420,0.148848
610.194320,0.147033
610.513180,0.150340
610.832000,0.150387
611.150780,0.151998
611.469520,0.157164
611.788220,0.152358
612.106880,0.150784
612.425500,0.148295
612.744080,0.150508
613.062620,0.152905
613.381120,0.151737
613.699580,0.150828
614.018000,0.151106
614.336380,0.153300
614.654720,0.150078
614.973020,0.153965
615.291280,0.154633
615.609500,0.157845
615.927680,0.152967
616.245820,0.155844
616.563920,0.154181
616.881980,0.154973
617.200000,0.151166
617.517980,0.153391
617.835920,0.151600
618.153820,0.151072
618.471680,0.155039
618.789500,0.153556
619.107280,0.158998
619.425020,0.158896
619.742720,0.157564
620.060380,0.153243
620.378000,0.158905
620.695580,0.157407
621.013120,0.159055
621.330620,0.160339
621.648080,0.154574
621.965500,0.160289
622.282880,0.158575
622.600220,0.160771
622.917520,0.158160
623.234780,0.165542
623.552000,0.163272
623.869180,0.161992
624.186320,0.162369
624.503420,0.160815
624.820480,0.160226
625.137500,0.162930
625.454480,0.164426
625.771420,0.165195
626.088320,0.167087
626.405180,0.166148
626.722000,0.166248
627.038780,0.161654
627.355520,0.161875
627.672220,0.166096
627.988880,0.162053
628.305500,0.167965
628.622080,0.167286
628.938620,0.168807
629.255120,0.167704
629.571580,0.165798
629.888000,0.164468
630.204380,0.170911
630.520720,0.164534
630.837020,0.168363
631.153280,0.166667
631.469500,0.171013
631.785680,0.172694
632.101820,0.174910
632.417920,0.168107
632.733980,0.170768
633.050000,0.180412
633.365980,0.172792
633.681920,0.173031
633.997820,0.174238
634.313680,0.172515
634.629500,0.171631
634.945280,0.172141
635.261020,0.179337
635.576720,0.173224
635.892380,0.175428
636.208000,0.178094
636.523580,0.183572
636.839120,0.178923
637.154620,0.180290
637.470080,0.175897
637.785500,0.181712
638.100880,0.177527
638.416220,0.180903
638.731520,0.176791
639.046780,0.184387
639.362000,0.178039
639.677180,0.181896
639.992320,0.180998
640.307420,0.185445
640.622480,0.180622
640.937500,0.180305
641.252480,0.183468
641.567420,0.180733
641.882320,0.183185
642.197180,0.187254
642.512000,0.183599
642.826780,0.187795
643.141520,0.186996
643.456220,0.186497
643.770880,0.187949
644.085500,0.186138
644.400080,0.185674
644.714620,0.190914
645.029120,0.188669
645.343580,0.190894
645.658000,0.197058
645.972380,0.190189
646.286720,0.192968
646.601020,0.190423
646.915280,0.191664
647.229500,0.190659
647.543680,0.195250
647.857820,0.192128
648.171920,0.196961
648.485980,0.192107
648.800000,0.191788
649.113980,0.196231
649.427920,0.195839
649.741820,0.192086
650.055680,0.196105
650.369500,0.197590
650.683280,0.194229
650.997020,0.195545
651.310720,0.195377
651.624380,0.193407
651.938000,0.201385
652.251580,0.196772
652.565120,0.195640
652.878620,0.196509
653.192080,0.201966
653.505500,0.194109
653.818880,0.199318
654.132220,0.201082
654.445520,0.199943
654.758780,0.198300
655.072000,0.205444
655.385180,0.198288
655.698320,0.202915
656.011420,0.205216
656.324480,0.204605
656.637500,0.205678
656.950480,0.201703
657.263420,0.201892
657.576320,0.206641
657.889180,0.208493
658.202000,0.207428
658.514780,0.207205
658.827520,0.207683
659.140220,0.210668
659.452880,0.209604
659.765500,0.208007
660.078080,0.207343
660.390620,0.209288
660.703120,0.213566
661.015580,0.211350
661.328000,0.214421
661.640380,0.211867
661.952720,0.213329
662.265020,0.216761
662.577280,0.215967
662.889500,0.210659
663.201680,0.216975
663.513820,0.212609
663.825920,0.218700
664.137980,0.214932
664.450000,0.210358
664.761980,0.214730
665.073920,0.217462
665.385820,0.212042
665.697680,0.217851
666.009500,0.216495
666.321280,0.222995
666.633020,0.217088
666.944720,0.220088
667.256380,0.220054
667.568000,0.218410
667.879580,0.225850
668.191120,0.225618
668.502620,0.223554
668.814080,0.222807
669.125500,0.222374
669.436880,0.223375
669.748220,0.220492
670.059520,0.221989
670.370780,0.226862
670.682000,0.225487
670.993180,0.227273
671.304320,0.227848
671.615420,0.232955
671.926480,0.226047
672.237500,0.226509
672.548480,0.229595
672.859420,0.231594
673.170320,0.227784
673.481180,0.228820
673.792000,0.235846
674.102780,0.230521
674.413520,0.228946
674.724220,0.232668
675.034880,0.232857
675.345500,0.234500
675.656080,0.235209
675.966620,0.233539
676.277120,0.232882
676.587580,0.231222
676.898000,0.235536
677.208380,0.233641
677.518720,0.230124
677.829020,0.236511
678.139280,0.244996
678.449500,0.242109
678.759680,0.244661
679.069820,0.240520
679.379920,0.241041
679.689980,0.238396
680.000000,0.236636
680.309980,0.243875
680.619920,0.244226
680.929820,0.243001
681.239680,0.243353
681.549500,0.243704
681.859280,0.243465
682.169020,0.243193
682.478720,0.246821
682.788380,0.247324
683.098000,0.249065
683.407580,0.248030
683.717120,0.242117
684.026620,0.243599
684.336080,0.250095
684.645500,0.245043
684.954880,0.250472
685.264220,0.251038
685.573520,0.256566
685.882780,0.254315
686.192000,0.246802
686.501180,0.252365
686.810320,0.254420
687.119420,0.253896
687.428480,0.255222
687.737500,0.258634
688.046480,0.247699
688.355420,0.254244
688.664320,0.256312
688.973180,0.258040
689.282000,0.256944
689.590780,0.261120
689.899520,0.252943
690.208220,0.263761
690.516880,0.264605
690.825500,0.259623
691.134080,0.254366
691.442620,0.257622
691.751120,0.267349
692.059580,0.263279
692.368000,0.261643
692.676380,0.264122
692.984720,0.265649
693.293020,0.265198
693.601280,0.268600
693.909500,0.263337
694.217680,0.265804
694.525820,0.266184
694.833920,0.262495
695.141980,0.270343
695.450000,0.264504
695.757980,0.275019
696.065920,0.271845
696.373820,0.272132
696.681680,0.270042
696.989500,0.271324
697.297280,0.269934
697.605020,0.278175
697.912720,0.274789
698.220380,0.270760
698.528000,0.276899
698.835580,0.281707
699.143120,0.272408
699.450620,0.277645
699.758080,0.272549
700.065500,0.276536
700.372880,0.283200
700.680220,0.274830
700.987520,0.282540
701.294780,0.291160
701.602000,0.281696
701.909180,0.283784
702.216320,0.276105
702.523420,0.286109
702.830480,0.280396
703.137500,0.275916
703.444480,0.285996
703.751420,0.282051
704.058320,0.284923
704.365180,0.280363
704.672000,0.282772
704.978780,0.283652
705.285520,0.282081
705.592220,0.279216
705.898880,0.292356
706.205500,0.289515
706.512080,0.289100
706.818620,0.297214
707.125120,0.291923
707.431580,0.289175
707.738000,0.292187
708.044380,0.283288
708.350720,0.291555
708.657020,0.294256
708.963280,0.289208
709.269500,0.293151
709.575680,0.296660
709.881820,0.292846
710.187920,0.300000
710.493980,0.293638
710.800000,0.298246
711.105980,0.292922
711.411920,0.297990
711.717820,0.302144
712.023680,0.294598
712.329500,0.301262
712.635280,0.306202
712.941020,0.300348
713.246720,0.296838
713.552380,0.303375
713.858000,0.295625
714.163580,0.298737
714.469120,0.306370
714.774620,0.305961
715.080080,0.305065
715.385500,0.308153
715.690880,0.309270
715.996220,0.303883
716.301520,0.310277
716.606780,0.306997
716.912000,0.311389
717.217180,0.304469
717.522320,0.304970
717.827420,0.315704
718.132480,0.309916
718.437500,0.305748
718.742480,0.315323
719.047420,0.308252
719.352320,0.314653
719.657180,0.313573
719.962000,0.316377
720.266780,0.309098
720.571520,0.310688
720.876220,0.317921
721.180880,0.307692
721.485500,0.317175
721.790080,0.315074
722.094620,0.319468
722.399120,0.318828
722.703580,0.308616
723.008000,0.327727
723.312380,0.321136
723.616720,0.317467
723.921020,0.323084
724.225280,0.316754
724.529500,0.316112
724.833680,0.328292
725.137820,0.318943
725.441920,0.322782
725.745980,0.322148
726.050000,0.327470
726.353980,0.320415
726.657920,0.326586
726.961820,0.327397
727.265680,0.327323
727.569500,0.326782
727.873280,0.326097
728.177020,0.324275
728.480720,0.331019
728.784380,0.332081
729.088000,0.335374
729.391580,0.325912
729.695120,0.333973
729.998620,0.343212
730.302080,0.329169
730.605500,0.335274
730.908880,0.341499
731.212220,0.333986
731.515520,0.338859
731.818780,0.332524
732.122000,0.329232
732.425180,0.331198
732.728320,0.328706
733.031420,0.338847
733.334480,0.338776
733.637500,0.334677
733.940480,0.344422
734.243420,0.343527
734.546320,0.339730
734.849180,0.338326
735.152000,0.337656
735.454780,0.331095
735.757520,0.335090
736.060220,0.342285
736.362880,0.341912
736.665500,0.340470
736.968080,0.350349
737.270620,0.346217
737.573120,0.345524
737.875580,0.342496
738.178000,0.342406
738.480380,0.339459
738.782720,0.340785
739.085020,0.338106
739.387280,0.351996
739.689500,0.342582
739.991680,0.353172
740.293820,0.346600
740.595920,0.350584
740.897980,0.348391
741.200000,0.363993
741.501980,0.361032
741.803920,0.357545
742.105820,0.354202
742.407680,0.352359
742.709500,0.348864
743.011280,0.358734
743.313020,0.355362
743.614720,0.348810
743.916380,0.355814
744.218000,0.366945
744.519580,0.352657
744.821120,0.375449
745.122620,0.353505
745.424080,0.358173
745.725500,0.361497
746.026880,0.363300
746.328220,0.361282
746.629520,0.350993
746.930780,0.363971
747.232000,0.348866
747.533180,0.362416
747.834320,0.362751
748.135420,0.361094
748.436480,0.362445
748.737500,0.367511
749.038480,0.359194
749.339420,0.367144
749.640320,0.369579
749.941180,0.367895
750.242000,0.369347
750.542780,0.366005
750.843520,0.366432
751.144220,0.371154
751.444880,0.365885
751.745500,0.368831
752.046080,0.374599
752.346620,0.351160
752.647120,0.372306
752.947580,0.374515
753.248000,0.373952
753.548380,0.373455
753.848720,0.374759
754.149020,0.371373
754.449280,0.374261
754.749500,0.367618
755.049680,0.370667
755.349820,0.378919
755.649920,0.377396
755.949980,0.378235
756.250000,0.380013
756.549980,0.368317
756.849920,0.382733
757.149820,0.381238
757.449680,0.377558
757.749500,0.391275
758.049280,0.392491
758.349020,0.372045
758.648720,0.382333
758.948380,0.382818
759.248000,0.384771
759.547580,0.380632
759.847120,0.377671
760.146620,0.385656
760.446080,0.387097
760.745500,0.379720
761.044880,0.392756
761.344220,0.382751
761.643520,0.386299
761.942780,0.387684
762.242000,0.387553
762.541180,0.383099
762.840320,0.386938
763.139420,0.381153
763.438480,0.383459
763.737500,0.388008
764.036480,0.389937
764.335420,0.388144
764.634320,0.392238
764.933180,0.390411
765.232000,0.384455
765.530780,0.383158
765.829520,0.388811
766.128220,0.398051
766.426880,0.398721
766.725500,0.392735
767.024080,0.396433
767.322620,0.393499
767.621120,0.394986
767.919580,0.390444
768.218000,0.402873
768.516380,0.394861
768.814720,0.395062
769.113020,0.397657
769.411280,0.399171
769.709500,0.402571
770.007680,0.394001
770.305820,0.407708
770.603920,0.392857
770.901980,0.421448
771.200000,0.398777
771.497980,0.393432
771.795920,0.404013
772.093820,0.399064
772.391680,0.402769
772.689500,0.403378
772.987280,0.416162
773.285020,0.408066
773.582720,0.405405
773.880380,0.403569
774.178000,0.411725
774.475580,0.404555
774.773120,0.413655
775.070620,0.411765
775.368080,0.410154
775.665500,0.408328
775.962880,0.410941
776.260220,0.412517
776.557520,0.419613
776.854780,0.417850
777.152000,0.407825
777.449180,0.415374
777.746320,0.405242
778.043420,0.413370
778.340480,0.412043
778.637500,0.422583
778.934480,0.422327
779.231420,0.410448
779.528320,0.414162
779.825180,0.399209
780.122000,0.407039
780.418780,0.432969
780.715520,0.413146
781.012220,0.420548
781.308880,0.421231
781.605500,0.421233
781.902080,0.422998
782.198620,0.429938
782.495120,0.426612
782.791580,0.418845
783.088000,0.415459
783.384380,0.431912
783.680720,0.422025
783.977020,0.422574
784.273280,0.422378
784.569500,0.431167
784.865680,0.429764
785.161820,0.420833
785.457920,0.417879
785.753980,0.420796
786.050000,0.433011
786.345980,0.415972
786.641920,0.429563
786.937820,0.437322
787.233680,0.422408
787.529500,0.420250
787.825280,0.436969
788.121020,0.432720
788.416720,0.428370
788.712380,0.430889
789.008000,0.424929
789.303580,0.429682
789.599120,0.434182
789.894620,0.437545
790.190080,0.442350
790.485500,0.432685
790.780880,0.436559
791.076220,0.422078
791.371520,0.447349
791.666780,0.446545
791.962000,0.443791
792.257180,0.431186
792.552320,0.444525
792.847420,0.435953
793.142480,0.449817
793.437500,0.439942
793.732480,0.439649
794.027420,0.442136
794.322320,0.450410
794.617180,0.437593
794.912000,0.445022
795.206780,0.439224
795.501520,0.444106
795.796220,0.433333
796.090880,0.455916
796.385500,0.441529
796.680080,0.439043
796.974620,0.449102
797.269120,0.433005
797.563580,0.444275
797.858000,0.455581
798.152380,0.447796
798.446720,0.454615
798.741020,0.436055
799.035280,0.454193
799.329500,0.454196
799.623680,0.455039
