399.985280,0.445946
400.329500,0.324324
400.673680,0.367089
401.017820,0.470588
401.361920,0.318182
401.705980,0.292683
402.050000,0.350649
402.393980,0.352941
402.737920,0.404494
403.081820,0.443299
403.425680,0.476744
403.769500,0.343750
404.113280,0.402299
404.457020,0.483146
404.800720,0.347826
405.144380,0.404040
405.488000,0.430108
405.831580,0.443299
406.175120,0.361702
406.518620,0.390000
406.862080,0.443299
407.205500,0.427083
407.548880,0.387755
407.892220,0.421569
408.235520,0.372340
408.578780,0.419048
408.922000,0.413462
409.265180,0.434343
409.608320,0.383838
409.951420,0.453608
410.294480,0.382353
410.637500,0.423913
410.980480,0.382353
411.323420,0.397959
411.666320,0.440367
412.009180,0.445455
412.352000,0.346535
412.694780,0.458716
413.037520,0.339450
413.380220,0.423423
413.722880,0.410714
414.065500,0.405405
414.408080,0.327434
414.750620,0.398230
415.093120,0.388430
415.435580,0.420168
415.778000,0.424242
416.120380,0.386555
416.462720,0.357143
416.805020,0.398496
417.147280,0.402985
417.489500,0.442857
417.831680,0.417808
418.173820,0.432624
418.515920,0.433566
418.857980,0.449367
419.200000,0.397436
419.541980,0.437870
419.883920,0.393258
420.225820,0.416185
420.567680,0.396648
420.909500,0.415301
421.251280,0.406250
421.593020,0.408163
421.934720,0.383838
422.276380,0.379487
422.618000,0.411765
422.959580,0.377451
423.301120,0.433790
423.642620,0.373913
423.984080,0.390698
424.325500,0.394619
424.666880,0.409483
425.008220,0.386555
425.349520,0.402542
425.690780,0.400000
426.032000,0.376471
426.373180,0.402490
426.714320,0.375000
427.055420,0.378378
427.396480,0.385768
427.737500,0.403162
428.078480,0.375494
428.419420,0.377510
428.760320,0.402299
429.101180,0.385827
429.442000,0.375479
429.782780,0.376923
430.123520,0.400000
430.464220,0.383764
430.804880,0.406130
431.145500,0.367273
431.486080,0.400749
431.826620,0.395349
432.167120,0.356618
432.507580,0.387681
432.848000,0.356115
433.188380,0.389892
433.528720,0.373585
433.869020,0.382143
434.209280,0.368421
434.549500,0.383275
434.889680,0.380471
435.229820,0.372014
435.569920,0.349481
435.909980,0.349515
436.250000,0.369492
436.589980,0.365325
436.929920,0.368254
437.269820,0.341693
437.609680,0.352071
437.949500,0.373494
438.289280,0.373938
438.629020,0.377907
438.968720,0.375000
439.308380,0.330623
439.648000,0.356164
439.987580,0.365079
440.327120,0.384000
440.666620,0.368831
441.006080,0.388747
441.345500,0.371007
441.684880,0.351675
442.024220,0.362283
442.363520,0.364286
442.702780,0.361364
443.042000,0.352423
443.381180,0.359914
443.720320,0.365011
444.059420,0.350840
444.398480,0.336820
444.737500,0.350410
445.076480,0.351190
445.415420,0.345309
445.754320,0.343035
446.093180,0.363303
446.432000,0.336466
446.770780,0.352941
447.109520,0.352941
447.448220,0.341682
447.786880,0.354204
448.125500,0.344828
448.464080,0.346429
448.802620,0.340426
449.141120,0.349481
449.479580,0.328671
449.818000,0.330465
450.156380,0.339465
450.494720,0.345455
450.833020,0.342657
451.171280,0.327055
451.509500,0.336237
451.847680,0.347386
452.185820,0.349398
452.523920,0.335052
452.861980,0.330523
453.200000,0.323920
453.537980,0.341176
453.875920,0.326050
454.213820,0.327055
454.551680,0.331126
454.889500,0.325464
455.227280,0.311388
455.565020,0.316583
455.902720,0.331115
456.240380,0.302829
456.578000,0.336237
456.915580,0.321244
457.253120,0.325658
457.590620,0.318555
457.928080,0.333333
458.265500,0.312500
458.602880,0.327922
458.940220,0.304569
459.277520,0.312000
459.614780,0.337152
459.952000,0.309006
460.289180,0.337025
460.626320,0.319685
460.963420,0.306947
461.300480,0.310398
461.637500,0.314330
461.974480,0.311927
462.311420,0.304024
462.648320,0.300146
462.985180,0.295552
463.322000,0.311012
463.658780,0.290055
463.995520,0.295736
464.332220,0.296399
464.668880,0.313172
465.005500,0.306971
465.342080,0.307298
465.678620,0.298893
466.015120,0.307891
466.351580,0.309735
466.688000,0.306943
467.024380,0.300122
467.360720,0.298864
467.697020,0.301822
468.033280,0.288889
468.369500,0.298013
468.705680,0.290868
469.041820,0.292708
469.377920,0.286334
469.713980,0.286303
470.050000,0.289855
470.385980,0.276908
470.721920,0.285015
471.057820,0.288499
471.393680,0.279701
471.729500,0.279889
472.065280,0.282648
472.401020,0.278369
472.736720,0.282723
473.072380,0.274686
473.408000,0.281984
473.743580,0.279412
474.079120,0.283376
474.414620,0.273961
474.750080,0.273393
475.085500,0.277138
475.420880,0.273106
475.756220,0.278005
476.091520,0.279625
476.426780,0.262945
476.762000,0.270314
477.097180,0.280000
477.432320,0.267367
477.767420,0.260621
478.102480,0.260630
478.437500,0.273399
478.772480,0.256895
479.107420,0.271766
479.442320,0.263789
479.777180,0.265712
480.112000,0.257319
480.446780,0.255651
480.781520,0.260870
481.116220,0.268391
481.450880,0.251366
481.785500,0.273734
482.120080,0.264107
482.454620,0.261849
482.789120,0.254777
483.123580,0.257009
483.458000,0.253956
483.792380,0.261981
484.126720,0.256371
484.461020,0.255269
484.795280,0.251349
485.129500,0.251754
485.463680,0.261240
485.797820,0.261275
486.131920,0.243305
486.465980,0.248649
486.800000,0.251145
487.133980,0.243958
487.467920,0.241010
487.801820,0.248665
488.135680,0.247915
488.469500,0.241301
488.803280,0.238484
489.137020,0.238095
489.470720,0.246291
489.804380,0.250928
490.138000,0.242582
490.471580,0.242447
490.805120,0.239457
491.138620,0.231699
491.472080,0.240283
491.805500,0.235704
492.138880,0.243224
492.472220,0.233910
492.805520,0.231844
493.138780,0.238456
493.472000,0.236120
493.805180,0.238745
494.138320,0.228152
494.471420,0.229818
494.804480,0.237387
495.137500,0.236200
495.470480,0.232632
495.803420,0.230479
496.136320,0.235589
496.469180,0.222222
496.802000,0.221883
497.134780,0.229230
497.467520,0.229358
497.800220,0.221698
498.132880,0.219283
498.465500,0.225956
498.798080,0.220320
499.130620,0.223470
499.463120,0.222908
499.795580,0.217822
500.128000,0.221253
500.460380,0.220667
500.792720,0.216331
501.125020,0.212296
501.457280,0.209922
501.789500,0.215909
502.121680,0.222913
502.453820,0.215196
502.785920,0.217609
503.117980,0.214917
503.450000,0.218483
503.781980,0.217240
504.113920,0.211000
504.445820,0.213418
504.777680,0.210353
505.109500,0.206250
505.441280,0.211759
505.773020,0.207140
506.104720,0.201130
506.436380,0.211074
506.768000,0.204864
507.099580,0.202746
507.431120,0.207026
507.762620,0.204417
508.094080,0.199635
508.425500,0.199346
508.756880,0.203932
509.088220,0.198712
509.419520,0.195996
509.750780,0.202437
510.082000,0.199160
510.413180,0.197605
510.744320,0.195122
511.075420,0.199817
511.406480,0.197461
511.737500,0.192130
512.068480,0.197368
512.399420,0.197183
512.730320,0.186605
513.061180,0.186965
513.392000,0.194037
513.722780,0.194044
514.053520,0.192142
514.384220,0.193149
514.714880,0.191479
515.045500,0.191092
515.376080,0.191283
515.706620,0.187530
516.037120,0.189706
516.367580,0.182356
516.698000,0.183333
517.028380,0.182721
517.358720,0.189136
517.689020,0.186449
518.019280,0.185650
518.349500,0.183984
518.679680,0.180212
519.009820,0.184211
519.339920,0.186874
519.669980,0.182320
520.000000,0.181355
520.329980,0.180404
520.659920,0.184560
520.989820,0.185243
521.319680,0.181070
521.649500,0.180463
521.979280,0.185282
522.309020,0.174793
522.638720,0.175115
522.968380,0.176836
523.298000,0.175365
523.627580,0.174858
523.957120,0.177662
524.286620,0.174570
524.616080,0.173733
524.945500,0.171059
525.274880,0.172396
525.604220,0.175983
525.933520,0.168239
526.262780,0.169285
526.592000,0.170472
526.921180,0.174200
527.250320,0.167428
527.579420,0.171804
527.908480,0.167405
528.237500,0.167825
528.566480,0.168663
528.895420,0.167077
529.224320,0.172858
529.553180,0.170602
529.882000,0.171290
530.210780,0.169884
530.539520,0.165868
530.868220,0.168023
531.196880,0.167224
531.525500,0.172881
531.854080,0.161820
532.182620,0.163942
532.511120,0.166125
532.839580,0.164701
533.168000,0.164084
533.496380,0.167123
533.824720,0.163751
534.153020,0.164512
534.481280,0.162555
534.809500,0.162269
535.137680,0.162326
535.465820,0.163230
535.793920,0.162437
536.121980,0.161981
536.450000,0.164905
536.777980,0.164223
537.105920,0.161063
537.433820,0.157529
537.761680,0.162041
538.089500,0.157021
538.417280,0.157183
538.745020,0.164422
539.072720,0.155408
539.400380,0.154623
539.728000,0.158700
540.055580,0.156180
540.383120,0.159717
540.710620,0.154762
541.038080,0.156769
541.365500,0.154044
541.692880,0.155160
542.020220,0.154732
542.347520,0.159727
542.674780,0.152082
543.002000,0.150105
543.329180,0.156086
543.656320,0.159634
543.983420,0.151453
544.310480,0.150187
544.637500,0.152166
544.964480,0.148048
545.291420,0.152542
545.618320,0.154714
545.945180,0.151615
546.272000,0.152687
546.598780,0.153720
546.925520,0.151995
547.252220,0.151535
547.578880,0.155425
547.905500,0.147712
548.232080,0.149448
548.558620,0.150993
548.885120,0.151456
549.211580,0.147862
549.538000,0.144942
549.864380,0.148875
550.190720,0.145302
550.517020,0.147979
550.843280,0.147557
551.169500,0.141858
551.495680,0.148160
551.821820,0.145003
552.147920,0.145413
552.473980,0.142904
552.800000,0.144866
553.125980,0.145383
553.451920,0.142999
553.777820,0.145237
554.103680,0.146613
554.429500,0.144627
554.755280,0.142523
555.081020,0.144719
555.406720,0.144260
555.732380,0.141308
556.058000,0.141548
556.383580,0.144471
556.709120,0.145762
557.034620,0.148467
557.360080,0.140587
557.685500,0.142808
558.010880,0.144194
558.336220,0.140246
558.661520,0.146756
558.986780,0.141389
559.312000,0.139601
559.637180,0.138241
559.962320,0.140619
560.287420,0.140691
560.612480,0.142806
560.937500,0.145007
561.262480,0.140396
561.587420,0.139645
561.912320,0.141120
562.237180,0.136566
562.562000,0.143285
562.886780,0.140097
563.211520,0.137854
563.536220,0.143228
563.860880,0.136552
564.185500,0.142589
564.510080,0.141460
564.834620,0.138072
565.159120,0.139850
565.483580,0.136450
565.808000,0.142263
566.132380,0.140992
566.456720,0.137188
566.781020,0.142161
567.105280,0.135350
567.429500,0.137709
567.753680,0.143076
568.077820,0.138771
568.401920,0.138273
568.725980,0.147628
569.050000,0.141825
569.373980,0.138561
569.697920,0.138415
570.021820,0.140449
570.345680,0.137007
570.669500,0.138497
570.993280,0.137689
571.317020,0.140665
571.640720,0.138940
571.964380,0.139198
572.288000,0.140208
572.611580,0.145264
572.935120,0.137673
573.258620,0.140613
573.582080,0.137109
573.905500,0.138868
574.228880,0.140312
574.552220,0.136314
574.875520,0.141847
575.198780,0.138056
575.522000,0.137463
575.845180,0.135029
576.168320,0.136903
576.491420,0.141715
576.814480,0.139602
577.137500,0.141414
577.460480,0.140993
577.783420,0.136835
578.106320,0.138533
578.429180,0.139625
578.752000,0.137548
579.074780,0.137222
579.397520,0.141059
579.720220,0.141570
580.042880,0.141394
580.365500,0.137988
580.688080,0.143826
581.010620,0.141073
581.333120,0.142953
581.655580,0.141858
581.978000,0.140007
582.300380,0.144109
582.622720,0.138431
582.945020,0.141743
583.267280,0.141648
583.589500,0.138042
583.911680,0.139409
584.233820,0.138495
584.555920,0.143082
584.877980,0.141332
585.200000,0.142112
585.521980,0.148285
585.843920,0.143075
586.165820,0.141987
586.487680,0.141739
586.809500,0.139214
587.131280,0.142266
587.453020,0.145536
587.774720,0.140154
588.096380,0.143524
588.418000,0.144571
588.739580,0.143145
589.061120,0.142036
589.382620,0.139828
589.704080,0.141655
590.025500,0.146119
590.346880,0.143620
590.668220,0.138897
590.989520,0.142818
591.310780,0.143883
591.632000,0.145082
591.953180,0.146416
592.274320,0.145509
592.595420,0.139817
592.916480,0.139908
593.237500,0.145783
593.558480,0.145817
593.879420,0.145131
594.200320,0.146263
594.521180,0.145020
594.842000,0.147233
595.162780,0.145833
595.483520,0.144376
595.804220,0.149033
596.124880,0.145217
596.445500,0.146450
596.766080,0.147889
597.086620,0.147293
597.407120,0.141917
597.727580,0.144789
598.048000,0.151018
598.368380,0.144924
598.688720,0.147051
599.009020,0.149416
599.329280,0.149814
599.649500,0.148706
599.969680,0.149038
600.289820,0.149840
600.609920,0.149613
600.929980,0.149653
601.250000,0.148919
601.569980,0.145288
601.889920,0.150495
602.209820,0.147457
602.529680,0.156550
602.849500,0.150846
603.169280,0.150730
603.489020,0.153058
603.808720,0.152496
604.128380,0.152870
604.448000,0.151105
604.767580,0.151676
605.087120,0.149030
605.406620,0.149174
605.726080,0.154263
606.045500,0.146002
606.364880,0.155089
606.684220,0.150771
607.003520,0.149369
607.322780,0.151222
607.642000,0.154509
607.961180,0.151778
608.280320,0.156032
608.599420,0.152955
608.918480,0.155132
609.237500,0.154049
609.556480,0.155667
609.875420,0.151211
610.194320,0.156481
610.513180,0.155963
610.832000,0.155747
611.150780,0.161310
611.469520,0.160784
611.788220,0.157497
612.106880,0.159530
612.425500,0.157125
612.744080,0.160665
613.062620,0.159021
613.381120,0.156612
613.699580,0.159105
614.018000,0.160627
614.336380,0.156076
614.654720,0.164651
614.973020,0.160753
615.291280,0.162690
615.609500,0.162916
615.927680,0.157293
616.245820,0.158627
616.563920,0.162885
616.881980,0.161522
617.200000,0.158942
617.517980,0.163659
617.835920,0.159366
618.153820,0.165061
618.471680,0.165271
618.789500,0.163625
619.107280,0.164945
619.425020,0.165557
619.742720,0.166667
620.060380,0.165779
620.378000,0.167716
620.695580,0.169540
621.013120,0.160315
621.330620,0.170380
621.648080,0.166246
621.965500,0.168758
622.282880,0.168663
622.600220,0.165824
622.917520,0.170132
623.234780,0.171328
623.552000,0.171865
623.869180,0.172077
624.186320,0.173193
624.503420,0.173354
624.820480,0.174678
625.137500,0.172719
625.454480,0.173492
625.771420,0.176230
626.088320,0.170555
626.405180,0.177660
626.722000,0.176286
627.038780,0.173872
627.355520,0.178125
627.672220,0.174495
627.988880,0.178538
628.305500,0.177625
628.622080,0.177509
628.938620,0.176453
629.255120,0.177038
629.571580,0.175912
629.888000,0.175821
630.204380,0.179196
630.520720,0.179464
630.837020,0.179463
631.153280,0.177458
631.469500,0.187386
631.785680,0.182037
632.101820,0.179735
632.417920,0.179732
632.733980,0.177671
633.050000,0.186780
633.365980,0.181980
633.681920,0.184368
633.997820,0.182606
634.313680,0.181362
634.629500,0.183427
634.945280,0.183284
635.261020,0.186381
635.576720,0.183500
635.892380,0.187337
636.208000,0.195235
636.523580,0.187957
636.839120,0.189346
637.154620,0.188116
637.470080,0.188522
637.785500,0.190211
638.100880,0.188242
638.416220,0.191832
638.731520,0.191404
639.046780,0.192543
639.362000,0.190654
639.677180,0.194175
639.992320,0.192839
640.307420,0.190503
640.622480,0.189023
640.937500,0.195839
641.252480,0.194359
641.567420,0.200057
641.882320,0.195156
642.197180,0.190343
642.512000,0.198713
642.826780,0.195007
643.141520,0.197555
643.456220,0.197565
643.770880,0.196241
644.085500,0.203186
644.400080,0.200281
644.714620,0.200111
645.029120,0.201870
645.343580,0.199671
645.658000,0.198723
645.972380,0.199781
646.286720,0.203870
646.601020,0.205369
646.915280,0.203729
647.229500,0.205495
647.543680,0.205744
647.857820,0.204789
648.171920,0.207542
648.485980,0.206084
648.800000,0.204464
649.113980,0.208980
649.427920,0.206935
649.741820,0.203353
650.055680,0.209819
650.369500,0.208240
650.683280,0.209767
650.997020,0.209296
651.310720,0.209961
651.624380,0.212088
651.938000,0.211911
652.251580,0.211244
652.565120,0.207099
652.878620,0.213682
653.192080,0.210112
653.505500,0.209818
653.818880,0.212681
654.132220,0.219026
654.445520,0.215258
654.758780,0.212465
655.072000,0.220630
655.385180,0.218830
655.698320,0.213490
656.011420,0.215248
656.324480,0.215972
656.637500,0.214079
656.950480,0.221080
657.263420,0.221992
657.576320,0.218203
657.889180,0.217635
658.202000,0.217391
658.514780,0.220899
658.827520,0.221789
659.140220,0.218460
659.452880,0.221081
659.765500,0.222456
660.078080,0.222690
660.390620,0.218148
660.703120,0.220898
661.015580,0.223006
661.328000,0.221977
661.640380,0.227710
661.952720,0.225475
662.265020,0.228103
662.577280,0.224873
662.889500,0.224535
663.201680,0.231653
663.513820,0.226439
663.825920,0.227986
664.137980,0.233678
664.450000,0.225703
664.761980,0.228805
665.073920,0.232717
665.385820,0.231021
665.697680,0.229091
666.009500,0.232790
666.321280,0.235918
666.633020,0.233710
666.944720,0.238288
667.256380,0.230821
667.568000,0.236413
667.879580,0.234354
668.191120,0.236951
668.502620,0.235536
668.814080,0.237895
669.125500,0.235717
669.436880,0.238589
669.748220,0.240914
670.059520,0.241246
670.370780,0.238692
670.682000,0.238938
670.993180,0.238901
671.304320,0.238045
671.615420,0.239702
671.926480,0.240951
672.237500,0.236156
672.548480,0.241661
672.859420,0.241244
673.170320,0.245557
673.481180,0.246198
673.792000,0.240173
674.102780,0.242011
674.413520,0.246081
674.724220,0.246098
675.034880,0.247158
675.345500,0.247265
675.656080,0.245372
675.966620,0.248818
676.277120,0.254486
676.587580,0.252209
676.898000,0.253080
677.208380,0.251017
677.518720,0.248724
677.829020,0.254250
678.139280,0.257969
678.449500,0.252506
678.759680,0.249906
679.069820,0.253160
679.379920,0.261034
679.689980,0.257334
680.000000,0.255701
680.309980,0.260579
680.619920,0.255206
680.929820,0.256812
681.239680,0.257386
681.549500,0.253704
681.859280,0.260642
682.169020,0.260724
682.478720,0.267016
682.788380,0.259505
683.098000,0.267016
683.407580,0.265291
683.717120,0.263514
684.026620,0.264307
684.336080,0.266010
684.645500,0.263000
684.954880,0.258028
685.264220,0.263496
685.573520,0.267225
685.882780,0.271193
686.192000,0.265237
686.501180,0.264472
686.810320,0.268255
687.119420,0.272520
687.428480,0.270794
687.737500,0.268995
688.046480,0.268788
688.355420,0.269710
688.664320,0.269702
688.973180,0.278331
689.282000,0.276620
689.590780,0.278374
689.899520,0.279149
690.208220,0.272171
690.516880,0.279878
690.825500,0.275849
691.134080,0.273728
691.442620,0.282012
691.751120,0.279105
692.059580,0.281620
692.368000,0.276789
692.676380,0.278244
692.984720,0.272901
693.293020,0.276976
693.601280,0.278520
693.909500,0.283768
694.217680,0.276466
694.525820,0.289033
694.833920,0.283861
695.141980,0.285769
695.450000,0.291985
695.757980,0.286478
696.065920,0.281942
696.373820,0.281370
696.681680,0.285769
696.989500,0.293323
697.297280,0.283158
697.605020,0.293651
697.912720,0.285550
698.220380,0.288076
698.528000,0.289557
698.835580,0.293165
699.143120,0.285659
699.450620,0.292761
699.758080,0.287843
700.065500,0.301676
700.372880,0.301200
700.680220,0.282409
700.987520,0.303571
701.294780,0.298459
701.602000,0.296751
701.909180,0.296502
702.216320,0.297223
702.523420,0.302684
702.830480,0.305347
703.137500,0.292673
703.444480,0.299803
703.751420,0.306114
704.058320,0.303918
704.365180,0.301262
704.672000,0.304158
704.978780,0.304721
705.285520,0.301252
705.592220,0.299608
705.898880,0.303388
706.205500,0.304773
706.512080,0.304107
706.818620,0.304954
707.125120,0.307692
707.431580,0.309496
707.738000,0.312891
708.044380,0.306445
708.350720,0.311807
708.657020,0.308324
708.963280,0.314829
709.269500,0.308415
709.575680,0.312770
709.881820,0.309355
710.187920,0.312062
710.493980,0.315749
710.800000,0.315789
711.105980,0.311370
711.411920,0.313756
711.717820,0.317739
712.023680,0.311698
712.329500,0.315063
712.635280,0.317829
712.941020,0.317356
713.246720,0.323320
713.552380,0.318289
713.858000,0.319275
714.163580,0.318074
714.469120,0.323564
714.774620,0.319779
715.080080,0.322733
715.385500,0.322942
715.690880,0.319921
715.996220,0.317353
716.301520,0.327273
716.606780,0.329796
716.912000,0.327141
717.217180,0.332402
717.522320,0.327634
717.827420,0.326282
718.132480,0.325572
718.437500,0.326131
718.742480,0.328629
719.047420,0.328479
719.352320,0.335409
719.657180,0.332788
719.962000,0.326303
720.266780,0.330287
720.571520,0.340099
720.876220,0.336334
721.180880,0.328595
721.485500,0.333055
721.790080,0.330361
722.094620,0.342624
722.399120,0.333046
722.703580,0.336477
723.008000,0.337646
723.312380,0.339217
723.616720,0.338292
723.921020,0.333478
724.225280,0.335079
724.529500,0.330560
724.833680,0.340747
725.137820,0.344053
725.441920,0.341061
725.745980,0.349888
726.050000,0.344610
726.353980,0.337539
726.657920,0.340531
726.961820,0.331963
727.265680,0.343504
727.569500,0.342322
727.873280,0.338568
728.177020,0.342699
728.480720,0.343056
728.784380,0.346642
729.088000,0.341969
729.391580,0.350545
729.695120,0.349808
729.998620,0.346080
730.302080,0.352235
730.605500,0.352256
730.908880,0.343949
731.212220,0.353085
731.515520,0.348610
731.818780,0.346117
732.122000,0.365157
732.425180,0.351897
732.728320,0.347050
733.031420,0.352882
733.334480,0.360204
733.637500,0.349798
733.940480,0.352610
734.243420,0.352701
734.546320,0.358921
734.849180,0.351756
735.152000,0.352697
735.454780,0.350207
735.757520,0.358272
736.060220,0.354924
736.362880,0.360819
736.665500,0.354569
736.968080,0.365932
737.270620,0.372891
737.573120,0.368450
737.875580,0.366135
738.178000,0.361459
738.480380,0.361622
738.782720,0.353326
739.085020,0.360683
739.387280,0.358647
739.689500,0.365798
739.991680,0.370578
740.293820,0.365948
740.595920,0.367835
740.897980,0.370412
741.200000,0.366798
741.501980,0.363897
741.803920,0.355856
742.105820,0.370558
742.407680,0.367501
742.709500,0.365341
743.011280,0.369285
743.313020,0.370435
743.614720,0.363900
743.916380,0.362209
744.218000,0.366348
744.519580,0.381039
744.821120,0.386826
745.122620,0.366687
745.424080,0.368389
745.725500,0.376584
746.026880,0.369458
746.328220,0.371147
746.629520,0.373269
746.930780,0.375000
747.232000,0.381361
747.533180,0.382550
747.834320,0.382836
748.135420,0.373524
748.436480,0.378041
748.737500,0.379246
749.038480,0.372633
749.339420,0.387057
749.640320,0.391578
749.941180,0.382261
750.242000,0.378141
750.542780,0.387717
750.843520,0.391416
751.144220,0.391667
751.444880,0.391249
751.745500,0.374026
752.046080,0.388069
752.346620,0.391753
752.647120,0.384063
752.947580,0.392626
753.248000,0.393295
753.548380,0.390371
753.848720,0.381198
754.149020,0.381044
754.449280,0.396586
754.749500,0.385534
755.049680,0.382667
755.349820,0.388926
755.649920,0.397224
755.949980,0.383543
756.250000,0.394477
756.549980,0.386139
756.849920,0.399728
757.149820,0.387226
757.449680,0.392739
757.749500,0.401500
758.049280,0.400683
758.349020,0.390821
758.648720,0.401656
758.948380,0.391753
759.248000,0.402291
759.547580,0.396100
759.847120,0.398346
760.146620,0.399865
760.446080,0.401210
760.745500,0.392308
761.044880,0.398437
761.344220,0.404134
761.643520,0.396186
761.942780,0.410777
762.242000,0.400283
762.541180,0.398592
762.840320,0.410815
763.139420,0.402954
763.438480,0.395079
763.737500,0.404549
764.036480,0.403215
764.335420,0.412138
764.634320,0.411642
764.933180,0.408219
765.232000,0.411520
765.530780,0.408421
765.829520,0.414685
766.128220,0.405010
766.426880,0.414357
766.725500,0.410555
767.024080,0.410837
767.322620,0.412863
767.621120,0.416667
767.919580,0.404096
768.218000,0.407661
768.516380,0.415822
768.814720,0.410151
769.113020,0.418332
769.411280,0.422652
769.709500,0.428281
770.007680,0.419905
770.305820,0.423935
770.603920,0.415094
770.901980,0.422131
771.200000,0.414402
771.497980,0.410188
771.795920,0.423411
772.093820,0.410428
772.391680,0.422544
772.689500,0.430405
772.987280,0.431650
773.285020,0.419686
773.582720,0.427703
773.880380,0.432395
774.178000,0.421268
774.475580,0.433356
774.773120,0.421687
775.070620,0.428668
775.368080,0.433534
775.665500,0.412357
775.962880,0.424950
776.260220,0.432705
776.557520,0.431621
776.854780,0.429344
777.152000,0.446950
777.449180,0.439649
777.746320,0.417339
778.043420,0.432469
778.340480,0.434371
778.637500,0.437458
778.934480,0.427034
779.231420,0.428765
779.528320,0.426854
779.825180,0.428854
780.122000,0.434263
780.418780,0.447332
780.715520,0.429913
781.012220,0.453425
781.308880,0.442867
781.605500,0.442466
781.902080,0.437372
782.198620,0.449077
782.495120,0.447188
782.791580,0.442228
783.088000,0.441684
783.384380,0.450481
783.680720,0.440492
783.977020,0.431521
784.273280,0.442657
784.569500,0.443746
784.865680,0.450626
785.161820,0.432639
785.457920,0.441441
785.753980,0.448011
786.050000,0.441989
786.345980,0.443750
786.641920,0.440666
786.937820,0.451567
787.233680,0.445372
787.529500,0.441054
787.825280,0.450425
788.121020,0.447592
788.416720,0.446718
788.712380,0.444288
789.008000,0.439802
789.303580,0.454417
789.599120,0.448000
789.894620,0.458484
790.190080,0.451777
790.485500,0.452844
790.780880,0.441577
791.076220,0.453824
791.371520,0.456064
791.666780,0.461091
791.962000,0.458486
792.257180,0.454612
792.552320,0.465555
792.847420,0.448326
793.142480,0.451282
793.437500,0.455137
793.732480,0.459400
794.027420,0.458457
794.322320,0.457867
794.617180,0.464339
794.912000,0.461367
795.206780,0.465324
795.501520,0.466920
795.796220,0.465185
796.090880,0.464959
796.385500,0.461019
796.680080,0.460733
796.974620,0.457335
797.269120,0.451930
797.563580,0.456489
797.858000,0.467730
798.152380,0.470998
798.446720,0.467692
798.741020,0.465331
799.035280,0.458075
799.329500,0.465743
799.623680,0.459690
