399.985280,0.310811
400.329500,0.297297
400.673680,0.278481
401.017820,0.323529
401.361920,0.272727
401.705980,0.292683
402.050000,0.298701
402.393980,0.294118
402.737920,0.314607
403.081820,0.309278
403.425680,0.232558
403.769500,0.229167
404.113280,0.241379
404.457020,0.247191
404.800720,0.228261
405.144380,0.333333
405.488000,0.301075
405.831580,0.298969
406.175120,0.234043
406.518620,0.320000
406.862080,0.319588
407.205500,0.291667
407.548880,0.367347
407.892220,0.323529
408.235520,0.265957
408.578780,0.314286
408.922000,0.288462
409.265180,0.343434
409.608320,0.242424
409.951420,0.391753
410.294480,0.313725
410.637500,0.271739
410.980480,0.294118
411.323420,0.275510
411.666320,0.293578
412.009180,0.309091
412.352000,0.287129
412.694780,0.302752
413.037520,0.266055
413.380220,0.270270
413.722880,0.267857
414.065500,0.315315
414.408080,0.274336
414.750620,0.300885
415.093120,0.272727
415.435580,0.294118
415.778000,0.318182
416.120380,0.277311
416.462720,0.309524
416.805020,0.308271
417.147280,0.305970
417.489500,0.300000
417.831680,0.260274
418.173820,0.304965
418.515920,0.286713
418.857980,0.291139
419.200000,0.301282
419.541980,0.325444
419.883920,0.308989
420.225820,0.271676
420.567680,0.284916
420.909500,0.284153
421.251280,0.281250
421.593020,0.275510
421.934720,0.292929
422.276380,0.302564
422.618000,0.269608
422.959580,0.299020
423.301120,0.315068
423.642620,0.269565
423.984080,0.265116
424.325500,0.255605
424.666880,0.280172
425.008220,0.247899
425.349520,0.292373
425.690780,0.261538
426.032000,0.254902
426.373180,0.261411
426.714320,0.292969
427.055420,0.270270
427.396480,0.250936
427.737500,0.268775
428.078480,0.264822
428.419420,0.265060
428.760320,0.237548
429.101180,0.291339
429.442000,0.275862
429.782780,0.265385
430.123520,0.270588
430.464220,0.261993
430.804880,0.287356
431.145500,0.272727
431.486080,0.280899
431.826620,0.267442
432.167120,0.253676
432.507580,0.275362
432.848000,0.258993
433.188380,0.252708
433.528720,0.267925
433.869020,0.232143
434.209280,0.235088
434.549500,0.257840
434.889680,0.259259
435.229820,0.252560
435.569920,0.228374
435.909980,0.236246
436.250000,0.247458
436.589980,0.219814
436.929920,0.260317
437.269820,0.250784
437.609680,0.257396
437.949500,0.256024
438.289280,0.237960
438.629020,0.244186
438.968720,0.261628
439.308380,0.227642
439.648000,0.241096
439.987580,0.243386
440.327120,0.237333
440.666620,0.241558
441.006080,0.245524
441.345500,0.223587
441.684880,0.236842
442.024220,0.238213
442.363520,0.226190
442.702780,0.252273
443.042000,0.240088
443.381180,0.234914
443.720320,0.252700
444.059420,0.233193
444.398480,0.217573
444.737500,0.225410
445.076480,0.240079
445.415420,0.229541
445.754320,0.222453
446.093180,0.225688
446.432000,0.231203
446.770780,0.229602
447.109520,0.237132
447.448220,0.236136
447.786880,0.232558
448.125500,0.225862
448.464080,0.201786
448.802620,0.214539
449.141120,0.216263
449.479580,0.218531
449.818000,0.235800
450.156380,0.214047
450.494720,0.218182
450.833020,0.213287
451.171280,0.208904
451.509500,0.228223
451.847680,0.212479
452.185820,0.204819
452.523920,0.219931
452.861980,0.212479
453.200000,0.205980
453.537980,0.208403
453.875920,0.211765
454.213820,0.202055
454.551680,0.208609
454.889500,0.205734
455.227280,0.197509
455.565020,0.221106
455.902720,0.216306
456.240380,0.188020
456.578000,0.191638
456.915580,0.196891
457.253120,0.207237
457.590620,0.203612
457.928080,0.212121
458.265500,0.212838
458.602880,0.198052
458.940220,0.201354
459.277520,0.190400
459.614780,0.209493
459.952000,0.190994
460.289180,0.204114
460.626320,0.196850
460.963420,0.206785
461.300480,0.209480
461.637500,0.192604
461.974480,0.194190
462.311420,0.189270
462.648320,0.188873
462.985180,0.195122
463.322000,0.200893
463.658780,0.185083
463.995520,0.182944
464.332220,0.192521
464.668880,0.188172
465.005500,0.184987
465.342080,0.185659
465.678620,0.184502
466.015120,0.186287
466.351580,0.193426
466.688000,0.190012
467.024380,0.189550
467.360720,0.189773
467.697020,0.184510
468.033280,0.182222
468.369500,0.186534
468.705680,0.196167
469.041820,0.182292
469.377920,0.184382
469.713980,0.181256
470.050000,0.192271
470.385980,0.181996
470.721920,0.180215
471.057820,0.181287
471.393680,0.179607
471.729500,0.175162
472.065280,0.183363
472.401020,0.176418
472.736720,0.178010
473.072380,0.176840
473.408000,0.177546
473.743580,0.172145
474.079120,0.182601
474.414620,0.178117
474.750080,0.170057
475.085500,0.176809
475.420880,0.164030
475.756220,0.171709
476.091520,0.173061
476.426780,0.167476
476.762000,0.172969
477.097180,0.168800
477.432320,0.168013
477.767420,0.163399
478.102480,0.166929
478.437500,0.166667
478.772480,0.163909
479.107420,0.162734
479.442320,0.159073
479.777180,0.174224
480.112000,0.161787
480.446780,0.154326
480.781520,0.165862
481.116220,0.162490
481.450880,0.165496
481.785500,0.164557
482.120080,0.160658
482.454620,0.160062
482.789120,0.165605
483.123580,0.166667
483.458000,0.161392
483.792380,0.163738
484.126720,0.157529
484.461020,0.159251
484.795280,0.158828
485.129500,0.161341
485.463680,0.160465
485.797820,0.168740
486.131920,0.163734
486.465980,0.161390
486.800000,0.165649
487.133980,0.157100
487.467920,0.157613
487.801820,0.159420
488.135680,0.163002
488.469500,0.153555
488.803280,0.155275
489.137020,0.159707
489.470720,0.160237
489.804380,0.155160
490.138000,0.165430
490.471580,0.159175
490.805120,0.157970
491.138620,0.157072
491.472080,0.154770
491.805500,0.154114
492.138880,0.156359
492.472220,0.159862
492.805520,0.152235
493.138780,0.160579
493.472000,0.155853
493.805180,0.160300
494.138320,0.152769
494.471420,0.154948
494.804480,0.156533
495.137500,0.154044
495.470480,0.162524
495.803420,0.151134
496.136320,0.157268
496.469180,0.150399
496.802000,0.156479
497.134780,0.156458
497.467520,0.157187
497.800220,0.150354
498.132880,0.153439
498.465500,0.157010
498.798080,0.151826
499.130620,0.153285
499.463120,0.156092
499.795580,0.149615
500.128000,0.157493
500.460380,0.150700
500.792720,0.151113
501.125020,0.147136
501.457280,0.152480
501.789500,0.149793
502.121680,0.153966
502.453820,0.152983
502.785920,0.146573
503.117980,0.150638
503.450000,0.149674
503.781980,0.152466
504.113920,0.149360
504.445820,0.146816
504.777680,0.144000
505.109500,0.145192
505.441280,0.153920
505.773020,0.149836
506.104720,0.148846
506.436380,0.148131
506.768000,0.148269
507.099580,0.142792
507.431120,0.149415
507.762620,0.152256
508.094080,0.139927
508.425500,0.147526
508.756880,0.147234
509.088220,0.148114
509.419520,0.146648
509.750780,0.148079
510.082000,0.150187
510.413180,0.146476
510.744320,0.144501
511.075420,0.145738
511.406480,0.148566
511.737500,0.147222
512.068480,0.147556
512.399420,0.143192
512.730320,0.142725
513.061180,0.145576
513.392000,0.145764
513.722780,0.146013
514.053520,0.144705
514.384220,0.147479
514.714880,0.150311
515.045500,0.146552
515.376080,0.147700
515.706620,0.150999
516.037120,0.143137
516.367580,0.144406
516.698000,0.146078
517.028380,0.146971
517.358720,0.144691
517.689020,0.154797
518.019280,0.147015
518.349500,0.147998
518.679680,0.146896
519.009820,0.145749
519.339920,0.154309
519.669980,0.143646
520.000000,0.148242
520.329980,0.144635
520.659920,0.146217
520.989820,0.154283
521.319680,0.156893
521.649500,0.148072
521.979280,0.147704
522.309020,0.142635
522.638720,0.143369
522.968380,0.146846
523.298000,0.150313
523.627580,0.149509
523.957120,0.148571
524.286620,0.149557
524.616080,0.145812
524.945500,0.149871
525.274880,0.153412
525.604220,0.152692
525.933520,0.147275
526.262780,0.143943
526.592000,0.148148
526.921180,0.156425
527.250320,0.148656
527.579420,0.155129
527.908480,0.150665
528.237500,0.151440
528.566480,0.155689
528.895420,0.151306
529.224320,0.156513
529.553180,0.154699
529.882000,0.150852
530.210780,0.151062
530.539520,0.149089
530.868220,0.156056
531.196880,0.153846
531.525500,0.159322
531.854080,0.145872
532.182620,0.154134
532.511120,0.150812
532.839580,0.159710
533.168000,0.155424
533.496380,0.156621
533.824720,0.156124
534.153020,0.157379
534.481280,0.151982
534.809500,0.153914
535.137680,0.160156
535.465820,0.155498
535.793920,0.156091
536.121980,0.158624
536.450000,0.154334
536.777980,0.159615
537.105920,0.158572
537.433820,0.158756
537.761680,0.162041
538.089500,0.161878
538.417280,0.157581
538.745020,0.160856
539.072720,0.159703
539.400380,0.160062
539.728000,0.161377
540.055580,0.156554
540.383120,0.155622
540.710620,0.159598
541.038080,0.161195
541.365500,0.157353
541.692880,0.160610
542.020220,0.155811
542.347520,0.157933
542.674780,0.158433
543.002000,0.161652
543.329180,0.161698
543.656320,0.168776
543.983420,0.159316
544.310480,0.157322
544.637500,0.162743
544.964480,0.159489
545.291420,0.160518
545.618320,0.162351
545.945180,0.161833
546.272000,0.159240
546.598780,0.161586
546.925520,0.163205
547.252220,0.162100
547.578880,0.164223
547.905500,0.165686
548.232080,0.165042
548.558620,0.166938
548.885120,0.165195
549.211580,0.162006
549.538000,0.164397
549.864380,0.167203
550.190720,0.164030
550.517020,0.168188
550.843280,0.167427
551.169500,0.162850
551.495680,0.169514
551.821820,0.166884
552.147920,0.170137
552.473980,0.167600
552.800000,0.171681
553.125980,0.169286
553.451920,0.166888
553.777820,0.168221
554.103680,0.169869
554.429500,0.167727
554.755280,0.172563
555.081020,0.169786
555.406720,0.174738
555.732380,0.172823
556.058000,0.176511
556.383580,0.167066
556.709120,0.174363
557.034620,0.175336
557.360080,0.173057
557.685500,0.176003
558.010880,0.175390
558.336220,0.172232
558.661520,0.174761
558.986780,0.178242
559.312000,0.172365
559.637180,0.179174
559.962320,0.174795
560.287420,0.179478
560.612480,0.180122
560.937500,0.178414
561.262480,0.176320
561.587420,0.177004
561.912320,0.180545
562.237180,0.183198
562.562000,0.182566
562.886780,0.185061
563.211520,0.180700
563.536220,0.179592
563.860880,0.182573
564.185500,0.180113
564.510080,0.183220
564.834620,0.185337
565.159120,0.189474
565.483580,0.182440
565.808000,0.183882
566.132380,0.187244
566.456720,0.185563
566.781020,0.184921
567.105280,0.187902
567.429500,0.188543
567.753680,0.186038
568.077820,0.192114
568.401920,0.190985
568.725980,0.187476
569.050000,0.192015
569.373980,0.189951
569.697920,0.194160
570.021820,0.191386
570.345680,0.189055
570.669500,0.192293
570.993280,0.191584
571.317020,0.192547
571.640720,0.193034
571.964380,0.194135
572.288000,0.197700
572.611580,0.193560
572.935120,0.192667
573.258620,0.197831
573.582080,0.196349
573.905500,0.191735
574.228880,0.199703
574.552220,0.195676
574.875520,0.198064
575.198780,0.196964
575.522000,0.199413
575.845180,0.196633
576.168320,0.196910
576.491420,0.206759
576.814480,0.202532
577.137500,0.207792
577.460480,0.205872
577.783420,0.201858
578.106320,0.207977
578.429180,0.203959
578.752000,0.205974
579.074780,0.211059
579.397520,0.208844
579.720220,0.211712
580.042880,0.211761
580.365500,0.210788
580.688080,0.214043
581.010620,0.212960
581.333120,0.211423
581.655580,0.214452
581.978000,0.210509
582.300380,0.211620
582.622720,0.217535
582.945020,0.217490
583.267280,0.214262
583.589500,0.213483
583.911680,0.214036
584.233820,0.213094
584.555920,0.215569
584.877980,0.217965
585.200000,0.213014
585.521980,0.217485
585.843920,0.216290
586.165820,0.221207
586.487680,0.217574
586.809500,0.221122
587.131280,0.222419
587.453020,0.222619
587.774720,0.220580
588.096380,0.225496
588.418000,0.226807
588.739580,0.227077
589.061120,0.220817
589.382620,0.225788
589.704080,0.227770
590.025500,0.230594
590.346880,0.228780
590.668220,0.223467
590.989520,0.227676
591.310780,0.230047
591.632000,0.228415
591.953180,0.226128
592.274320,0.228228
592.595420,0.227909
592.916480,0.232546
593.237500,0.238750
593.558480,0.232984
593.879420,0.233882
594.200320,0.236807
594.521180,0.234794
594.842000,0.236701
595.162780,0.241186
595.483520,0.236639
595.804220,0.234157
596.124880,0.238742
596.445500,0.238145
596.766080,0.243883
597.086620,0.237792
597.407120,0.239863
597.727580,0.239459
598.048000,0.240413
598.368380,0.237244
598.688720,0.237221
599.009020,0.241773
599.329280,0.243747
599.649500,0.244057
599.969680,0.246528
600.289820,0.249199
600.609920,0.242319
600.929980,0.249599
601.250000,0.242432
601.569980,0.245747
601.889920,0.248062
602.209820,0.251082
602.529680,0.254051
602.849500,0.247681
603.169280,0.251584
603.489020,0.251038
603.808720,0.247943
604.128380,0.254691
604.448000,0.251934
604.767580,0.253073
605.087120,0.250970
605.406620,0.257207
605.726080,0.256059
606.045500,0.250209
606.364880,0.258860
606.684220,0.261850
607.003520,0.255447
607.322780,0.258954
607.642000,0.254739
607.961180,0.257589
608.280320,0.260441
608.599420,0.255214
608.918480,0.263343
609.237500,0.260857
609.556480,0.265167
609.875420,0.260189
610.194320,0.268084
610.513180,0.271678
610.832000,0.262656
611.150780,0.268850
611.469520,0.265460
611.788220,0.270859
612.106880,0.270808
612.425500,0.263094
612.744080,0.266851
613.062620,0.269725
613.381120,0.271176
613.699580,0.274065
614.018000,0.272727
614.336380,0.272671
614.654720,0.272558
614.973020,0.274915
615.291280,0.275798
615.609500,0.273534
615.927680,0.273795
616.245820,0.274273
616.563920,0.276655
616.881980,0.278142
617.200000,0.274028
617.517980,0.274424
617.835920,0.280522
618.153820,0.277588
618.471680,0.275969
618.789500,0.275645
619.107280,0.285759
619.425020,0.276245
619.742720,0.285311
620.060380,0.279223
620.378000,0.282253
620.695580,0.280971
621.013120,0.283465
621.330620,0.288359
621.648080,0.284858
621.965500,0.288896
622.282880,0.287831
622.600220,0.287745
622.917520,0.286704
623.234780,0.290582
623.552000,0.294080
623.869180,0.289631
624.186320,0.291945
624.503420,0.294044
624.820480,0.294691
625.137500,0.297127
625.454480,0.292591
625.771420,0.297919
626.088320,0.287201
626.405180,0.295893
626.722000,0.301757
627.038780,0.298246
627.355520,0.298438
627.672220,0.300778
627.988880,0.295801
628.305500,0.300093
628.622080,0.309480
628.938620,0.300306
629.255120,0.307405
629.571580,0.299724
629.888000,0.300399
630.204380,0.304695
630.520720,0.304083
630.837020,0.308356
631.153280,0.307554
631.469500,0.310188
631.785680,0.307715
632.101820,0.313329
632.417920,0.309091
632.733980,0.309424
633.050000,0.314433
633.365980,0.311203
633.681920,0.307876
633.997820,0.317095
634.313680,0.317311
634.629500,0.320554
634.945280,0.319355
635.261020,0.318756
635.576720,0.318849
635.892380,0.313680
636.208000,0.317548
636.523580,0.320374
636.839120,0.317603
637.154620,0.317971
637.470080,0.318221
637.785500,0.326495
638.100880,0.323776
638.416220,0.324418
638.731520,0.323209
639.046780,0.325663
639.362000,0.326261
639.677180,0.326956
639.992320,0.327883
640.307420,0.330711
640.622480,0.322879
640.937500,0.330097
641.252480,0.331751
641.567420,0.336459
641.882320,0.331013
642.197180,0.332398
642.512000,0.334173
642.826780,0.329542
643.141520,0.336760
643.456220,0.336746
643.770880,0.336097
644.085500,0.336501
644.400080,0.337921
644.714620,0.345039
645.029120,0.342134
645.343580,0.339550
645.658000,0.338329
645.972380,0.340367
646.286720,0.342328
646.601020,0.343759
646.915280,0.344667
647.229500,0.348901
647.543680,0.341618
647.857820,0.347647
648.171920,0.348345
648.485980,0.344478
648.800000,0.342519
649.113980,0.347007
649.427920,0.348128
649.741820,0.345974
650.055680,0.346681
650.369500,0.348935
650.683280,0.343785
650.997020,0.348735
651.310720,0.342323
651.624380,0.354121
651.938000,0.352355
652.251580,0.352073
652.565120,0.356903
652.878620,0.353604
653.192080,0.350843
653.505500,0.350631
653.818880,0.357123
654.132220,0.356878
654.445520,0.355927
654.758780,0.358074
655.072000,0.359026
655.385180,0.354922
655.698320,0.353530
656.011420,0.360848
656.324480,0.357913
656.637500,0.359212
656.950480,0.357311
657.263420,0.363287
657.576320,0.367032
657.889180,0.363315
658.202000,0.364734
658.514780,0.361417
658.827520,0.365846
659.140220,0.363800
659.452880,0.362428
659.765500,0.369657
660.078080,0.365333
660.390620,0.369691
660.703120,0.367553
661.015580,0.373926
661.328000,0.377204
661.640380,0.369991
661.952720,0.373404
662.265020,0.368620
662.577280,0.367048
662.889500,0.377799
663.201680,0.373006
663.513820,0.374075
663.825920,0.375280
664.137980,0.380414
664.450000,0.372442
664.761980,0.375777
665.073920,0.374554
665.385820,0.377291
665.697680,0.381157
666.009500,0.382774
666.321280,0.379722
666.633020,0.381981
666.944720,0.378160
667.256380,0.376851
667.568000,0.379755
667.879580,0.385714
668.191120,0.393201
668.502620,0.383430
668.814080,0.386667
669.125500,0.383852
669.436880,0.382434
669.748220,0.380755
670.059520,0.389006
670.370780,0.385873
670.682000,0.383009
670.993180,0.391121
671.304320,0.386779
671.615420,0.393466
671.926480,0.386444
672.237500,0.385852
672.548480,0.386444
672.859420,0.394568
673.170320,0.393906
673.481180,0.397176
673.792000,0.381536
674.102780,0.393896
674.413520,0.393365
674.724220,0.396370
675.034880,0.398240
675.345500,0.391320
675.656080,0.400363
675.966620,0.396872
676.277120,0.399487
676.587580,0.401694
676.898000,0.399029
677.208380,0.397043
677.518720,0.401167
677.829020,0.402809
678.139280,0.403262
678.449500,0.408095
678.759680,0.402773
679.069820,0.404089
679.379920,0.403998
679.689980,0.404382
680.000000,0.405607
680.309980,0.407201
680.619920,0.410072
680.929820,0.406495
681.239680,0.399557
681.549500,0.411852
681.859280,0.411875
682.169020,0.409549
682.478720,0.411369
682.788380,0.408269
683.098000,0.417352
683.407580,0.419512
683.717120,0.413664
684.026620,0.416792
684.336080,0.413414
684.645500,0.408904
684.954880,0.409898
685.264220,0.413741
685.573520,0.417587
685.882780,0.424626
686.192000,0.412716
686.501180,0.413167
686.810320,0.421983
687.119420,0.427594
687.428480,0.420053
687.737500,0.427475
688.046480,0.417178
688.355420,0.416069
688.664320,0.419281
688.973180,0.426110
689.282000,0.428241
689.590780,0.424080
689.899520,0.421193
690.208220,0.426223
690.516880,0.430699
690.825500,0.424528
691.134080,0.424829
691.442620,0.432927
691.751120,0.434585
692.059580,0.426825
692.368000,0.424460
692.676380,0.425954
692.984720,0.425573
693.293020,0.442249
693.601280,0.431896
693.909500,0.420734
694.217680,0.428027
694.525820,0.429931
694.833920,0.438764
695.141980,0.429233
695.450000,0.432061
695.757980,0.432391
696.065920,0.433010
696.373820,0.439184
696.681680,0.438051
696.989500,0.437283
697.297280,0.436017
697.605020,0.453175
697.912720,0.431591
698.220380,0.435262
698.528000,0.441060
698.835580,0.438957
699.143120,0.439595
699.450620,0.443516
699.758080,0.440000
700.065500,0.450918
700.372880,0.441200
700.680220,0.446350
700.987520,0.445238
701.294780,0.446067
701.602000,0.442552
701.909180,0.443561
702.216320,0.440360
702.523420,0.447908
702.830480,0.449901
703.137500,0.450896
703.444480,0.448915
703.751420,0.452465
704.058320,0.446775
704.365180,0.451498
704.672000,0.456634
704.978780,0.448693
705.285520,0.451095
705.592220,0.454902
705.898880,0.455871
706.205500,0.454225
706.512080,0.452607
706.818620,0.458978
707.125120,0.455385
707.431580,0.457210
707.738000,0.463672
708.044380,0.452721
708.350720,0.461597
708.657020,0.459945
708.963280,0.461568
709.269500,0.463014
709.575680,0.464047
709.881820,0.460299
710.187920,0.466537
710.493980,0.462374
710.800000,0.462243
711.105980,0.453313
711.411920,0.459992
711.717820,0.466277
712.023680,0.453945
712.329500,0.469243
712.635280,0.470543
712.941020,0.468110
713.246720,0.467194
713.552380,0.472920
713.858000,0.459204
714.163580,0.465667
714.469120,0.471278
714.774620,0.470983
715.080080,0.475461
715.385500,0.481615
715.690880,0.469822
715.996220,0.470681
716.301520,0.474308
716.606780,0.477987
716.912000,0.473344
717.217180,0.478851
717.522320,0.473956
717.827420,0.471928
718.132480,0.467684
718.437500,0.472890
718.742480,0.478629
719.047420,0.476133
719.352320,0.481943
719.657180,0.482011
719.962000,0.473532
720.266780,0.474034
720.571520,0.484673
720.876220,0.477905
721.180880,0.485786
721.485500,0.480150
721.790080,0.485350
722.094620,0.481132
722.399120,0.488583
722.703580,0.473210
723.008000,0.485985
723.312380,0.487301
723.616720,0.474713
723.921020,0.480728
724.225280,0.495201
724.529500,0.475044
724.833680,0.491548
725.137820,0.483700
725.441920,0.485065
725.745980,0.482327
726.050000,0.488047
726.353980,0.481298
726.657920,0.484031
726.961820,0.499087
727.265680,0.484975
727.569500,0.493601
727.873280,0.489607
728.177020,0.489636
728.480720,0.483796
728.784380,0.494598
729.088000,0.494112
729.391580,0.492658
729.695120,0.501919
729.998620,0.497132
730.302080,0.486785
730.605500,0.496846
730.908880,0.502695
731.212220,0.489716
731.515520,0.495368
731.818780,0.491748
732.122000,0.507382
732.425180,0.491375
732.728320,0.499256
733.031420,0.503759
733.334480,0.499490
733.637500,0.491935
733.940480,0.509212
734.243420,0.503568
734.546320,0.508817
734.849180,0.501033
735.152000,0.498444
735.454780,0.493285
735.757520,0.496839
736.060220,0.497104
736.362880,0.496324
736.665500,0.498172
736.968080,0.509404
737.270620,0.512248
737.573120,0.508188
737.875580,0.512919
738.178000,0.505171
738.480380,0.503243
738.782720,0.502181
739.085020,0.497797
739.387280,0.507761
739.689500,0.508494
739.991680,0.505334
740.293820,0.506910
740.595920,0.508069
740.897980,0.517222
741.200000,0.503085
741.501980,0.518052
741.803920,0.503941
742.105820,0.509306
742.407680,0.513104
742.709500,0.500000
743.011280,0.515240
743.313020,0.511304
743.614720,0.501451
743.916380,0.502907
744.218000,0.522673
744.519580,0.518720
744.821120,0.514371
745.122620,0.523068
745.424080,0.510216
745.725500,0.514182
746.026880,0.524015
746.328220,0.525277
746.629520,0.508128
746.930780,0.512255
747.232000,0.509503
747.533180,0.521660
747.834320,0.517955
748.135420,0.509633
748.436480,0.517779
748.737500,0.517603
749.038480,0.525962
749.339420,0.533914
749.640320,0.528598
749.941180,0.526546
750.242000,0.517588
750.542780,0.519231
750.843520,0.529148
751.144220,0.533333
751.444880,0.524413
751.745500,0.516883
752.046080,0.532393
752.346620,0.529639
752.647120,0.522534
752.947580,0.520052
753.248000,0.526757
753.548380,0.519844
753.848720,0.530586
754.149020,0.511283
754.449280,0.537754
754.749500,0.518912
755.049680,0.529333
755.349820,0.531021
755.649920,0.538665
755.949980,0.522230
756.250000,0.533202
756.549980,0.510891
756.849920,0.539089
757.149820,0.528277
757.449680,0.526733
757.749500,0.532379
758.049280,0.531058
758.349020,0.521558
758.648720,0.538992
758.948380,0.529897
759.248000,0.541105
759.547580,0.541358
759.847120,0.539628
760.146620,0.540595
760.446080,0.549059
760.745500,0.543357
761.044880,0.541903
761.344220,0.543835
761.643520,0.538136
761.942780,0.540938
762.242000,0.539604
762.541180,0.535915
762.840320,0.537219
763.139420,0.530239
763.438480,0.544771
763.737500,0.541695
764.036480,0.552760
764.335420,0.539167
764.634320,0.536383
764.933180,0.544521
765.232000,0.546842
765.530780,0.543158
765.829520,0.546154
766.128220,0.540014
766.426880,0.540156
766.725500,0.538040
767.024080,0.541838
767.322620,0.551867
767.621120,0.533875
767.919580,0.554266
768.218000,0.543092
768.516380,0.537525
768.814720,0.537723
769.113020,0.567884
769.411280,0.558702
769.709500,0.558187
770.007680,0.555556
770.305820,0.554429
770.603920,0.537062
770.901980,0.560792
771.200000,0.555707
771.497980,0.545576
771.795920,0.538462
772.093820,0.538102
772.391680,0.550428
772.689500,0.546622
772.987280,0.552189
773.285020,0.555707
773.582720,0.550000
773.880380,0.549760
774.178000,0.569870
774.475580,0.557267
774.773120,0.548862
775.070620,0.551048
775.368080,0.556446
775.665500,0.550034
775.962880,0.553035
776.260220,0.555855
776.557520,0.559039
776.854780,0.562542
777.152000,0.556366
777.449180,0.567094
777.746320,0.551075
778.043420,0.562756
778.340480,0.573748
778.637500,0.563218
778.934480,0.555481
779.231420,0.562415
779.528320,0.551102
779.825180,0.558630
780.122000,0.558433
780.418780,0.565663
780.715520,0.558685
781.012220,0.569863
781.308880,0.563218
781.605500,0.562329
781.902080,0.557153
782.198620,0.558442
782.495120,0.569273
782.791580,0.570839
783.088000,0.565908
783.384380,0.581155
783.680720,0.556772
783.977020,0.566414
784.273280,0.572727
784.569500,0.568134
784.865680,0.570932
785.161820,0.572917
785.457920,0.574498
785.753980,0.571528
786.050000,0.566298
786.345980,0.579861
786.641920,0.566273
786.937820,0.586182
787.233680,0.569937
787.529500,0.565187
787.825280,0.572238
788.121020,0.580028
788.416720,0.549753
788.712380,0.575458
789.008000,0.572946
789.303580,0.565371
789.599120,0.579636
789.894620,0.570397
790.190080,0.572879
790.485500,0.574514
790.780880,0.574194
791.076220,0.571429
791.371520,0.577342
791.666780,0.582545
791.962000,0.573843
792.257180,0.584919
792.552320,0.591008
792.847420,0.572052
793.142480,0.572894
793.437500,0.581042
793.732480,0.587418
794.027420,0.573442
794.322320,0.571216
794.617180,0.588410
794.912000,0.584695
795.206780,0.574944
795.501520,0.585551
795.796220,0.568889
796.090880,0.577242
796.385500,0.582459
796.680080,0.572177
796.974620,0.577844
797.269120,0.576836
797.563580,0.578626
797.858000,0.587699
798.152380,0.590101
798.446720,0.593846
798.741020,0.593991
799.035280,0.582298
799.329500,0.591224
799.623680,0.582946
