399.985280,0.310811
400.329500,0.297297
400.673680,0.240506
401.017820,0.308824
401.361920,0.257576
401.705980,0.292683
402.050000,0.285714
402.393980,0.317647
402.737920,0.314607
403.081820,0.288660
403.425680,0.279070
403.769500,0.250000
404.113280,0.241379
404.457020,0.325843
404.800720,0.282609
405.144380,0.262626
405.488000,0.333333
405.831580,0.268041
406.175120,0.265957
406.518620,0.300000
406.862080,0.278351
407.205500,0.291667
407.548880,0.295918
407.892220,0.274510
408.235520,0.297872
408.578780,0.323810
408.922000,0.250000
409.265180,0.282828
409.608320,0.313131
409.951420,0.340206
410.294480,0.294118
410.637500,0.293478
410.980480,0.245098
411.323420,0.285714
411.666320,0.275229
412.009180,0.345455
412.352000,0.217822
412.694780,0.311927
413.037520,0.192661
413.380220,0.306306
413.722880,0.330357
414.065500,0.288288
414.408080,0.265487
414.750620,0.283186
415.093120,0.280992
415.435580,0.336134
415.778000,0.287879
416.120380,0.294118
416.462720,0.277778
416.805020,0.285714
417.147280,0.261194
417.489500,0.257143
417.831680,0.267123
418.173820,0.255319
418.515920,0.272727
418.857980,0.253165
419.200000,0.237179
419.541980,0.236686
419.883920,0.247191
420.225820,0.265896
420.567680,0.268156
420.909500,0.278689
421.251280,0.255208
421.593020,0.275510
421.934720,0.262626
422.276380,0.271795
422.618000,0.254902
422.959580,0.264706
423.301120,0.296804
423.642620,0.243478
423.984080,0.246512
424.325500,0.251121
424.666880,0.275862
425.008220,0.235294
425.349520,0.262712
425.690780,0.238462
426.032000,0.231373
426.373180,0.244813
426.714320,0.261719
427.055420,0.243243
427.396480,0.243446
427.737500,0.233202
428.078480,0.249012
428.419420,0.216867
428.760320,0.245211
429.101180,0.240157
429.442000,0.241379
429.782780,0.234615
430.123520,0.270588
430.464220,0.236162
430.804880,0.256705
431.145500,0.243636
431.486080,0.247191
431.826620,0.259690
432.167120,0.231618
432.507580,0.271739
432.848000,0.241007
433.188380,0.241877
433.528720,0.237736
433.869020,0.235714
434.209280,0.221053
434.549500,0.261324
434.889680,0.242424
435.229820,0.238908
435.569920,0.235294
435.909980,0.242718
436.250000,0.213559
436.589980,0.201238
436.929920,0.234921
437.269820,0.219436
437.609680,0.230769
437.949500,0.228916
438.289280,0.243626
438.629020,0.235465
438.968720,0.220930
439.308380,0.219512
439.648000,0.227397
439.987580,0.232804
440.327120,0.237333
440.666620,0.205195
441.006080,0.232737
441.345500,0.226044
441.684880,0.208134
442.024220,0.210918
442.363520,0.230952
442.702780,0.213636
443.042000,0.207048
443.381180,0.213362
443.720320,0.224622
444.059420,0.222689
444.398480,0.209205
444.737500,0.211066
445.076480,0.198413
445.415420,0.205589
445.754320,0.205821
446.093180,0.214679
446.432000,0.214286
446.770780,0.208729
447.109520,0.213235
447.448220,0.214669
447.786880,0.209302
448.125500,0.213793
448.464080,0.212500
448.802620,0.195035
449.141120,0.205882
449.479580,0.197552
449.818000,0.196213
450.156380,0.205686
450.494720,0.203306
450.833020,0.192308
451.171280,0.188356
451.509500,0.202091
451.847680,0.209106
452.185820,0.208262
452.523920,0.207904
452.861980,0.200675
453.200000,0.189369
453.537980,0.184874
453.875920,0.205042
454.213820,0.191781
454.551680,0.200331
454.889500,0.183811
455.227280,0.170819
455.565020,0.189280
455.902720,0.194676
456.240380,0.183028
456.578000,0.198606
456.915580,0.193437
457.253120,0.177632
457.590620,0.197044
457.928080,0.196970
458.265500,0.185811
458.602880,0.191558
458.940220,0.169205
459.277520,0.184000
459.614780,0.193126
459.952000,0.178571
460.289180,0.186709
460.626320,0.184252
460.963420,0.174475
461.300480,0.180428
461.637500,0.178737
461.974480,0.180428
462.311420,0.180328
462.648320,0.181552
462.985180,0.176471
463.322000,0.175595
463.658780,0.179558
463.995520,0.174691
464.332220,0.182825
464.668880,0.177419
465.005500,0.189008
465.342080,0.180538
465.678620,0.179582
466.015120,0.181113
466.351580,0.184576
466.688000,0.179050
467.024380,0.171324
467.360720,0.169318
467.697020,0.165148
468.033280,0.174444
468.369500,0.178808
468.705680,0.178129
469.041820,0.168750
469.377920,0.164859
469.713980,0.169928
470.050000,0.174879
470.385980,0.181996
470.721920,0.172380
471.057820,0.172515
471.393680,0.164640
471.729500,0.170528
472.065280,0.171735
472.401020,0.164007
472.736720,0.169284
473.072380,0.168761
473.408000,0.163621
473.743580,0.158304
474.079120,0.172265
474.414620,0.155216
474.750080,0.163548
475.085500,0.158717
475.420880,0.159867
475.756220,0.166803
476.091520,0.161125
476.426780,0.156149
476.762000,0.156879
477.097180,0.161600
477.432320,0.160743
477.767420,0.156863
478.102480,0.161417
478.437500,0.167488
478.772480,0.151300
479.107420,0.158666
479.442320,0.163070
479.777180,0.164678
480.112000,0.157935
480.446780,0.149649
480.781520,0.158615
481.116220,0.163298
481.450880,0.150664
481.785500,0.165348
482.120080,0.159875
482.454620,0.159285
482.789120,0.152866
483.123580,0.158879
483.458000,0.155063
483.792380,0.154153
484.126720,0.158301
484.461020,0.158470
484.795280,0.160370
485.129500,0.159002
485.463680,0.149612
485.797820,0.160964
486.131920,0.147666
486.465980,0.162934
486.800000,0.148855
487.133980,0.151813
487.467920,0.153787
487.801820,0.154081
488.135680,0.153146
488.469500,0.157337
488.803280,0.159733
489.137020,0.150183
489.470720,0.146884
489.804380,0.156644
490.138000,0.158012
490.471580,0.154016
490.805120,0.152966
491.138620,0.149964
491.472080,0.150530
491.805500,0.154114
492.138880,0.158443
492.472220,0.153633
492.805520,0.155726
493.138780,0.157133
493.472000,0.152508
493.805180,0.157572
494.138320,0.153436
494.471420,0.151042
494.804480,0.152005
495.137500,0.150193
495.470480,0.156150
495.803420,0.149244
496.136320,0.150376
496.469180,0.144874
496.802000,0.151589
497.134780,0.152213
497.467520,0.157187
497.800220,0.147406
498.132880,0.148148
498.465500,0.150637
498.798080,0.154110
499.130620,0.150477
499.463120,0.149916
499.795580,0.150715
500.128000,0.147684
500.460380,0.149085
500.792720,0.155355
501.125020,0.145560
501.457280,0.147258
501.789500,0.153409
502.121680,0.150855
502.453820,0.149924
502.785920,0.144572
503.117980,0.153582
503.450000,0.154194
503.781980,0.152965
504.113920,0.144144
504.445820,0.150219
504.777680,0.146353
505.109500,0.148558
505.441280,0.154876
505.773020,0.147017
506.104720,0.147904
506.436380,0.151443
506.768000,0.149205
507.099580,0.152860
507.431120,0.150351
507.762620,0.146147
508.094080,0.150410
508.425500,0.149860
508.756880,0.155921
509.088220,0.149954
509.419520,0.149907
509.750780,0.143393
510.082000,0.150653
510.413180,0.150161
510.744320,0.150023
511.075420,0.146654
511.406480,0.149506
511.737500,0.150000
512.068480,0.150846
512.399420,0.148826
512.730320,0.149654
513.061180,0.152712
513.392000,0.143871
513.722780,0.150817
514.053520,0.152851
514.384220,0.153187
514.714880,0.151269
515.045500,0.146073
515.376080,0.150121
515.706620,0.152947
516.037120,0.150490
516.367580,0.152785
516.698000,0.147549
517.028380,0.151936
517.358720,0.146173
517.689020,0.149357
518.019280,0.152032
518.349500,0.156614
518.679680,0.150934
519.009820,0.153340
519.339920,0.157816
519.669980,0.155198
520.000000,0.153337
520.329980,0.148782
520.659920,0.147239
520.989820,0.152219
521.319680,0.155864
521.649500,0.148072
521.979280,0.155010
522.309020,0.148859
522.638720,0.152074
522.968380,0.155636
523.298000,0.151357
523.627580,0.162959
523.957120,0.154286
524.286620,0.159458
524.616080,0.157704
524.945500,0.158656
525.274880,0.162134
525.604220,0.152692
525.933520,0.160901
526.262780,0.155094
526.592000,0.159817
526.921180,0.160995
527.250320,0.156773
527.579420,0.153613
527.908480,0.161989
528.237500,0.160874
528.566480,0.162176
528.895420,0.155249
529.224320,0.163447
529.553180,0.159036
529.882000,0.161071
530.210780,0.157819
530.539520,0.161074
530.868220,0.162757
531.196880,0.156713
531.525500,0.166586
531.854080,0.157129
532.182620,0.159738
532.511120,0.165661
532.839580,0.164247
533.168000,0.163628
533.496380,0.161644
533.824720,0.162853
534.153020,0.164512
534.481280,0.162996
534.809500,0.165347
535.137680,0.170573
535.465820,0.165808
535.793920,0.161168
536.121980,0.161561
536.450000,0.166596
536.777980,0.169669
537.105920,0.166459
537.433820,0.173486
537.761680,0.168163
538.089500,0.169972
538.417280,0.167131
538.745020,0.171157
539.072720,0.169856
539.400380,0.164336
539.728000,0.173614
540.055580,0.168914
540.383120,0.175354
540.710620,0.171503
541.038080,0.171523
541.365500,0.171324
541.692880,0.169695
542.020220,0.170565
542.347520,0.172290
542.674780,0.168313
543.002000,0.174248
543.329180,0.176079
543.656320,0.175809
543.983420,0.170256
544.310480,0.171254
544.637500,0.178779
544.964480,0.175303
545.291420,0.177800
545.618320,0.175963
545.945180,0.175016
546.272000,0.171035
546.598780,0.173386
546.925520,0.179031
547.252220,0.173985
547.578880,0.179537
547.905500,0.176797
548.232080,0.177063
548.558620,0.181256
548.885120,0.174027
549.211580,0.179685
549.538000,0.182555
549.864380,0.177814
550.190720,0.178560
550.517020,0.179596
550.843280,0.179479
551.169500,0.180662
551.495680,0.181669
551.821820,0.181581
552.147920,0.182498
552.473980,0.185380
552.800000,0.180510
553.125980,0.184348
553.451920,0.189449
553.777820,0.186875
554.103680,0.185709
554.429500,0.183796
554.755280,0.183912
555.081020,0.182487
555.406720,0.188622
555.732380,0.191122
556.058000,0.187033
556.383580,0.186238
556.709120,0.189524
557.034620,0.196349
557.360080,0.188256
557.685500,0.190871
558.010880,0.187175
558.336220,0.186292
558.661520,0.191421
558.986780,0.194543
559.312000,0.190171
559.637180,0.195691
559.962320,0.192951
560.287420,0.197109
560.612480,0.192321
560.937500,0.194567
561.262480,0.198314
561.587420,0.194777
561.912320,0.196021
562.237180,0.192450
562.562000,0.194912
562.886780,0.195095
563.211520,0.196349
563.536220,0.200000
563.860880,0.196530
564.185500,0.198499
564.510080,0.200527
564.834620,0.200223
565.159120,0.198872
565.483580,0.198784
565.808000,0.199773
566.132380,0.202909
566.456720,0.201436
566.781020,0.204426
567.105280,0.203403
567.429500,0.204856
567.753680,0.207518
568.077820,0.202938
568.401920,0.211612
568.725980,0.207970
569.050000,0.209125
569.373980,0.211268
569.697920,0.207812
570.021820,0.211236
570.345680,0.210869
570.669500,0.206410
570.993280,0.210779
571.317020,0.210449
571.640720,0.218229
571.964380,0.210097
572.288000,0.214392
572.611580,0.219768
572.935120,0.217359
573.258620,0.210172
573.582080,0.217958
573.905500,0.211467
574.228880,0.222346
574.552220,0.220227
574.875520,0.215934
575.198780,0.216841
575.522000,0.221774
575.845180,0.220630
576.168320,0.220266
576.491420,0.225654
576.814480,0.226401
577.137500,0.226912
577.460480,0.223994
577.783420,0.223651
578.106320,0.225427
578.429180,0.224107
578.752000,0.229246
579.074780,0.225556
579.397520,0.225952
579.720220,0.227799
580.042880,0.227948
580.365500,0.227664
580.688080,0.231343
581.010620,0.226460
581.333120,0.232799
581.655580,0.233766
581.978000,0.236116
582.300380,0.231094
582.622720,0.235662
582.945020,0.236996
583.267280,0.236731
583.589500,0.233066
583.911680,0.237218
584.233820,0.237016
584.555920,0.237000
584.877980,0.237437
585.200000,0.235421
585.521980,0.235403
585.843920,0.238560
586.165820,0.237965
586.487680,0.236834
586.809500,0.239724
587.131280,0.242532
587.453020,0.242857
587.774720,0.245121
588.096380,0.242999
588.418000,0.245830
588.739580,0.247197
589.061120,0.243243
589.382620,0.248424
589.704080,0.246283
590.025500,0.247717
590.346880,0.251827
590.668220,0.249790
590.989520,0.248752
591.310780,0.249931
591.632000,0.255191
591.953180,0.252975
592.274320,0.251160
592.595420,0.248384
592.916480,0.256724
593.237500,0.265158
593.558480,0.256121
593.879420,0.257081
594.200320,0.257969
594.521180,0.258433
594.842000,0.259807
595.162780,0.256944
595.483520,0.258442
595.804220,0.256445
596.124880,0.263523
596.445500,0.258318
596.766080,0.268621
597.086620,0.265658
597.407120,0.260927
597.727580,0.263591
598.048000,0.264480
598.368380,0.263282
598.688720,0.264744
599.009020,0.267251
599.329280,0.270090
599.649500,0.263867
599.969680,0.268162
600.289820,0.269765
600.609920,0.267700
600.929980,0.266970
601.250000,0.272703
601.569980,0.275722
601.889920,0.271852
602.209820,0.269481
602.529680,0.277122
602.849500,0.273868
603.169280,0.275834
603.489020,0.277055
603.808720,0.274822
604.128380,0.279525
604.448000,0.273204
604.767580,0.280168
605.087120,0.276454
605.406620,0.273440
605.726080,0.279726
606.045500,0.283087
606.364880,0.280408
606.684220,0.280126
607.003520,0.287844
607.322780,0.280557
607.642000,0.283745
607.961180,0.282452
608.280320,0.282483
608.599420,0.279838
608.918480,0.288856
609.237500,0.291667
609.556480,0.291506
609.875420,0.290904
610.194320,0.287275
610.513180,0.290619
610.832000,0.293329
611.150780,0.294983
611.469520,0.287481
611.788220,0.292019
612.106880,0.284077
612.425500,0.294458
612.744080,0.297014
613.062620,0.290214
613.381120,0.293723
613.699580,0.292152
614.018000,0.295762
614.336380,0.295188
614.654720,0.296434
614.973020,0.299290
615.291280,0.304307
615.609500,0.304913
615.927680,0.301298
616.245820,0.299320
616.563920,0.297171
616.881980,0.298410
617.200000,0.308554
617.517980,0.302427
617.835920,0.305685
618.153820,0.302145
618.471680,0.299845
618.789500,0.310573
619.107280,0.307981
619.425020,0.309864
619.742720,0.307910
620.060380,0.304607
620.378000,0.310573
620.695580,0.304598
621.013120,0.308976
621.330620,0.316912
621.648080,0.309148
621.965500,0.313990
622.282880,0.314313
622.600220,0.313013
622.917520,0.316635
623.234780,0.320476
623.552000,0.318905
623.869180,0.311062
624.186320,0.317415
624.503420,0.319749
624.820480,0.321081
625.137500,0.322387
625.454480,0.319475
625.771420,0.311791
626.088320,0.319987
626.405180,0.320473
626.722000,0.324655
627.038780,0.323622
627.355520,0.317188
627.672220,0.325661
627.988880,0.328149
628.305500,0.327828
628.622080,0.327447
628.938620,0.325994
629.255120,0.327940
629.571580,0.327306
629.888000,0.325867
630.204380,0.333231
630.520720,0.327544
630.837020,0.336109
631.153280,0.331235
631.469500,0.332929
631.785680,0.340265
632.101820,0.334138
632.417920,0.334724
632.733980,0.334934
633.050000,0.342025
633.365980,0.336989
633.681920,0.337709
633.997820,0.339809
634.313680,0.340902
634.629500,0.345031
634.945280,0.346921
635.261020,0.348107
635.576720,0.346154
635.892380,0.341272
636.208000,0.345148
636.523580,0.345513
636.839120,0.341922
637.154620,0.352754
637.470080,0.343185
637.785500,0.348476
638.100880,0.351289
638.416220,0.353178
638.731520,0.352436
639.046780,0.351588
639.362000,0.348624
639.677180,0.348943
639.992320,0.350437
640.307420,0.352065
640.622480,0.353962
640.937500,0.361165
641.252480,0.358001
641.567420,0.364024
641.882320,0.355234
642.197180,0.360191
642.512000,0.359362
642.826780,0.356449
643.141520,0.360378
643.456220,0.363309
643.770880,0.365395
644.085500,0.361375
644.400080,0.366573
644.714620,0.368172
645.029120,0.368812
645.343580,0.369446
645.658000,0.367749
645.972380,0.367772
646.286720,0.368765
646.601020,0.371713
646.915280,0.368796
647.229500,0.374725
647.543680,0.370064
647.857820,0.369942
648.171920,0.374932
648.485980,0.373253
648.800000,0.369248
649.113980,0.379435
649.427920,0.375312
649.741820,0.372355
650.055680,0.374383
650.369500,0.377242
650.683280,0.367370
650.997020,0.377063
651.310720,0.374518
651.624380,0.369231
651.938000,0.378670
652.251580,0.382967
652.565120,0.377585
652.878620,0.389640
653.192080,0.385393
653.505500,0.373913
653.818880,0.394655
654.132220,0.380234
654.445520,0.380885
654.758780,0.381870
655.072000,0.385100
655.385180,0.378317
655.698320,0.380966
656.011420,0.379478
656.324480,0.386185
656.637500,0.381518
656.950480,0.393423
657.263420,0.394620
657.576320,0.388971
657.889180,0.387791
658.202000,0.390399
658.514780,0.396547
658.827520,0.395858
659.140220,0.388073
659.452880,0.393839
659.765500,0.390126
660.078080,0.387902
660.390620,0.389245
660.703120,0.395050
661.015580,0.395092
661.328000,0.402393
661.640380,0.397950
661.952720,0.399253
662.265020,0.396975
662.577280,0.393766
662.889500,0.393882
663.201680,0.399170
663.513820,0.396269
663.825920,0.394492
664.137980,0.397867
664.450000,0.398338
664.761980,0.405565
665.073920,0.403440
665.385820,0.405105
665.697680,0.407934
666.009500,0.409378
666.321280,0.405567
666.633020,0.404920
666.944720,0.406471
667.256380,0.405787
667.568000,0.408967
667.879580,0.411905
668.191120,0.412431
668.502620,0.410476
668.814080,0.415439
669.125500,0.412590
669.436880,0.407676
669.748220,0.409138
670.059520,0.410714
670.370780,0.411621
670.682000,0.413805
670.993180,0.419309
671.304320,0.421238
671.615420,0.413707
671.926480,0.418737
672.237500,0.410861
672.548480,0.415898
672.859420,0.412795
673.170320,0.407690
673.481180,0.428313
673.792000,0.421926
674.102780,0.416517
674.413520,0.421436
674.724220,0.417423
675.034880,0.427209
675.345500,0.425602
675.656080,0.421779
675.966620,0.419789
676.277120,0.423288
676.587580,0.428203
676.898000,0.426278
677.208380,0.432902
677.518720,0.420861
677.829020,0.424612
678.139280,0.432913
678.449500,0.435202
678.759680,0.430498
679.069820,0.420074
679.379920,0.430404
679.689980,0.432232
680.000000,0.425421
680.309980,0.430215
680.619920,0.440363
680.929820,0.434864
681.239680,0.429099
681.549500,0.434074
681.859280,0.435400
682.169020,0.440134
682.478720,0.447644
682.788380,0.434109
683.098000,0.437921
683.407580,0.437899
683.717120,0.439565
684.026620,0.440136
684.336080,0.435392
684.645500,0.427609
684.954880,0.438988
685.264220,0.440921
685.573520,0.437000
685.882780,0.447257
686.192000,0.443943
686.501180,0.447976
686.810320,0.449654
687.119420,0.447739
687.428480,0.449297
687.737500,0.450115
688.046480,0.444018
688.355420,0.445115
688.664320,0.445295
688.973180,0.447933
689.282000,0.455633
689.590780,0.452837
689.899520,0.444740
690.208220,0.449924
690.516880,0.450554
690.825500,0.458113
691.134080,0.453683
691.442620,0.458460
691.751120,0.458855
692.059580,0.461597
692.368000,0.449830
692.676380,0.455344
692.984720,0.455344
693.293020,0.453647
693.601280,0.453644
693.909500,0.463110
694.217680,0.450876
694.525820,0.462300
694.833920,0.454025
695.141980,0.454300
695.450000,0.464122
695.757980,0.459129
696.065920,0.466019
696.373820,0.457660
696.681680,0.456847
696.989500,0.461212
697.297280,0.462077
697.605020,0.466667
697.912720,0.456188
698.220380,0.456120
698.528000,0.470332
698.835580,0.466614
699.143120,0.462977
699.450620,0.467383
699.758080,0.463922
700.065500,0.460894
700.372880,0.472000
700.680220,0.466693
700.987520,0.472619
701.294780,0.472830
701.602000,0.474247
701.909180,0.472973
702.216320,0.466953
702.523420,0.470797
702.830480,0.478812
703.137500,0.471161
703.444480,0.471795
703.751420,0.479684
704.058320,0.476850
704.365180,0.470820
704.672000,0.479604
704.978780,0.475224
705.285520,0.470266
705.592220,0.474902
705.898880,0.474389
706.205500,0.475743
706.512080,0.481043
706.818620,0.475232
707.125120,0.485000
707.431580,0.487691
707.738000,0.488672
708.044380,0.479738
708.350720,0.480321
708.657020,0.480657
708.963280,0.483696
709.269500,0.487280
709.575680,0.485265
709.881820,0.483097
710.187920,0.491440
710.493980,0.484484
710.800000,0.488940
711.105980,0.478916
711.411920,0.482460
711.717820,0.482261
712.023680,0.484648
712.329500,0.496845
712.635280,0.496899
712.941020,0.488597
713.246720,0.488933
713.552380,0.488226
713.858000,0.487190
714.163580,0.490923
714.469120,0.485737
714.774620,0.489538
715.080080,0.490773
715.385500,0.500400
715.690880,0.493491
715.996220,0.493661
716.301520,0.502767
716.606780,0.497248
716.912000,0.503635
717.217180,0.505587
717.522320,0.497018
717.827420,0.500000
718.132480,0.503814
718.437500,0.503057
718.742480,0.499597
719.047420,0.504045
719.352320,0.510170
719.657180,0.505315
719.962000,0.502481
720.266780,0.511425
720.571520,0.500000
720.876220,0.501637
721.180880,0.499164
721.485500,0.506895
721.790080,0.505308
722.094620,0.507719
722.399120,0.510556
722.703580,0.501500
723.008000,0.510565
723.312380,0.506242
723.616720,0.505737
723.921020,0.504114
724.225280,0.509599
724.529500,0.509194
724.833680,0.507562
725.137820,0.508811
725.441920,0.500223
725.745980,0.513647
726.050000,0.519170
726.353980,0.510140
726.657920,0.510571
726.961820,0.511872
727.265680,0.513176
727.569500,0.510512
727.873280,0.509469
728.177020,0.512667
728.480720,0.518056
728.784380,0.514796
729.088000,0.520961
729.391580,0.513501
729.695120,0.513436
729.998620,0.522467
730.302080,0.519942
730.605500,0.517225
730.908880,0.519353
731.212220,0.521058
731.515520,0.514383
731.818780,0.522330
732.122000,0.519685
732.425180,0.511582
732.728320,0.521567
733.031420,0.515288
733.334480,0.533163
733.637500,0.513105
733.940480,0.522006
734.243420,0.524975
734.546320,0.529046
734.849180,0.514979
735.152000,0.528008
735.454780,0.523760
735.757520,0.520021
736.060220,0.530806
736.362880,0.529937
736.665500,0.512272
736.968080,0.521762
737.270620,0.529668
737.573120,0.523472
737.875580,0.540407
738.178000,0.526402
738.480380,0.524324
738.782720,0.519629
739.085020,0.512115
739.387280,0.531596
739.689500,0.532843
739.991680,0.528355
740.293820,0.527916
740.595920,0.535337
740.897980,0.520045
741.200000,0.536175
741.501980,0.535817
741.803920,0.519707
742.105820,0.529611
742.407680,0.543390
742.709500,0.527841
743.011280,0.528722
743.313020,0.533333
743.614720,0.532211
743.916380,0.526744
744.218000,0.528043
744.519580,0.536836
744.821120,0.540120
745.122620,0.534452
745.424080,0.531250
745.725500,0.540133
746.026880,0.546798
746.328220,0.538841
746.629520,0.529801
746.930780,0.534926
747.232000,0.537094
747.533180,0.538133
747.834320,0.541083
748.135420,0.539466
748.436480,0.535246
748.737500,0.533663
749.038480,0.544899
749.339420,0.543871
749.640320,0.538026
749.941180,0.549032
750.242000,0.540829
750.542780,0.545285
750.843520,0.546445
751.144220,0.545513
751.444880,0.543437
751.745500,0.538961
752.046080,0.556767
752.346620,0.538660
752.647120,0.549314
752.947580,0.545278
753.248000,0.553191
753.548380,0.546519
753.848720,0.554411
754.149020,0.533204
754.449280,0.542351
754.749500,0.552754
755.049680,0.547333
755.349820,0.553702
755.649920,0.551884
755.949980,0.538819
756.250000,0.555556
756.549980,0.541254
756.849920,0.543168
757.149820,0.551564
757.449680,0.547855
757.749500,0.552147
758.049280,0.548805
758.349020,0.544506
758.648720,0.555556
758.948380,0.548454
759.248000,0.561995
759.547580,0.556153
759.847120,0.547898
760.146620,0.552774
760.446080,0.555108
760.745500,0.567832
761.044880,0.559659
761.344220,0.554526
761.643520,0.552966
761.942780,0.559132
762.242000,0.555163
762.541180,0.568310
762.840320,0.554775
763.139420,0.558368
763.438480,0.550923
763.737500,0.565817
764.036480,0.569532
764.335420,0.560339
764.634320,0.555787
764.933180,0.556849
765.232000,0.550312
765.530780,0.562105
765.829520,0.566434
766.128220,0.564370
766.426880,0.565032
766.725500,0.562714
767.024080,0.558985
767.322620,0.569156
767.621120,0.560298
767.919580,0.575427
768.218000,0.569767
768.516380,0.565247
768.814720,0.565844
769.113020,0.570641
769.411280,0.575276
769.709500,0.569012
770.007680,0.562372
770.305820,0.576741
770.603920,0.562668
770.901980,0.577869
771.200000,0.568614
771.497980,0.565684
771.795920,0.567224
772.093820,0.578209
772.391680,0.566908
772.689500,0.570946
772.987280,0.573064
773.285020,0.575530
773.582720,0.575000
773.880380,0.577213
774.178000,0.584185
774.475580,0.580710
774.773120,0.570950
775.070620,0.565247
775.368080,0.579158
775.665500,0.565480
775.962880,0.577718
776.260220,0.589502
776.557520,0.576384
776.854780,0.586883
777.152000,0.566313
777.449180,0.587323
777.746320,0.579301
778.043420,0.589359
778.340480,0.585250
778.637500,0.571332
778.934480,0.578346
779.231420,0.567843
779.528320,0.578490
779.825180,0.572464
780.122000,0.568393
780.418780,0.590287
780.715520,0.588867
781.012220,0.584932
781.308880,0.582826
781.605500,0.577397
781.902080,0.577687
782.198620,0.585099
782.495120,0.586420
782.791580,0.584594
783.088000,0.598344
783.384380,0.588721
783.680720,0.573187
783.977020,0.565038
784.273280,0.583217
784.569500,0.603774
784.865680,0.592490
785.161820,0.579861
785.457920,0.586279
785.753980,0.586881
786.050000,0.576657
786.345980,0.585417
786.641920,0.589174
786.937820,0.592593
787.233680,0.581768
787.529500,0.583911
787.825280,0.602691
788.121020,0.594193
788.416720,0.582216
788.712380,0.582511
789.008000,0.583569
789.303580,0.591519
789.599120,0.592000
789.894620,0.592780
790.190080,0.592458
790.485500,0.595392
790.780880,0.589247
791.076220,0.590909
791.371520,0.589688
791.666780,0.595636
791.962000,0.598824
792.257180,0.592240
792.552320,0.594634
792.847420,0.594614
793.142480,0.603663
793.437500,0.595514
793.732480,0.602048
794.027420,0.598665
794.322320,0.598807
794.617180,0.594354
794.912000,0.600297
795.206780,0.604773
795.501520,0.611407
795.796220,0.590370
796.090880,0.597589
796.385500,0.598201
796.680080,0.588631
796.974620,0.600299
797.269120,0.592733
797.563580,0.598473
797.858000,0.589977
798.152380,0.609435
798.446720,0.610000
798.741020,0.597843
799.035280,0.612578
799.329500,0.593533
799.623680,0.613178
