399.985280,0.243243
400.329500,0.243243
400.673680,0.240506
401.017820,0.191176
401.361920,0.242424
401.705980,0.231707
402.050000,0.181818
402.393980,0.247059
402.737920,0.359551
403.081820,0.195876
403.425680,0.232558
403.769500,0.229167
404.113280,0.218391
404.457020,0.224719
404.800720,0.228261
405.144380,0.282828
405.488000,0.258065
405.831580,0.309278
406.175120,0.234043
406.518620,0.250000
406.862080,0.257732
407.205500,0.250000
407.548880,0.224490
407.892220,0.274510
408.235520,0.212766
408.578780,0.228571
408.922000,0.211538
409.265180,0.232323
409.608320,0.252525
409.951420,0.309278
410.294480,0.264706
410.637500,0.206522
410.980480,0.264706
411.323420,0.234694
411.666320,0.275229
412.009180,0.245455
412.352000,0.207921
412.694780,0.229358
413.037520,0.220183
413.380220,0.216216
413.722880,0.276786
414.065500,0.252252
414.408080,0.221239
414.750620,0.230088
415.093120,0.173554
415.435580,0.210084
415.778000,0.272727
416.120380,0.226891
416.462720,0.198413
416.805020,0.248120
417.147280,0.238806
417.489500,0.228571
417.831680,0.239726
418.173820,0.234043
418.515920,0.244755
418.857980,0.215190
419.200000,0.217949
419.541980,0.230769
419.883920,0.224719
420.225820,0.242775
420.567680,0.217877
420.909500,0.234973
421.251280,0.244792
421.593020,0.219388
421.934720,0.202020
422.276380,0.215385
422.618000,0.259804
422.959580,0.240196
423.301120,0.246575
423.642620,0.195652
423.984080,0.200000
424.325500,0.219731
424.666880,0.241379
425.008220,0.210084
425.349520,0.220339
425.690780,0.192308
426.032000,0.180392
426.373180,0.232365
426.714320,0.203125
427.055420,0.212355
427.396480,0.213483
427.737500,0.189723
428.078480,0.173913
428.419420,0.184739
428.760320,0.183908
429.101180,0.212598
429.442000,0.222222
429.782780,0.180769
430.123520,0.188235
430.464220,0.195572
430.804880,0.229885
431.145500,0.189091
431.486080,0.213483
431.826620,0.217054
432.167120,0.187500
432.507580,0.213768
432.848000,0.172662
433.188380,0.209386
433.528720,0.188679
433.869020,0.203571
434.209280,0.182456
434.549500,0.233449
434.889680,0.202020
435.229820,0.187713
435.569920,0.176471
435.909980,0.194175
436.250000,0.193220
436.589980,0.179567
436.929920,0.200000
437.269820,0.181818
437.609680,0.192308
437.949500,0.198795
438.289280,0.186969
438.629020,0.203488
438.968720,0.203488
439.308380,0.181572
439.648000,0.180822
439.987580,0.198413
440.327120,0.192000
440.666620,0.192208
441.006080,0.191816
441.345500,0.194103
441.684880,0.186603
442.024220,0.188586
442.363520,0.176190
442.702780,0.170455
443.042000,0.180617
443.381180,0.176724
443.720320,0.194384
444.059420,0.172269
444.398480,0.184100
444.737500,0.174180
445.076480,0.176587
445.415420,0.185629
445.754320,0.172557
446.093180,0.170642
446.432000,0.174812
446.770780,0.180266
447.109520,0.187500
447.448220,0.177102
447.786880,0.171735
448.125500,0.193103
448.464080,0.189286
448.802620,0.180851
449.141120,0.176471
449.479580,0.174825
449.818000,0.182444
450.156380,0.175585
450.494720,0.163636
450.833020,0.178322
451.171280,0.152397
451.509500,0.184669
451.847680,0.175379
452.185820,0.180723
452.523920,0.178694
452.861980,0.168634
453.200000,0.176080
453.537980,0.171429
453.875920,0.176471
454.213820,0.160959
454.551680,0.158940
454.889500,0.160202
455.227280,0.158363
455.565020,0.174204
455.902720,0.178037
456.240380,0.166389
456.578000,0.172474
456.915580,0.165803
457.253120,0.164474
457.590620,0.162562
457.928080,0.164983
458.265500,0.175676
458.602880,0.168831
458.940220,0.164129
459.277520,0.168000
459.614780,0.173486
459.952000,0.161491
460.289180,0.162975
460.626320,0.149606
460.963420,0.161551
461.300480,0.171254
461.637500,0.160247
461.974480,0.165138
462.311420,0.160954
462.648320,0.159590
462.985180,0.157819
463.322000,0.156250
463.658780,0.146409
463.995520,0.151307
464.332220,0.162050
464.668880,0.157258
465.005500,0.158177
465.342080,0.158771
465.678620,0.162362
466.015120,0.156533
466.351580,0.159292
466.688000,0.160780
467.024380,0.150668
467.360720,0.153409
467.697020,0.156036
468.033280,0.165556
468.369500,0.167770
468.705680,0.163472
469.041820,0.157292
469.377920,0.157267
469.713980,0.157570
470.050000,0.165217
470.385980,0.154599
470.721920,0.159647
471.057820,0.149123
471.393680,0.152479
471.729500,0.158480
472.065280,0.168157
472.401020,0.157801
472.736720,0.150087
473.072380,0.154399
473.408000,0.157528
473.743580,0.146194
474.079120,0.161929
474.414620,0.156064
474.750080,0.156225
475.085500,0.153783
475.420880,0.149042
475.756220,0.158626
476.091520,0.153453
476.426780,0.157767
476.762000,0.152051
477.097180,0.155200
477.432320,0.148627
477.767420,0.147876
478.102480,0.153543
478.437500,0.155172
478.772480,0.146572
479.107420,0.152970
479.442320,0.155076
479.777180,0.154336
480.112000,0.154083
480.446780,0.142634
480.781520,0.146538
481.116220,0.151981
481.450880,0.144418
481.785500,0.157437
482.120080,0.152821
482.454620,0.153846
482.789120,0.156051
483.123580,0.144860
483.458000,0.148734
483.792380,0.150160
484.126720,0.150579
484.461020,0.156128
484.795280,0.148034
485.129500,0.153546
485.463680,0.150388
485.797820,0.155521
486.131920,0.153787
486.465980,0.156757
486.800000,0.154198
487.133980,0.157100
487.467920,0.149962
487.801820,0.158658
488.135680,0.156937
488.469500,0.153555
488.803280,0.144874
489.137020,0.156777
489.470720,0.160237
489.804380,0.161841
490.138000,0.162463
490.471580,0.159175
490.805120,0.160114
491.138620,0.152097
491.472080,0.151237
491.805500,0.157601
492.138880,0.158443
492.472220,0.157093
492.805520,0.159218
493.138780,0.159201
493.472000,0.157191
493.805180,0.158254
494.138320,0.159440
494.471420,0.157552
494.804480,0.153946
495.137500,0.154685
495.470480,0.156150
495.803420,0.153652
496.136320,0.156015
496.469180,0.163904
496.802000,0.158313
497.134780,0.160097
497.467520,0.163303
497.800220,0.153302
498.132880,0.158142
498.465500,0.158169
498.798080,0.156963
499.130620,0.160022
499.463120,0.160584
499.795580,0.161716
500.128000,0.159673
500.460380,0.158773
500.792720,0.159067
501.125020,0.154493
501.457280,0.157180
501.789500,0.162707
502.121680,0.166407
502.453820,0.158083
502.785920,0.160080
503.117980,0.163395
503.450000,0.163737
503.781980,0.166418
504.113920,0.160266
504.445820,0.159942
504.777680,0.162353
505.109500,0.163462
505.441280,0.164914
505.773020,0.160169
506.104720,0.160151
506.436380,0.165641
506.768000,0.166511
507.099580,0.157895
507.431120,0.160656
507.762620,0.164004
508.094080,0.164084
508.425500,0.163399
508.756880,0.157750
509.088220,0.168813
509.419520,0.163408
509.750780,0.164011
510.082000,0.167910
510.413180,0.168125
510.744320,0.166130
511.075420,0.160403
511.406480,0.166902
511.737500,0.164815
512.068480,0.169173
512.399420,0.164319
512.730320,0.166744
513.061180,0.166984
513.392000,0.165168
513.722780,0.165226
514.053520,0.168663
514.384220,0.166508
514.714880,0.168023
515.045500,0.165230
515.376080,0.172397
515.706620,0.169508
516.037120,0.165196
516.367580,0.169049
516.698000,0.169118
517.028380,0.172790
517.358720,0.174815
517.689020,0.175569
518.019280,0.176116
518.349500,0.175367
518.679680,0.178193
519.009820,0.170547
519.339920,0.182866
519.669980,0.175289
520.000000,0.181864
520.329980,0.175739
520.659920,0.171268
520.989820,0.179051
521.319680,0.180041
521.649500,0.177892
521.979280,0.182672
522.309020,0.174793
522.638720,0.168971
522.968380,0.174767
523.298000,0.181106
523.627580,0.174858
523.957120,0.179740
524.286620,0.178739
524.616080,0.181489
524.945500,0.183463
525.274880,0.188815
525.604220,0.182712
525.933520,0.181342
526.262780,0.181956
526.592000,0.180112
526.921180,0.183342
527.250320,0.186200
527.579420,0.191006
527.908480,0.191531
528.237500,0.188183
528.566480,0.191617
528.895420,0.192706
529.224320,0.190688
529.553180,0.190361
529.882000,0.190754
530.210780,0.188707
530.539520,0.189358
530.868220,0.184299
531.196880,0.189202
531.525500,0.194189
531.854080,0.195122
532.182620,0.191499
532.511120,0.190719
532.839580,0.192377
533.168000,0.197356
533.496380,0.200000
533.824720,0.196501
534.153020,0.193491
534.481280,0.191630
534.809500,0.196130
535.137680,0.197483
535.465820,0.198454
535.793920,0.195008
536.121980,0.197650
536.450000,0.203383
536.777980,0.201089
537.105920,0.202159
537.433820,0.204583
537.761680,0.206939
538.089500,0.203157
538.417280,0.206526
538.745020,0.206418
539.072720,0.201484
539.400380,0.204740
539.728000,0.206119
540.055580,0.198502
540.383120,0.206255
540.710620,0.207961
541.038080,0.203984
541.365500,0.204779
541.692880,0.207849
542.020220,0.208708
542.347520,0.208543
542.674780,0.209598
543.002000,0.202939
543.329180,0.213609
543.656320,0.213432
543.983420,0.216752
544.310480,0.209650
544.637500,0.215967
544.964480,0.209960
545.291420,0.214689
545.618320,0.211155
545.945180,0.211602
546.272000,0.212647
546.598780,0.215339
546.925520,0.213320
547.252220,0.219544
547.578880,0.211795
547.905500,0.220261
548.232080,0.217674
548.558620,0.219655
548.885120,0.217206
549.211580,0.216329
549.538000,0.219844
549.864380,0.220579
550.190720,0.220213
550.517020,0.221643
550.843280,0.222150
551.169500,0.222328
551.495680,0.223062
551.821820,0.227302
552.147920,0.226740
552.473980,0.224234
552.800000,0.217789
553.125980,0.230845
553.451920,0.229263
553.777820,0.228514
554.103680,0.227840
554.429500,0.225644
554.755280,0.226636
555.081020,0.230281
555.406720,0.231629
555.732380,0.227719
556.058000,0.230821
556.383580,0.231085
556.709120,0.226396
557.034620,0.232174
557.360080,0.235579
557.685500,0.232711
558.010880,0.231889
558.336220,0.232689
558.661520,0.239277
558.986780,0.237420
559.312000,0.238960
559.637180,0.238779
559.962320,0.241367
560.287420,0.237659
560.612480,0.240043
560.937500,0.241924
561.262480,0.242302
561.587420,0.243743
561.912320,0.242078
562.237180,0.243893
562.562000,0.246914
562.886780,0.244890
563.211520,0.242176
563.536220,0.245269
563.860880,0.245945
564.185500,0.248030
564.510080,0.249059
564.834620,0.249721
565.159120,0.250752
565.483580,0.250475
565.808000,0.249716
566.132380,0.250653
566.456720,0.248677
566.781020,0.254314
567.105280,0.247259
567.429500,0.248483
567.753680,0.258535
568.077820,0.258214
568.401920,0.256684
568.725980,0.258065
569.050000,0.259316
569.373980,0.258850
569.697920,0.255973
570.021820,0.260674
570.345680,0.259472
570.669500,0.257154
570.993280,0.265781
571.317020,0.263062
571.640720,0.259726
571.964380,0.257981
572.288000,0.262982
572.611580,0.266567
572.935120,0.267864
573.258620,0.268138
573.582080,0.267511
573.905500,0.269918
574.228880,0.267261
574.552220,0.268963
574.875520,0.276620
575.198780,0.272136
575.522000,0.272361
575.845180,0.265401
576.168320,0.269493
576.491420,0.278343
576.814480,0.266546
577.137500,0.277417
577.460480,0.274737
577.783420,0.276527
578.106320,0.283832
578.429180,0.284553
578.752000,0.276832
579.074780,0.276467
579.397520,0.281149
579.720220,0.280566
580.042880,0.278494
580.365500,0.280278
580.688080,0.287313
581.010620,0.278772
581.333120,0.287241
581.655580,0.283050
581.978000,0.287995
582.300380,0.283350
582.622720,0.286091
582.945020,0.287386
583.267280,0.287203
583.589500,0.291172
583.911680,0.290251
584.233820,0.290211
584.555920,0.290262
584.877980,0.300251
585.200000,0.289748
585.521980,0.298116
585.843920,0.292862
586.165820,0.297380
586.487680,0.297924
586.809500,0.301530
587.131280,0.297841
587.453020,0.299702
587.774720,0.300118
588.096380,0.302217
588.418000,0.302019
588.739580,0.299799
589.061120,0.305348
589.382620,0.296562
589.704080,0.303506
590.025500,0.310217
590.346880,0.306071
590.668220,0.308877
590.989520,0.306711
591.310780,0.316211
591.632000,0.312295
591.953180,0.311652
592.274320,0.306306
592.595420,0.303071
592.916480,0.311057
593.237500,0.316626
593.558480,0.313963
593.879420,0.313461
594.200320,0.316100
594.521180,0.313944
594.842000,0.317571
595.162780,0.316239
595.483520,0.313746
595.804220,0.316595
596.124880,0.324540
596.445500,0.320671
596.766080,0.325625
597.086620,0.321656
597.407120,0.323065
597.727580,0.325378
598.048000,0.321873
598.368380,0.321673
598.688720,0.320839
599.009020,0.329352
599.329280,0.329164
599.649500,0.323825
599.969680,0.325855
600.289820,0.329327
600.609920,0.330484
600.929980,0.327098
601.250000,0.329730
601.569980,0.326762
601.889920,0.331462
602.209820,0.334145
602.529680,0.337819
602.849500,0.333333
603.169280,0.335354
603.489020,0.342098
603.808720,0.332693
604.128380,0.338576
604.448000,0.333149
604.767580,0.336592
605.087120,0.336565
605.406620,0.334453
605.726080,0.338181
606.045500,0.333519
606.364880,0.342784
606.684220,0.343232
607.003520,0.340883
607.322780,0.340819
607.642000,0.344917
607.961180,0.344319
608.280320,0.348318
608.599420,0.343569
608.918480,0.346334
609.237500,0.347711
609.556480,0.350400
609.875420,0.346426
610.194320,0.349867
610.513180,0.349512
610.832000,0.346039
611.150780,0.349354
611.469520,0.348416
611.788220,0.354595
612.106880,0.353438
612.425500,0.358404
612.744080,0.356110
613.062620,0.348318
613.381120,0.352529
613.699580,0.352238
614.018000,0.357494
614.336380,0.363664
614.654720,0.360930
614.973020,0.354520
615.291280,0.356368
615.609500,0.364184
615.927680,0.356922
616.245820,0.359926
616.563920,0.365247
616.881980,0.365451
617.200000,0.355521
617.517980,0.360299
617.835920,0.358496
618.153820,0.363071
618.471680,0.364341
618.789500,0.366268
619.107280,0.373709
619.425020,0.369172
619.742720,0.365035
620.060380,0.366343
620.378000,0.372561
620.695580,0.371967
621.013120,0.368189
621.330620,0.375275
621.648080,0.376972
621.965500,0.369824
622.282880,0.369483
622.600220,0.372078
622.917520,0.375551
623.234780,0.378335
623.552000,0.378103
623.869180,0.384494
624.186320,0.372174
624.503420,0.386834
624.820480,0.382658
625.137500,0.380171
625.454480,0.378556
625.771420,0.382724
626.088320,0.384300
626.405180,0.384256
626.722000,0.381744
627.038780,0.385965
627.355520,0.385937
627.672220,0.386314
627.988880,0.383826
628.305500,0.386413
628.622080,0.395911
628.938620,0.384709
629.255120,0.390479
629.571580,0.387987
629.888000,0.392145
630.204380,0.393372
630.520720,0.393053
630.837020,0.401480
631.153280,0.392986
631.469500,0.392359
631.785680,0.396926
632.101820,0.394753
632.417920,0.395231
632.733980,0.390456
633.050000,0.408126
633.365980,0.399526
633.681920,0.403640
633.997820,0.408846
634.313680,0.403716
634.629500,0.399882
634.945280,0.402933
635.261020,0.408277
635.576720,0.413095
635.892380,0.400813
636.208000,0.404416
636.523580,0.406022
636.839120,0.410828
637.154620,0.417391
637.470080,0.404304
637.785500,0.414127
638.100880,0.411526
638.416220,0.409836
638.731520,0.412607
639.046780,0.410137
639.362000,0.406537
639.677180,0.410337
639.992320,0.413307
640.307420,0.417533
640.622480,0.421731
640.937500,0.416644
641.252480,0.417202
641.567420,0.422847
641.882320,0.423441
642.197180,0.426727
642.512000,0.423734
642.826780,0.425798
643.141520,0.425674
643.456220,0.428611
643.770880,0.431177
644.085500,0.427613
644.400080,0.430056
644.714620,0.427258
645.029120,0.427393
645.343580,0.426221
645.658000,0.434083
645.972380,0.434366
646.286720,0.430908
646.601020,0.430667
646.915280,0.435426
647.229500,0.426374
647.543680,0.433582
647.857820,0.429672
648.171920,0.432990
648.485980,0.432721
648.800000,0.427390
649.113980,0.435421
649.427920,0.442441
649.741820,0.433086
650.055680,0.435272
650.369500,0.436379
650.683280,0.443674
650.997020,0.436469
651.310720,0.437810
651.624380,0.439011
651.938000,0.439058
652.251580,0.443084
652.565120,0.442426
652.878620,0.444820
653.192080,0.442416
653.505500,0.438710
653.818880,0.445266
654.132220,0.451723
654.445520,0.448100
654.758780,0.436261
655.072000,0.442693
655.385180,0.437660
655.698320,0.440697
656.011420,0.446833
656.324480,0.448557
656.637500,0.444380
656.950480,0.445978
657.263420,0.451375
657.576320,0.449748
657.889180,0.448540
658.202000,0.448370
658.514780,0.453409
658.827520,0.459184
659.140220,0.450704
659.452880,0.455150
659.765500,0.453341
660.078080,0.450196
660.390620,0.452490
660.703120,0.455851
661.015580,0.460123
661.328000,0.462217
661.640380,0.461945
661.952720,0.456556
662.265020,0.462823
662.577280,0.461832
662.889500,0.457584
663.201680,0.460434
663.513820,0.461885
663.825920,0.459494
664.137980,0.468003
664.450000,0.454604
664.761980,0.453028
665.073920,0.457968
665.385820,0.465314
665.697680,0.465455
666.009500,0.469904
666.321280,0.470842
666.633020,0.462434
666.944720,0.469498
667.256380,0.461306
667.568000,0.458899
667.879580,0.462925
668.191120,0.468750
668.502620,0.467648
668.814080,0.475088
669.125500,0.470065
669.436880,0.474412
669.748220,0.471097
670.059520,0.467787
670.370780,0.468337
670.682000,0.474336
670.993180,0.471106
671.304320,0.473277
671.615420,0.471946
671.926480,0.480483
672.237500,0.469811
672.548480,0.476224
672.859420,0.482845
673.170320,0.479507
673.481180,0.472484
673.792000,0.474216
674.102780,0.474686
674.413520,0.476850
674.724220,0.479129
675.034880,0.480381
675.345500,0.486506
675.656080,0.486751
675.966620,0.484904
676.277120,0.484804
676.587580,0.486009
676.898000,0.483016
677.208380,0.483919
677.518720,0.482859
677.829020,0.495196
678.139280,0.492958
678.449500,0.490902
678.759680,0.488947
679.069820,0.487361
679.379920,0.496794
679.689980,0.486818
680.000000,0.482617
680.309980,0.482554
680.619920,0.493752
680.929820,0.491975
681.239680,0.491507
681.549500,0.488519
681.859280,0.488424
682.169020,0.497203
682.478720,0.502618
682.788380,0.489110
683.098000,0.496634
683.407580,0.497186
683.717120,0.496622
684.026620,0.490211
684.336080,0.491474
684.645500,0.496820
684.954880,0.504345
685.264220,0.495659
685.573520,0.499429
685.882780,0.509781
686.192000,0.493604
686.501180,0.497162
686.810320,0.500000
687.119420,0.507792
687.428480,0.499810
687.737500,0.504605
688.046480,0.502684
688.355420,0.505092
688.664320,0.501148
688.973180,0.504977
689.282000,0.510031
689.590780,0.503067
689.899520,0.498671
690.208220,0.512615
690.516880,0.504773
690.825500,0.501509
691.134080,0.502278
691.442620,0.500000
691.751120,0.507395
692.059580,0.510890
692.368000,0.510034
692.676380,0.516031
692.984720,0.506107
693.293020,0.516337
693.601280,0.512781
693.909500,0.520621
694.217680,0.508759
694.525820,0.520183
694.833920,0.513926
695.141980,0.518319
695.450000,0.510687
695.757980,0.519099
696.065920,0.519223
696.373820,0.515396
696.681680,0.500959
696.989500,0.521420
697.297280,0.516531
697.605020,0.532143
697.912720,0.512298
698.220380,0.519481
698.528000,0.526503
698.835580,0.524694
699.143120,0.520655
699.450620,0.521082
699.758080,0.514510
700.065500,0.530327
700.372880,0.531600
700.680220,0.525329
700.987520,0.534127
701.294780,0.529197
701.602000,0.526149
701.909180,0.529809
702.216320,0.522096
702.523420,0.529992
702.830480,0.533465
703.137500,0.523772
703.444480,0.528994
703.751420,0.532544
704.058320,0.529482
704.365180,0.525237
704.672000,0.533465
704.978780,0.527117
705.285520,0.532081
705.592220,0.529804
705.898880,0.532309
706.205500,0.533255
706.512080,0.528436
706.818620,0.535604
707.125120,0.529231
707.431580,0.532239
707.738000,0.533594
708.044380,0.533771
708.350720,0.530760
708.657020,0.542009
708.963280,0.538043
709.269500,0.539335
709.575680,0.539489
709.881820,0.541274
710.187920,0.538911
710.493980,0.537626
710.800000,0.541571
711.105980,0.528238
711.411920,0.536855
711.717820,0.540741
712.023680,0.544112
712.329500,0.542981
712.635280,0.538760
712.941020,0.545033
713.246720,0.544664
713.552380,0.550628
713.858000,0.549074
714.163580,0.540253
714.469120,0.542399
714.774620,0.539676
715.080080,0.543384
715.385500,0.551559
715.690880,0.542406
715.996220,0.541997
716.301520,0.550988
716.606780,0.545991
716.912000,0.553716
717.217180,0.553073
717.522320,0.551889
717.827420,0.551261
718.132480,0.542754
718.437500,0.547901
718.742480,0.547984
719.047420,0.541262
719.352320,0.568286
719.657180,0.547424
719.962000,0.551696
720.266780,0.554217
720.571520,0.548882
720.876220,0.549509
721.180880,0.554348
721.485500,0.550773
721.790080,0.548620
722.094620,0.558748
722.399120,0.555364
722.703580,0.552936
723.008000,0.554981
723.312380,0.554886
723.616720,0.546536
723.921020,0.555219
724.225280,0.549302
724.529500,0.551664
724.833680,0.558719
725.137820,0.557709
725.441920,0.563085
725.745980,0.547651
726.050000,0.558863
726.353980,0.561514
726.657920,0.551507
726.961820,0.560731
727.265680,0.559408
727.569500,0.563985
727.873280,0.554734
728.177020,0.555965
728.480720,0.561111
728.784380,0.568342
729.088000,0.568064
729.391580,0.563240
729.695120,0.569098
729.998620,0.569790
730.302080,0.571360
730.605500,0.565745
730.908880,0.569819
731.212220,0.559745
731.515520,0.562652
731.818780,0.560680
732.122000,0.564469
732.425180,0.556432
732.728320,0.563708
733.031420,0.562406
733.334480,0.573469
733.637500,0.572077
733.940480,0.569089
734.243420,0.565240
734.546320,0.577801
734.849180,0.556818
735.152000,0.567427
735.454780,0.567665
735.757520,0.573762
736.060220,0.573986
736.362880,0.566176
736.665500,0.554569
736.968080,0.569586
737.270620,0.578661
737.573120,0.564956
737.875580,0.581089
738.178000,0.571584
738.480380,0.571351
738.782720,0.571974
739.085020,0.564978
739.387280,0.571508
739.689500,0.579275
739.991680,0.574396
740.293820,0.577667
740.595920,0.577629
740.897980,0.584416
741.200000,0.578800
741.501980,0.575931
741.803920,0.570383
742.105820,0.576424
742.407680,0.576587
742.709500,0.568750
743.011280,0.580891
743.313020,0.575072
743.614720,0.562391
743.916380,0.573837
744.218000,0.582936
744.519580,0.569444
744.821120,0.585629
745.122620,0.586579
745.424080,0.575120
745.725500,0.595051
746.026880,0.590517
746.328220,0.584464
746.629520,0.564720
746.930780,0.573529
747.232000,0.576334
747.533180,0.579012
747.834320,0.586732
748.135420,0.572405
748.436480,0.589520
748.737500,0.578752
749.038480,0.573610
749.339420,0.602365
749.640320,0.588309
749.941180,0.584010
750.242000,0.587312
750.542780,0.590571
750.843520,0.595772
751.144220,0.590385
751.444880,0.594166
751.745500,0.590260
752.046080,0.595253
752.346620,0.585052
752.647120,0.595036
752.947580,0.588616
753.248000,0.584139
753.548380,0.584906
753.848720,0.594334
754.149020,0.587363
754.449280,0.590939
754.749500,0.597213
755.049680,0.580667
755.349820,0.587058
755.649920,0.596827
755.949980,0.587259
756.250000,0.587771
756.549980,0.580198
756.849920,0.594833
757.149820,0.587492
757.449680,0.598020
757.749500,0.591684
758.049280,0.599317
758.349020,0.586926
758.648720,0.596963
758.948380,0.596564
759.248000,0.595687
759.547580,0.594486
759.847120,0.597519
760.146620,0.591340
760.446080,0.589382
760.745500,0.610490
761.044880,0.608665
761.344220,0.600855
761.643520,0.607345
761.942780,0.594822
762.242000,0.610325
762.541180,0.596479
762.840320,0.599017
763.139420,0.601266
763.438480,0.585099
763.737500,0.598897
764.036480,0.604472
764.335420,0.596330
764.634320,0.603604
764.933180,0.589041
765.232000,0.603053
765.530780,0.601404
765.829520,0.597902
766.128220,0.608907
766.426880,0.617626
766.725500,0.596984
767.024080,0.598765
767.322620,0.606501
767.621120,0.598916
767.919580,0.607509
768.218000,0.599179
768.516380,0.603110
768.814720,0.593964
769.113020,0.603722
769.411280,0.613260
769.709500,0.604871
770.007680,0.613497
770.305820,0.609195
770.603920,0.594340
770.901980,0.613388
771.200000,0.599864
771.497980,0.595845
771.795920,0.599331
772.093820,0.596257
772.391680,0.605801
772.689500,0.618919
772.987280,0.612795
773.285020,0.604238
773.582720,0.604054
773.880380,0.608099
774.178000,0.605999
774.475580,0.613530
774.773120,0.603079
775.070620,0.615281
775.368080,0.616566
775.665500,0.609805
775.962880,0.609073
776.260220,0.623822
776.557520,0.609740
776.854780,0.609195
777.152000,0.612732
777.449180,0.623061
777.746320,0.595430
778.043420,0.608458
778.340480,0.629905
778.637500,0.611224
778.934480,0.616005
779.231420,0.620760
779.528320,0.621910
779.825180,0.601449
780.122000,0.608898
780.418780,0.636799
780.715520,0.628437
781.012220,0.627397
781.308880,0.623394
781.605500,0.626712
781.902080,0.616701
782.198620,0.619275
782.495120,0.621399
782.791580,0.627923
783.088000,0.622498
783.384380,0.623796
783.680720,0.609439
783.977020,0.607708
784.273280,0.617483
784.569500,0.629630
784.865680,0.621001
785.161820,0.624306
785.457920,0.619543
785.753980,0.621075
786.050000,0.616713
786.345980,0.613889
786.641920,0.639833
786.937820,0.635328
787.233680,0.604732
787.529500,0.614424
787.825280,0.623229
788.121020,0.606232
788.416720,0.625970
788.712380,0.621298
789.008000,0.623229
789.303580,0.620495
789.599120,0.634909
789.894620,0.629603
790.190080,0.630167
790.485500,0.622750
790.780880,0.619355
791.076220,0.630592
791.371520,0.635439
791.666780,0.623273
791.962000,0.634093
792.257180,0.617862
792.552320,0.630892
792.847420,0.621543
793.142480,0.630769
793.437500,0.631693
793.732480,0.628383
794.027420,0.642433
794.322320,0.632364
794.617180,0.618871
794.912000,0.618871
795.206780,0.626398
795.501520,0.638783
795.796220,0.642222
796.090880,0.628485
796.385500,0.626687
796.680080,0.624533
796.974620,0.627994
797.269120,0.623770
797.563580,0.630534
797.858000,0.630979
798.152380,0.637278
798.446720,0.636154
798.741020,0.638675
799.035280,0.632764
799.329500,0.624326
799.623680,0.639535
