399.985280,0.256757
400.329500,0.256757
400.673680,0.253165
401.017820,0.294118
401.361920,0.181818
401.705980,0.231707
402.050000,0.220779
402.393980,0.223529
402.737920,0.314607
403.081820,0.268041
403.425680,0.279070
403.769500,0.208333
404.113280,0.229885
404.457020,0.269663
404.800720,0.184783
405.144380,0.262626
405.488000,0.247312
405.831580,0.257732
406.175120,0.212766
406.518620,0.260000
406.862080,0.268041
407.205500,0.281250
407.548880,0.255102
407.892220,0.196078
408.235520,0.223404
408.578780,0.285714
408.922000,0.211538
409.265180,0.242424
409.608320,0.191919
409.951420,0.298969
410.294480,0.274510
410.637500,0.271739
410.980480,0.245098
411.323420,0.306122
411.666320,0.256881
412.009180,0.263636
412.352000,0.227723
412.694780,0.238532
413.037520,0.201835
413.380220,0.243243
413.722880,0.241071
414.065500,0.270270
414.408080,0.203540
414.750620,0.221239
415.093120,0.239669
415.435580,0.218487
415.778000,0.280303
416.120380,0.235294
416.462720,0.230159
416.805020,0.225564
417.147280,0.246269
417.489500,0.285714
417.831680,0.226027
418.173820,0.219858
418.515920,0.251748
418.857980,0.240506
419.200000,0.217949
419.541980,0.254438
419.883920,0.213483
420.225820,0.196532
420.567680,0.206704
420.909500,0.229508
421.251280,0.229167
421.593020,0.239796
421.934720,0.217172
422.276380,0.225641
422.618000,0.240196
422.959580,0.245098
423.301120,0.255708
423.642620,0.226087
423.984080,0.213953
424.325500,0.219731
424.666880,0.219828
425.008220,0.193277
425.349520,0.211864
425.690780,0.207692
426.032000,0.200000
426.373180,0.207469
426.714320,0.203125
427.055420,0.196911
427.396480,0.224719
427.737500,0.185771
428.078480,0.209486
428.419420,0.224900
428.760320,0.191571
429.101180,0.232283
429.442000,0.214559
429.782780,0.207692
430.123520,0.203922
430.464220,0.232472
430.804880,0.226054
431.145500,0.170909
431.486080,0.213483
431.826620,0.201550
432.167120,0.205882
432.507580,0.213768
432.848000,0.212230
433.188380,0.223827
433.528720,0.203774
433.869020,0.210714
434.209280,0.168421
434.549500,0.202091
434.889680,0.208754
435.229820,0.191126
435.569920,0.173010
435.909980,0.174757
436.250000,0.210169
436.589980,0.195046
436.929920,0.222222
437.269820,0.194357
437.609680,0.204142
437.949500,0.180723
438.289280,0.195467
438.629020,0.203488
438.968720,0.203488
439.308380,0.184282
439.648000,0.191781
439.987580,0.193122
440.327120,0.181333
440.666620,0.194805
441.006080,0.184143
441.345500,0.189189
441.684880,0.196172
442.024220,0.181141
442.363520,0.192857
442.702780,0.184091
443.042000,0.191630
443.381180,0.189655
443.720320,0.205184
444.059420,0.180672
444.398480,0.188285
444.737500,0.180328
445.076480,0.176587
445.415420,0.189621
445.754320,0.172557
446.093180,0.183486
446.432000,0.191729
446.770780,0.178368
447.109520,0.185662
447.448220,0.175313
447.786880,0.169946
448.125500,0.181034
448.464080,0.164286
448.802620,0.168440
449.141120,0.171280
449.479580,0.185315
449.818000,0.177281
450.156380,0.182274
450.494720,0.173554
450.833020,0.167832
451.171280,0.159247
451.509500,0.172474
451.847680,0.170320
452.185820,0.170396
452.523920,0.170103
452.861980,0.160202
453.200000,0.169435
453.537980,0.179832
453.875920,0.181513
454.213820,0.159247
454.551680,0.178808
454.889500,0.166948
455.227280,0.153025
455.565020,0.184255
455.902720,0.173045
456.240380,0.159734
456.578000,0.177700
456.915580,0.176166
457.253120,0.162829
457.590620,0.169130
457.928080,0.164983
458.265500,0.173986
458.602880,0.173701
458.940220,0.169205
459.277520,0.160000
459.614780,0.178396
459.952000,0.161491
460.289180,0.162975
460.626320,0.168504
460.963420,0.172859
461.300480,0.159021
461.637500,0.155624
461.974480,0.172783
462.311420,0.154993
462.648320,0.166911
462.985180,0.157819
463.322000,0.157738
463.658780,0.161602
463.995520,0.151307
464.332220,0.160665
464.668880,0.163978
465.005500,0.172922
465.342080,0.165173
465.678620,0.172202
466.015120,0.165589
466.351580,0.166877
466.688000,0.165652
467.024380,0.156744
467.360720,0.157955
467.697020,0.156036
468.033280,0.158889
468.369500,0.164459
468.705680,0.172492
469.041820,0.160417
469.377920,0.143167
469.713980,0.159629
470.050000,0.162319
470.385980,0.167319
470.721920,0.153771
471.057820,0.158869
471.393680,0.144060
471.729500,0.151066
472.065280,0.157424
472.401020,0.157801
472.736720,0.153578
473.072380,0.158887
473.408000,0.157528
473.743580,0.143599
474.079120,0.154177
474.414620,0.150127
474.750080,0.157038
475.085500,0.157895
475.420880,0.154038
475.756220,0.150450
476.091520,0.156863
476.426780,0.154531
476.762000,0.155270
477.097180,0.158400
477.432320,0.159128
477.767420,0.152778
478.102480,0.154331
478.437500,0.151888
478.772480,0.141844
479.107420,0.145647
479.442320,0.153477
479.777180,0.154336
480.112000,0.146379
480.446780,0.149649
480.781520,0.155395
481.116220,0.151172
481.450880,0.148322
481.785500,0.154272
482.120080,0.153605
482.454620,0.146076
482.789120,0.149682
483.123580,0.149533
483.458000,0.151899
483.792380,0.149361
484.126720,0.156757
484.461020,0.155347
484.795280,0.154973
485.129500,0.160561
485.463680,0.153488
485.797820,0.154743
486.131920,0.151492
486.465980,0.148263
486.800000,0.148092
487.133980,0.151813
487.467920,0.149962
487.801820,0.148741
488.135680,0.149356
488.469500,0.156581
488.803280,0.151560
489.137020,0.151648
489.470720,0.160979
489.804380,0.158129
490.138000,0.158012
490.471580,0.156227
490.805120,0.153681
491.138620,0.152807
491.472080,0.154064
491.805500,0.147141
492.138880,0.156359
492.472220,0.150173
492.805520,0.156425
493.138780,0.152998
493.472000,0.157191
493.805180,0.155525
494.138320,0.154770
494.471420,0.154948
494.804480,0.157827
495.137500,0.160462
495.470480,0.158700
495.803420,0.158690
496.136320,0.159148
496.469180,0.157766
496.802000,0.154034
497.134780,0.156458
497.467520,0.157187
497.800220,0.155660
498.132880,0.155203
498.465500,0.155272
498.798080,0.151256
499.130620,0.158338
499.463120,0.154408
499.795580,0.156216
500.128000,0.155858
500.460380,0.164693
500.792720,0.156416
501.125020,0.158697
501.457280,0.160836
501.789500,0.158574
502.121680,0.159150
502.453820,0.159102
502.785920,0.158579
503.117980,0.158979
503.450000,0.161728
503.781980,0.164425
504.113920,0.155050
504.445820,0.157997
504.777680,0.154824
505.109500,0.158654
505.441280,0.161568
505.773020,0.155942
506.104720,0.154498
506.436380,0.159016
506.768000,0.159963
507.099580,0.156979
507.431120,0.159251
507.762620,0.156955
508.094080,0.162716
508.425500,0.160131
508.756880,0.159122
509.088220,0.162374
509.419520,0.157356
509.750780,0.160731
510.082000,0.166045
510.413180,0.164901
510.744320,0.162908
511.075420,0.162236
511.406480,0.160790
511.737500,0.161111
512.068480,0.162124
512.399420,0.163850
512.730320,0.158891
513.061180,0.164605
513.392000,0.162802
513.722780,0.161864
514.053520,0.163392
514.384220,0.159848
514.714880,0.162757
515.045500,0.159962
515.376080,0.159322
515.706620,0.169508
516.037120,0.163235
516.367580,0.167570
516.698000,0.167647
517.028380,0.166336
517.358720,0.168395
517.689020,0.163699
518.019280,0.166081
518.349500,0.172326
518.679680,0.170116
519.009820,0.169028
519.339920,0.170842
519.669980,0.167755
520.000000,0.171676
520.329980,0.166407
520.659920,0.171268
520.989820,0.179567
521.319680,0.179012
521.649500,0.171208
521.979280,0.177975
522.309020,0.172718
522.638720,0.167947
522.968380,0.172182
523.298000,0.172234
523.627580,0.177444
523.957120,0.178182
524.286620,0.180302
524.616080,0.176319
524.945500,0.175194
525.274880,0.179579
525.604220,0.179089
525.933520,0.175052
526.262780,0.175367
526.592000,0.178590
526.921180,0.183850
527.250320,0.179604
527.579420,0.182415
527.908480,0.180207
528.237500,0.183217
528.566480,0.182635
528.895420,0.187777
529.224320,0.180287
529.553180,0.181205
529.882000,0.186375
530.210780,0.186776
530.539520,0.183605
530.868220,0.188128
531.196880,0.184902
531.525500,0.194189
531.854080,0.188555
532.182620,0.183092
532.511120,0.185151
532.839580,0.191016
533.168000,0.188696
533.496380,0.191781
533.824720,0.183042
534.153020,0.189924
534.481280,0.184581
534.809500,0.193931
535.137680,0.195747
535.465820,0.190722
535.793920,0.193316
536.121980,0.192614
536.450000,0.194080
536.777980,0.196900
537.105920,0.191366
537.433820,0.194763
537.761680,0.191429
538.089500,0.197896
538.417280,0.196180
538.745020,0.195325
539.072720,0.193674
539.400380,0.195027
539.728000,0.198470
540.055580,0.192884
540.383120,0.200670
540.710620,0.195685
541.038080,0.199557
541.365500,0.202206
541.692880,0.200218
542.020220,0.199712
542.347520,0.199928
542.674780,0.203246
543.002000,0.203989
543.329180,0.205191
543.656320,0.203938
543.983420,0.200342
544.310480,0.206252
544.637500,0.205049
544.964480,0.199865
545.291420,0.205052
545.618320,0.207171
545.945180,0.202044
546.272000,0.201507
546.598780,0.207801
546.925520,0.204748
547.252220,0.209640
547.578880,0.204953
547.905500,0.208824
548.232080,0.207602
548.558620,0.211194
548.885120,0.211973
549.211580,0.210543
549.538000,0.212711
549.864380,0.216399
550.190720,0.211818
550.517020,0.220013
550.843280,0.217915
551.169500,0.211514
551.495680,0.215506
551.821820,0.214892
552.147920,0.219258
552.473980,0.219625
552.800000,0.217789
553.125980,0.215783
553.451920,0.220969
553.777820,0.223518
554.103680,0.220762
554.429500,0.219953
554.755280,0.220294
555.081020,0.216912
555.406720,0.220115
555.732380,0.226703
556.058000,0.227766
556.383580,0.223896
556.709120,0.220882
557.034620,0.223217
557.360080,0.224525
557.685500,0.226833
558.010880,0.223224
558.336220,0.226011
558.661520,0.228642
558.986780,0.233168
559.312000,0.227208
559.637180,0.229803
559.962320,0.230687
560.287420,0.234133
560.612480,0.227485
560.937500,0.232012
561.262480,0.238270
561.587420,0.234313
561.912320,0.233235
562.237180,0.229090
562.562000,0.235690
562.886780,0.240803
563.211520,0.233979
563.536220,0.233024
563.860880,0.236892
564.185500,0.234522
564.510080,0.245673
564.834620,0.236323
565.159120,0.235714
565.483580,0.237552
565.808000,0.238365
566.132380,0.240582
566.456720,0.241497
566.781020,0.244186
567.105280,0.239698
567.429500,0.248103
567.753680,0.246644
568.077820,0.243525
568.401920,0.246753
568.725980,0.245541
569.050000,0.247148
569.373980,0.248573
569.697920,0.245355
570.021820,0.246816
570.345680,0.247991
570.669500,0.251049
570.993280,0.253230
571.317020,0.250639
571.640720,0.249352
571.964380,0.253898
572.288000,0.251484
572.611580,0.255335
572.935120,0.252525
573.258620,0.259162
573.582080,0.257824
573.905500,0.261727
574.228880,0.255382
574.552220,0.262367
574.875520,0.260611
575.198780,0.259848
575.522000,0.264663
575.845180,0.257880
576.168320,0.260151
576.491420,0.264172
576.814480,0.264738
577.137500,0.266955
577.460480,0.266038
577.783420,0.265452
578.106320,0.270655
578.429180,0.264051
578.752000,0.269885
579.074780,0.269049
579.397520,0.272757
579.720220,0.274453
580.042880,0.272547
580.365500,0.276969
580.688080,0.274423
581.010620,0.273372
581.333120,0.278223
581.655580,0.273726
581.978000,0.285002
582.300380,0.278156
582.622720,0.275873
582.945020,0.279909
583.267280,0.277760
583.589500,0.283467
583.911680,0.284852
584.233820,0.274788
584.555920,0.281752
584.877980,0.281407
585.200000,0.279619
585.521980,0.285449
585.843920,0.288591
586.165820,0.281840
586.487680,0.287692
586.809500,0.286229
587.131280,0.286010
587.453020,0.296429
587.774720,0.287700
588.096380,0.290840
588.418000,0.294410
588.739580,0.294625
589.061120,0.292697
589.382620,0.292264
589.704080,0.292286
590.025500,0.292808
590.346880,0.298201
590.668220,0.295435
590.989520,0.293677
591.310780,0.301022
591.632000,0.302459
591.953180,0.299751
592.274320,0.295386
592.595420,0.298761
592.916480,0.297745
593.237500,0.308273
593.558480,0.304816
593.879420,0.307526
594.200320,0.307527
594.521180,0.308101
594.842000,0.304406
595.162780,0.305021
595.483520,0.306302
595.804220,0.306928
596.124880,0.309086
596.445500,0.307047
596.766080,0.315945
597.086620,0.312367
597.407120,0.306477
597.727580,0.313180
598.048000,0.309706
598.368380,0.317728
598.688720,0.309567
599.009020,0.312633
599.329280,0.317722
599.649500,0.317485
599.969680,0.318109
600.289820,0.316506
600.609920,0.313118
600.929980,0.320684
601.250000,0.315135
601.569980,0.314880
601.889920,0.317028
602.209820,0.316558
602.529680,0.327108
602.849500,0.324604
603.169280,0.319372
603.489020,0.324661
603.808720,0.318980
604.128380,0.328918
604.448000,0.322099
604.767580,0.328771
605.087120,0.324100
605.406620,0.328296
605.726080,0.333904
606.045500,0.324882
606.364880,0.329742
606.684220,0.337236
607.003520,0.333142
607.322780,0.331154
607.642000,0.326249
607.961180,0.334779
608.280320,0.328596
608.599420,0.326477
608.918480,0.332258
609.237500,0.333333
609.556480,0.335898
609.875420,0.336090
610.194320,0.334514
610.513180,0.339450
610.832000,0.337403
611.150780,0.346350
611.469520,0.337858
611.788220,0.343108
612.106880,0.337756
612.425500,0.337089
612.744080,0.348107
613.062620,0.342508
613.381120,0.340341
613.699580,0.351012
614.018000,0.351351
614.336380,0.349476
614.654720,0.344186
614.973020,0.347115
615.291280,0.353579
615.609500,0.349604
615.927680,0.346724
616.245820,0.353432
616.563920,0.350016
616.881980,0.358591
617.200000,0.358009
617.517980,0.354076
617.835920,0.349487
618.153820,0.350637
618.471680,0.351628
618.789500,0.356828
619.107280,0.355869
619.425020,0.361878
619.742720,0.349969
620.060380,0.357882
620.378000,0.362177
620.695580,0.360473
621.013120,0.357480
621.330620,0.359900
621.648080,0.355205
621.965500,0.356336
622.282880,0.365385
622.600220,0.366077
622.917520,0.362634
623.234780,0.365477
623.552000,0.362190
623.869180,0.365269
624.186320,0.364215
624.503420,0.369279
624.820480,0.363179
625.137500,0.373224
625.454480,0.374179
625.771420,0.368537
626.088320,0.369483
626.405180,0.377411
626.722000,0.369511
627.038780,0.373434
627.355520,0.373437
627.672220,0.377916
627.988880,0.372939
628.305500,0.377376
628.622080,0.381660
628.938620,0.375841
629.255120,0.375233
629.571580,0.380325
629.888000,0.374041
630.204380,0.381098
630.520720,0.383608
630.837020,0.387604
631.153280,0.381894
631.469500,0.389933
631.785680,0.386076
632.101820,0.392039
632.417920,0.387183
632.733980,0.388355
633.050000,0.394178
633.365980,0.388856
633.681920,0.389916
633.997820,0.388225
634.313680,0.393984
634.629500,0.396048
634.945280,0.391202
635.261020,0.393014
635.576720,0.390487
635.892380,0.395585
636.208000,0.394248
636.523580,0.399883
636.839120,0.395483
637.154620,0.403478
637.470080,0.400287
637.785500,0.404748
638.100880,0.400521
638.416220,0.404947
638.731520,0.393983
639.046780,0.405768
639.362000,0.400803
639.677180,0.403769
639.992320,0.405977
640.307420,0.400674
640.622480,0.402408
640.937500,0.408877
641.252480,0.412455
641.567420,0.412049
641.882320,0.409800
642.197180,0.409321
642.512000,0.408620
642.826780,0.414702
643.141520,0.409836
643.456220,0.415053
643.770880,0.412106
644.085500,0.412800
644.400080,0.416011
644.714620,0.410256
645.029120,0.410616
645.343580,0.417444
645.658000,0.423536
645.972380,0.416004
646.286720,0.417552
646.601020,0.419873
646.915280,0.429120
647.229500,0.418132
647.543680,0.422535
647.857820,0.423617
648.171920,0.428106
648.485980,0.416552
648.800000,0.420777
649.113980,0.422118
649.427920,0.426907
649.741820,0.423193
650.055680,0.430060
650.369500,0.428531
650.683280,0.422586
650.997020,0.418592
651.310720,0.427628
651.624380,0.432692
651.938000,0.429917
652.251580,0.430559
652.565120,0.428452
652.878620,0.428773
653.192080,0.435674
653.505500,0.426928
653.818880,0.431902
654.132220,0.431501
654.445520,0.430516
654.758780,0.429462
655.072000,0.434384
655.385180,0.427960
655.698320,0.432123
656.011420,0.434222
656.324480,0.430195
656.637500,0.435979
656.950480,0.432766
657.263420,0.441915
657.576320,0.434924
657.889180,0.438809
658.202000,0.440217
658.514780,0.439714
658.827520,0.435774
659.140220,0.435721
659.452880,0.438840
659.765500,0.440698
660.078080,0.439964
660.390620,0.440269
660.703120,0.449740
661.015580,0.447546
661.328000,0.452141
661.640380,0.454489
661.952720,0.442853
662.265020,0.447700
662.577280,0.446565
662.889500,0.448754
663.201680,0.449266
663.513820,0.444838
663.825920,0.444444
664.137980,0.455721
664.450000,0.438939
664.761980,0.441899
665.073920,0.444661
665.385820,0.454188
665.697680,0.452562
666.009500,0.457931
666.321280,0.460239
666.633020,0.460439
666.944720,0.455005
667.256380,0.454576
667.568000,0.454823
667.879580,0.453061
668.191120,0.452953
668.502620,0.462513
668.814080,0.466316
669.125500,0.455012
669.436880,0.456777
669.748220,0.461751
670.059520,0.464636
670.370780,0.459638
670.682000,0.461593
670.993180,0.465116
671.304320,0.467651
671.615420,0.473366
671.926480,0.468417
672.237500,0.464094
672.548480,0.463449
672.859420,0.462473
673.170320,0.471527
673.481180,0.474294
673.792000,0.465561
674.102780,0.463196
674.413520,0.471017
674.724220,0.466788
675.034880,0.470847
675.345500,0.475565
675.656080,0.470054
675.966620,0.466351
676.277120,0.472721
676.587580,0.475331
676.898000,0.475177
677.208380,0.478373
677.518720,0.471918
677.829020,0.478936
678.139280,0.488881
678.449500,0.472707
678.759680,0.481079
679.069820,0.472491
679.379920,0.476801
679.689980,0.478648
680.000000,0.474766
680.309980,0.478842
680.619920,0.480878
680.929820,0.479657
681.239680,0.470458
681.549500,0.481481
681.859280,0.484317
682.169020,0.479672
682.478720,0.485415
682.788380,0.484681
683.098000,0.493642
683.407580,0.490807
683.717120,0.475976
684.026620,0.481175
684.336080,0.486548
684.645500,0.481481
684.954880,0.487344
685.264220,0.487731
685.573520,0.502474
685.882780,0.490219
686.192000,0.489842
686.501180,0.484677
686.810320,0.490776
687.119420,0.500950
687.428480,0.496772
687.737500,0.503837
688.046480,0.485813
688.355420,0.493399
688.664320,0.486611
688.973180,0.491577
689.282000,0.496142
689.590780,0.493865
689.899520,0.486517
690.208220,0.502294
690.516880,0.494845
690.825500,0.501887
691.134080,0.495065
691.442620,0.507622
691.751120,0.499052
692.059580,0.503630
692.368000,0.495646
692.676380,0.502672
692.984720,0.504198
693.293020,0.498480
693.601280,0.503625
693.909500,0.492622
694.217680,0.508378
694.525820,0.510663
694.833920,0.509348
695.141980,0.503278
695.450000,0.502290
695.757980,0.510313
696.065920,0.499029
696.373820,0.507698
696.681680,0.500192
696.989500,0.511386
697.297280,0.498639
697.605020,0.512302
697.912720,0.498847
698.220380,0.508855
698.528000,0.516614
698.835580,0.510865
699.143120,0.509743
699.450620,0.512729
699.758080,0.503137
700.065500,0.509976
700.372880,0.516800
700.680220,0.506980
700.987520,0.519048
701.294780,0.518654
701.602000,0.524168
701.909180,0.521065
702.216320,0.513492
702.523420,0.518942
702.830480,0.514455
703.137500,0.520655
703.444480,0.519132
703.751420,0.525838
704.058320,0.519984
704.365180,0.524842
704.672000,0.518020
704.978780,0.513851
705.285520,0.508216
705.592220,0.514118
705.898880,0.526399
706.205500,0.520736
706.512080,0.521722
706.818620,0.523220
707.125120,0.527692
707.431580,0.523251
707.738000,0.531250
708.044380,0.525666
708.350720,0.525029
708.657020,0.531067
708.963280,0.529115
709.269500,0.517417
709.575680,0.522200
709.881820,0.526730
710.187920,0.535798
710.493980,0.540341
710.800000,0.528604
711.105980,0.529367
711.411920,0.534490
711.717820,0.532943
712.023680,0.534007
712.329500,0.539038
712.635280,0.535271
712.941020,0.535369
713.246720,0.535968
713.552380,0.536107
713.858000,0.527395
714.163580,0.535912
714.469120,0.527941
714.774620,0.536913
715.080080,0.534747
715.385500,0.543165
715.690880,0.536489
715.996220,0.538827
716.301520,0.540711
716.606780,0.541667
716.912000,0.544426
717.217180,0.543496
717.522320,0.535586
717.827420,0.542718
718.132480,0.539944
718.437500,0.543416
718.742480,0.543952
719.047420,0.543689
719.352320,0.550851
719.657180,0.551922
719.962000,0.540943
720.266780,0.541753
720.571520,0.541011
720.876220,0.541735
721.180880,0.543896
721.485500,0.541580
721.790080,0.560085
722.094620,0.551029
722.399120,0.545024
722.703580,0.535791
723.008000,0.550237
723.312380,0.547137
723.616720,0.534212
723.921020,0.543525
724.225280,0.551047
724.529500,0.552102
724.833680,0.557384
725.137820,0.545374
725.441920,0.545698
725.745980,0.546756
726.050000,0.557510
726.353980,0.552050
726.657920,0.544759
726.961820,0.559361
727.265680,0.553860
727.569500,0.558958
727.873280,0.549654
728.177020,0.551359
728.480720,0.559259
728.784380,0.559887
729.088000,0.556759
729.391580,0.558503
729.695120,0.559981
729.998620,0.556883
730.302080,0.555983
730.605500,0.562834
730.908880,0.544341
731.212220,0.559256
731.515520,0.559239
731.818780,0.551456
732.122000,0.561024
732.425180,0.547560
732.728320,0.553297
733.031420,0.551880
733.334480,0.552551
733.637500,0.562500
733.940480,0.569601
734.243420,0.565749
734.546320,0.562759
734.849180,0.555269
735.152000,0.563797
735.454780,0.564050
735.757520,0.564278
736.060220,0.564508
736.362880,0.570378
736.665500,0.556658
736.968080,0.568512
737.270620,0.560152
737.573120,0.568231
737.875580,0.570643
738.178000,0.570495
738.480380,0.564865
738.782720,0.559978
739.085020,0.577643
739.387280,0.558204
739.689500,0.573046
739.991680,0.570466
740.293820,0.571587
740.595920,0.556483
740.897980,0.569735
741.200000,0.567022
741.501980,0.573066
741.803920,0.559685
742.105820,0.560632
742.407680,0.575422
742.709500,0.560795
743.011280,0.567995
743.313020,0.572174
743.614720,0.566454
743.916380,0.568023
744.218000,0.576969
744.519580,0.573671
744.821120,0.586228
745.122620,0.568604
745.424080,0.566707
745.725500,0.581171
746.026880,0.576970
746.328220,0.563502
746.629520,0.561710
746.930780,0.564951
747.232000,0.572042
747.533180,0.571080
747.834320,0.582471
748.135420,0.576756
748.436480,0.569557
748.737500,0.575046
749.038480,0.567502
749.339420,0.579963
749.640320,0.585795
749.941180,0.573392
750.242000,0.582286
750.542780,0.576923
750.843520,0.596413
751.144220,0.575641
751.444880,0.573874
751.745500,0.577922
752.046080,0.594612
752.346620,0.577964
752.647120,0.572828
752.947580,0.580854
753.248000,0.573179
753.548380,0.581653
753.848720,0.582099
754.149020,0.572534
754.449280,0.585030
754.749500,0.578633
755.049680,0.583333
755.349820,0.592395
755.649920,0.581626
755.949980,0.589250
756.250000,0.585141
756.549980,0.580858
756.849920,0.594154
757.149820,0.566201
757.449680,0.578878
757.749500,0.588957
758.049280,0.582253
758.349020,0.577886
758.648720,0.591442
758.948380,0.595189
759.248000,0.584906
759.547580,0.592468
759.847120,0.592006
760.146620,0.601488
760.446080,0.591398
760.745500,0.593706
761.044880,0.589489
761.344220,0.596579
761.643520,0.596751
761.942780,0.596221
762.242000,0.594767
762.541180,0.584507
762.840320,0.589185
763.139420,0.591421
763.438480,0.578264
763.737500,0.596141
764.036480,0.611461
764.335420,0.595625
764.634320,0.587665
764.933180,0.595205
765.232000,0.588480
765.530780,0.597193
765.829520,0.605594
766.128220,0.593598
766.426880,0.604122
766.725500,0.607265
767.024080,0.593964
767.322620,0.587828
767.621120,0.604336
767.919580,0.594539
768.218000,0.593707
768.516380,0.603786
768.814720,0.596708
769.113020,0.600965
769.411280,0.616022
769.709500,0.609608
770.007680,0.597819
770.305820,0.604462
770.603920,0.597709
770.901980,0.598361
771.200000,0.595109
771.497980,0.583780
771.795920,0.587291
772.093820,0.586898
772.391680,0.611074
772.689500,0.600676
772.987280,0.611448
773.285020,0.604238
773.582720,0.609459
773.880380,0.612903
774.178000,0.603954
774.475580,0.604153
774.773120,0.597055
775.070620,0.611900
775.368080,0.597194
775.665500,0.592344
775.962880,0.607738
776.260220,0.604307
776.557520,0.605737
776.854780,0.611224
777.152000,0.606764
777.449180,0.617667
777.746320,0.604167
778.043420,0.616644
778.340480,0.612314
778.637500,0.614604
778.934480,0.605245
779.231420,0.613976
779.528320,0.599198
779.825180,0.596179
780.122000,0.612218
780.418780,0.616963
780.715520,0.617706
781.012220,0.620548
781.308880,0.618661
781.605500,0.619863
781.902080,0.616701
782.198620,0.617908
782.495120,0.623457
782.791580,0.621045
783.088000,0.622498
783.384380,0.612105
783.680720,0.610807
783.977020,0.616655
784.273280,0.616084
784.569500,0.613557
784.865680,0.619611
785.161820,0.620833
785.457920,0.620236
785.753980,0.613398
786.050000,0.612569
786.345980,0.608333
786.641920,0.620402
786.937820,0.627493
787.233680,0.604732
787.529500,0.615811
787.825280,0.630312
788.121020,0.626062
788.416720,0.605505
788.712380,0.612130
789.008000,0.614023
789.303580,0.614841
789.599120,0.626182
789.894620,0.626715
790.190080,0.620015
790.485500,0.624190
790.780880,0.612903
791.076220,0.608225
791.371520,0.618010
791.666780,0.618182
791.962000,0.621602
792.257180,0.622987
792.552320,0.625816
792.847420,0.618632
793.142480,0.624908
793.437500,0.616498
793.732480,0.624726
794.027420,0.621662
794.322320,0.622670
794.617180,0.632244
794.912000,0.632244
795.206780,0.628635
795.501520,0.640304
795.796220,0.619259
796.090880,0.623964
796.385500,0.616192
796.680080,0.626028
796.974620,0.624251
797.269120,0.626798
797.563580,0.619084
797.858000,0.615034
798.152380,0.634957
798.446720,0.630769
798.741020,0.628659
799.035280,0.627329
799.329500,0.621247
799.623680,0.634109
