399.985280,0.229730
400.329500,0.175676
400.673680,0.139241
401.017820,0.220588
401.361920,0.212121
401.705980,0.207317
402.050000,0.168831
402.393980,0.223529
402.737920,0.146067
403.081820,0.154639
403.425680,0.174419
403.769500,0.156250
404.113280,0.149425
404.457020,0.258427
404.800720,0.195652
405.144380,0.272727
405.488000,0.204301
405.831580,0.226804
406.175120,0.234043
406.518620,0.190000
406.862080,0.237113
407.205500,0.135417
407.548880,0.153061
407.892220,0.127451
408.235520,0.170213
408.578780,0.200000
408.922000,0.105769
409.265180,0.202020
409.608320,0.202020
409.951420,0.206186
410.294480,0.215686
410.637500,0.184783
410.980480,0.186275
411.323420,0.193878
411.666320,0.174312
412.009180,0.200000
412.352000,0.178218
412.694780,0.192661
413.037520,0.137615
413.380220,0.180180
413.722880,0.178571
414.065500,0.162162
414.408080,0.132743
414.750620,0.141593
415.093120,0.115702
415.435580,0.193277
415.778000,0.204545
416.120380,0.159664
416.462720,0.134921
416.805020,0.195489
417.147280,0.194030
417.489500,0.178571
417.831680,0.150685
418.173820,0.156028
418.515920,0.167832
418.857980,0.177215
419.200000,0.166667
419.541980,0.201183
419.883920,0.191011
420.225820,0.196532
420.567680,0.173184
420.909500,0.174863
421.251280,0.140625
421.593020,0.188776
421.934720,0.161616
422.276380,0.158974
422.618000,0.181373
422.959580,0.171569
423.301120,0.178082
423.642620,0.165217
423.984080,0.162791
424.325500,0.156951
424.666880,0.176724
425.008220,0.159664
425.349520,0.156780
425.690780,0.165385
426.032000,0.164706
426.373180,0.186722
426.714320,0.167969
427.055420,0.142857
427.396480,0.161049
427.737500,0.169960
428.078480,0.166008
428.419420,0.172691
428.760320,0.172414
429.101180,0.200787
429.442000,0.180077
429.782780,0.192308
430.123520,0.160784
430.464220,0.169742
430.804880,0.180077
431.145500,0.152727
431.486080,0.172285
431.826620,0.193798
432.167120,0.165441
432.507580,0.166667
432.848000,0.169065
433.188380,0.155235
433.528720,0.158491
433.869020,0.178571
434.209280,0.140351
434.549500,0.177700
434.889680,0.185185
435.229820,0.160410
435.569920,0.148789
435.909980,0.161812
436.250000,0.186441
436.589980,0.136223
436.929920,0.165079
437.269820,0.181818
437.609680,0.180473
437.949500,0.177711
438.289280,0.172805
438.629020,0.197674
438.968720,0.162791
439.308380,0.149051
439.648000,0.153425
439.987580,0.161376
440.327120,0.170667
440.666620,0.176623
441.006080,0.168798
441.345500,0.174447
441.684880,0.160287
442.024220,0.161290
442.363520,0.159524
442.702780,0.163636
443.042000,0.156388
443.381180,0.170259
443.720320,0.179266
444.059420,0.153361
444.398480,0.173640
444.737500,0.163934
445.076480,0.164683
445.415420,0.153693
445.754320,0.162162
446.093180,0.174312
446.432000,0.186090
446.770780,0.174573
447.109520,0.174632
447.448220,0.187835
447.786880,0.180680
448.125500,0.167241
448.464080,0.157143
448.802620,0.168440
449.141120,0.179931
449.479580,0.167832
449.818000,0.172117
450.156380,0.155518
450.494720,0.171901
450.833020,0.174825
451.171280,0.164384
451.509500,0.175958
451.847680,0.177066
452.185820,0.170396
452.523920,0.166667
452.861980,0.166948
453.200000,0.171096
453.537980,0.176471
453.875920,0.178151
454.213820,0.160959
454.551680,0.168874
454.889500,0.151771
455.227280,0.161922
455.565020,0.179229
455.902720,0.174709
456.240380,0.169717
456.578000,0.188153
456.915580,0.176166
457.253120,0.180921
457.590620,0.182266
457.928080,0.183502
458.265500,0.175676
458.602880,0.168831
458.940220,0.172589
459.277520,0.168000
459.614780,0.189853
459.952000,0.172360
460.289180,0.174051
460.626320,0.179528
460.963420,0.177706
461.300480,0.178899
461.637500,0.172573
461.974480,0.181957
462.311420,0.177347
462.648320,0.172767
462.985180,0.179340
463.322000,0.177083
463.658780,0.172652
463.995520,0.167813
464.332220,0.181440
464.668880,0.181452
465.005500,0.183646
465.342080,0.177977
465.678620,0.178352
466.015120,0.183700
466.351580,0.185841
466.688000,0.174178
467.024380,0.185905
467.360720,0.176136
467.697020,0.171982
468.033280,0.183333
468.369500,0.188742
468.705680,0.184893
469.041820,0.179167
469.377920,0.169197
469.713980,0.177137
470.050000,0.181643
470.385980,0.177104
470.721920,0.184133
471.057820,0.181287
471.393680,0.186155
471.729500,0.178869
472.065280,0.189624
472.401020,0.181738
472.736720,0.181501
473.072380,0.188510
473.408000,0.182768
473.743580,0.183391
474.079120,0.189492
474.414620,0.183206
474.750080,0.184703
475.085500,0.185033
475.420880,0.179850
475.756220,0.190515
476.091520,0.184143
476.426780,0.186084
476.762000,0.177796
477.097180,0.192000
477.432320,0.184976
477.767420,0.191176
478.102480,0.185827
478.437500,0.187192
478.772480,0.183609
479.107420,0.182262
479.442320,0.188649
479.777180,0.188544
480.112000,0.184129
480.446780,0.184723
480.781520,0.185185
481.116220,0.189976
481.450880,0.195160
481.785500,0.196203
482.120080,0.187304
482.454620,0.191919
482.789120,0.189490
483.123580,0.195483
483.458000,0.197785
483.792380,0.193291
484.126720,0.193822
484.461020,0.191257
484.795280,0.200463
485.129500,0.194856
485.463680,0.194574
485.797820,0.202177
486.131920,0.200459
486.465980,0.197683
486.800000,0.199237
487.133980,0.197130
487.467920,0.201224
487.801820,0.212052
488.135680,0.202426
488.469500,0.200454
488.803280,0.198366
489.137020,0.202930
489.470720,0.206231
489.804380,0.201188
490.138000,0.210682
490.471580,0.210022
490.805120,0.205147
491.138620,0.205402
491.472080,0.204947
491.805500,0.209205
492.138880,0.211258
492.472220,0.208997
492.805520,0.207402
493.138780,0.217092
493.472000,0.214047
493.805180,0.214188
494.138320,0.210140
494.471420,0.207682
494.804480,0.221216
495.137500,0.223363
495.470480,0.218611
495.803420,0.210957
496.136320,0.217419
496.469180,0.210559
496.802000,0.216993
497.134780,0.223166
497.467520,0.221407
497.800220,0.222877
498.132880,0.219283
498.465500,0.224218
498.798080,0.220320
499.130620,0.223470
499.463120,0.221786
499.795580,0.225523
500.128000,0.221253
500.460380,0.223358
500.792720,0.220042
501.125020,0.217551
501.457280,0.224543
501.789500,0.224690
502.121680,0.232245
502.453820,0.223355
502.785920,0.223612
503.117980,0.222277
503.450000,0.230537
503.781980,0.235675
504.113920,0.226174
504.445820,0.230433
504.777680,0.221176
505.109500,0.232212
505.441280,0.231358
505.773020,0.226397
506.104720,0.231748
506.436380,0.234264
506.768000,0.228251
507.099580,0.223799
507.431120,0.224356
507.762620,0.228853
508.094080,0.235187
508.425500,0.238562
508.756880,0.233653
509.088220,0.230911
509.419520,0.236034
509.750780,0.234770
510.082000,0.230877
510.413180,0.236297
510.744320,0.240221
511.075420,0.236480
511.406480,0.241185
511.737500,0.237500
512.068480,0.242011
512.399420,0.238028
512.730320,0.239723
513.061180,0.238344
513.392000,0.244203
513.722780,0.243516
514.053520,0.241016
514.384220,0.244529
514.714880,0.246529
515.045500,0.242816
515.376080,0.246005
515.706620,0.247443
516.037120,0.243627
516.367580,0.251355
516.698000,0.240196
517.028380,0.255214
517.358720,0.245926
517.689020,0.250247
518.019280,0.254390
518.349500,0.255449
518.679680,0.252398
519.009820,0.260121
519.339920,0.260020
519.669980,0.253139
520.000000,0.260316
520.329980,0.260757
520.659920,0.256646
520.989820,0.262126
521.319680,0.263374
521.649500,0.258612
521.979280,0.258351
522.309020,0.257780
522.638720,0.257552
522.968380,0.263702
523.298000,0.270355
523.627580,0.267460
523.957120,0.263896
524.286620,0.267848
524.616080,0.267322
524.945500,0.265116
525.274880,0.273987
525.604220,0.266563
525.933520,0.266771
526.262780,0.259503
526.592000,0.269406
526.921180,0.272219
527.250320,0.268392
527.579420,0.274381
527.908480,0.275234
528.237500,0.273585
528.566480,0.268962
528.895420,0.274519
529.224320,0.275384
529.553180,0.271325
529.882000,0.284185
530.210780,0.277510
530.539520,0.280441
530.868220,0.276687
531.196880,0.279981
531.525500,0.282809
531.854080,0.280957
532.182620,0.281644
532.511120,0.290023
532.839580,0.284936
533.168000,0.289881
533.496380,0.286301
533.824720,0.283535
534.153020,0.288007
534.481280,0.286344
534.809500,0.294195
535.137680,0.289497
535.465820,0.285653
535.793920,0.290186
536.121980,0.295426
536.450000,0.294715
536.777980,0.304985
537.105920,0.300955
537.433820,0.297872
537.761680,0.304898
538.089500,0.301902
538.417280,0.297652
538.745020,0.301109
539.072720,0.295588
539.400380,0.298368
539.728000,0.302868
540.055580,0.295131
540.383120,0.302681
540.710620,0.303571
541.038080,0.310586
541.365500,0.307721
541.692880,0.306686
542.020220,0.299748
542.347520,0.309045
542.674780,0.305575
543.002000,0.303009
543.329180,0.315328
543.656320,0.316456
543.983420,0.304615
544.310480,0.313626
544.637500,0.317298
544.964480,0.308883
545.291420,0.311067
545.618320,0.318061
545.945180,0.312459
546.272000,0.311271
546.598780,0.313340
546.925520,0.314540
547.252220,0.315616
547.578880,0.321277
547.905500,0.317974
548.232080,0.318389
548.558620,0.315978
548.885120,0.325155
549.211580,0.319833
549.538000,0.321660
549.864380,0.318971
550.190720,0.321924
550.517020,0.321056
550.843280,0.328664
551.169500,0.323155
551.495680,0.324244
551.821820,0.327237
552.147920,0.323357
552.473980,0.331577
552.800000,0.326684
553.125980,0.331041
553.451920,0.334107
553.777820,0.333444
554.103680,0.334007
554.429500,0.330767
554.755280,0.337784
555.081020,0.335561
555.406720,0.333220
555.732380,0.341918
556.058000,0.339783
556.383580,0.341321
556.709120,0.342522
557.034620,0.337582
557.360080,0.332642
557.685500,0.340249
558.010880,0.337262
558.336220,0.342004
558.661520,0.345977
558.986780,0.342665
559.312000,0.341168
559.637180,0.343986
559.962320,0.341759
560.287420,0.344852
560.612480,0.344815
560.937500,0.349853
561.262480,0.348240
561.587420,0.343489
561.912320,0.347089
562.237180,0.348631
562.562000,0.352787
562.886780,0.350056
563.211520,0.344635
563.536220,0.348052
563.860880,0.352320
564.185500,0.355347
564.510080,0.358164
564.834620,0.352810
565.159120,0.353383
565.483580,0.350057
565.808000,0.354143
566.132380,0.353599
566.456720,0.358277
566.781020,0.354089
567.105280,0.356144
567.429500,0.365326
567.753680,0.359801
568.077820,0.360263
568.401920,0.362490
568.725980,0.357495
569.050000,0.371103
569.373980,0.360487
569.697920,0.368601
570.021820,0.367790
570.345680,0.366246
570.669500,0.370851
570.993280,0.367663
571.317020,0.366460
571.640720,0.372731
571.964380,0.371566
572.288000,0.368323
572.611580,0.371771
572.935120,0.374860
573.258620,0.379207
573.582080,0.373323
573.905500,0.376396
574.228880,0.377506
574.552220,0.377794
574.875520,0.382725
575.198780,0.375136
575.522000,0.381232
575.845180,0.380731
576.168320,0.381243
576.491420,0.387718
576.814480,0.391320
577.137500,0.392496
577.460480,0.385647
577.783420,0.390497
578.106320,0.396724
578.429180,0.387416
578.752000,0.401181
579.074780,0.395819
579.397520,0.386378
579.720220,0.388996
580.042880,0.391807
580.365500,0.394441
580.688080,0.391791
581.010620,0.395208
581.333120,0.397462
581.655580,0.396936
581.978000,0.400067
582.300380,0.400844
582.622720,0.400132
582.945020,0.405072
583.267280,0.402149
583.589500,0.405136
583.911680,0.402350
584.233820,0.404470
584.555920,0.407816
584.877980,0.402010
585.200000,0.391037
585.521980,0.405622
585.843920,0.407261
586.165820,0.408592
586.487680,0.413783
586.809500,0.407141
587.131280,0.407867
587.453020,0.412202
587.774720,0.414843
588.096380,0.412485
588.418000,0.406497
588.739580,0.418511
589.061120,0.413456
589.382620,0.412034
589.704080,0.413745
590.025500,0.416667
590.346880,0.414559
590.668220,0.421171
590.989520,0.419301
591.310780,0.427506
591.632000,0.421858
591.953180,0.425685
592.274320,0.416325
592.595420,0.417834
592.916480,0.420810
593.237500,0.423336
593.558480,0.437181
593.879420,0.427030
594.200320,0.425663
594.521180,0.426295
594.842000,0.429070
595.162780,0.426282
595.483520,0.435522
595.804220,0.435553
596.124880,0.434053
596.445500,0.432539
596.766080,0.444743
597.086620,0.430732
597.407120,0.429437
597.727580,0.436754
598.048000,0.436392
598.368380,0.433982
598.688720,0.434600
599.009020,0.441083
599.329280,0.440660
599.649500,0.436873
599.969680,0.440705
600.289820,0.436432
600.609920,0.441892
600.929980,0.438268
601.250000,0.440000
601.569980,0.434513
601.889920,0.443999
602.209820,0.440476
602.529680,0.449327
602.849500,0.445172
603.169280,0.450262
603.489020,0.447827
603.808720,0.446791
604.128380,0.448951
604.448000,0.447790
604.767580,0.458380
605.087120,0.445983
605.406620,0.450322
605.726080,0.454234
606.045500,0.451379
606.364880,0.452509
606.684220,0.454312
607.003520,0.448394
607.322780,0.453667
607.642000,0.452613
607.961180,0.454756
608.280320,0.457367
608.599420,0.454519
608.918480,0.453079
609.237500,0.458920
609.556480,0.456940
609.875420,0.458653
610.194320,0.459699
610.513180,0.462859
610.832000,0.462775
611.150780,0.468609
611.469520,0.461538
611.788220,0.467050
612.106880,0.465621
612.425500,0.465591
612.744080,0.465682
613.062620,0.460550
613.381120,0.457038
613.699580,0.467505
614.018000,0.465602
614.336380,0.467921
614.654720,0.467287
614.973020,0.474853
615.291280,0.467927
615.609500,0.475436
615.927680,0.471570
616.245820,0.472480
616.563920,0.473112
616.881980,0.473028
617.200000,0.470295
617.517980,0.467330
617.835920,0.468468
618.153820,0.465340
618.471680,0.476899
618.789500,0.481120
619.107280,0.479186
619.425020,0.478592
619.742720,0.468927
620.060380,0.472893
620.378000,0.471366
620.695580,0.478927
621.013120,0.478740
621.330620,0.491057
621.648080,0.476025
621.965500,0.483061
622.282880,0.477301
622.600220,0.487682
622.917520,0.487398
623.234780,0.491803
623.552000,0.484405
623.869180,0.488812
624.186320,0.487106
624.503420,0.489342
624.820480,0.481935
625.137500,0.484370
625.454480,0.493904
625.771420,0.489281
626.088320,0.492749
626.405180,0.497822
626.722000,0.492472
627.038780,0.492794
627.355520,0.493750
627.672220,0.490513
627.988880,0.495179
628.305500,0.493612
628.622080,0.505886
628.938620,0.499388
629.255120,0.495022
629.571580,0.498927
629.888000,0.502915
630.204380,0.493710
630.520720,0.498781
630.837020,0.502313
631.153280,0.499101
631.469500,0.503639
631.785680,0.509042
632.101820,0.504825
632.417920,0.501937
632.733980,0.492797
633.050000,0.510612
633.365980,0.503853
633.681920,0.503282
633.997820,0.509863
634.313680,0.509584
634.629500,0.503981
634.945280,0.512317
635.261020,0.512474
635.576720,0.514974
635.892380,0.507697
636.208000,0.509297
636.523580,0.515054
636.839120,0.515924
637.154620,0.519710
637.470080,0.507891
637.785500,0.522567
638.100880,0.514625
638.416220,0.515962
638.731520,0.515186
639.046780,0.513836
639.362000,0.512901
639.677180,0.513992
639.992320,0.508881
640.307420,0.516718
640.622480,0.515262
640.937500,0.523440
641.252480,0.529461
641.567420,0.522876
641.882320,0.521158
642.197180,0.526670
642.512000,0.518332
642.826780,0.525936
643.141520,0.525146
643.456220,0.524903
643.770880,0.527363
644.085500,0.521520
644.400080,0.528090
644.714620,0.534281
645.029120,0.536029
645.343580,0.529896
645.658000,0.535942
645.972380,0.533023
646.286720,0.529027
646.601020,0.533352
646.915280,0.533863
647.229500,0.529670
647.543680,0.530240
647.857820,0.529315
648.171920,0.532284
648.485980,0.527268
648.800000,0.531551
649.113980,0.539911
649.427920,0.539251
649.741820,0.529816
650.055680,0.540044
650.369500,0.536996
650.683280,0.533851
650.997020,0.536304
651.310720,0.528343
651.624380,0.532692
651.938000,0.535180
652.251580,0.535486
652.565120,0.535215
652.878620,0.538570
653.192080,0.539326
653.505500,0.536325
653.818880,0.547341
654.132220,0.545713
654.445520,0.541407
654.758780,0.543343
655.072000,0.539255
655.385180,0.541512
655.698320,0.536725
656.011420,0.537403
656.324480,0.543865
656.637500,0.544902
656.950480,0.545802
657.263420,0.540349
657.576320,0.544619
657.889180,0.544972
658.202000,0.546498
658.514780,0.551355
658.827520,0.549820
659.140220,0.547198
659.452880,0.546059
659.765500,0.546057
660.078080,0.544689
660.390620,0.550565
660.703120,0.551787
661.015580,0.550307
661.328000,0.560453
661.640380,0.557005
661.952720,0.552164
662.265020,0.555135
662.577280,0.549936
662.889500,0.550930
663.201680,0.550415
663.513820,0.555806
663.825920,0.552354
664.137980,0.554299
664.450000,0.546995
664.761980,0.551882
665.073920,0.557611
665.385820,0.562827
665.697680,0.562314
666.009500,0.558031
666.321280,0.559642
666.633020,0.563497
666.944720,0.553758
667.256380,0.550808
667.568000,0.559443
667.879580,0.565986
668.191120,0.562157
668.502620,0.567271
668.814080,0.563509
669.125500,0.562436
669.436880,0.563278
669.748220,0.568363
670.059520,0.570378
670.370780,0.560891
670.682000,0.566726
670.993180,0.556025
671.304320,0.560478
671.615420,0.558949
671.926480,0.567069
672.237500,0.559843
672.548480,0.565295
672.859420,0.566119
673.170320,0.562568
673.481180,0.566256
673.792000,0.564731
674.102780,0.566248
674.413520,0.574189
674.724220,0.563702
675.034880,0.567290
675.345500,0.569657
675.656080,0.564428
675.966620,0.570025
676.277120,0.569755
676.587580,0.581001
676.898000,0.575215
677.208380,0.568946
677.518720,0.575857
677.829020,0.566888
678.139280,0.570793
678.449500,0.563312
678.759680,0.571750
679.069820,0.573234
679.379920,0.571105
679.689980,0.572596
680.000000,0.574206
680.309980,0.569785
680.619920,0.572510
680.929820,0.577454
681.239680,0.569424
681.549500,0.571111
681.859280,0.581031
682.169020,0.576651
682.478720,0.586013
682.788380,0.577335
683.098000,0.581900
683.407580,0.584615
683.717120,0.579955
684.026620,0.582455
684.336080,0.585828
684.645500,0.572765
684.954880,0.573857
685.264220,0.579464
685.573520,0.580510
685.882780,0.583813
686.192000,0.583521
686.501180,0.589103
686.810320,0.591852
687.119420,0.584949
687.428480,0.583745
687.737500,0.591711
688.046480,0.580521
688.355420,0.585817
688.664320,0.587223
688.973180,0.588438
689.282000,0.590278
689.590780,0.593558
689.899520,0.574250
690.208220,0.594419
690.516880,0.594120
690.825500,0.584528
691.134080,0.583523
691.442620,0.587271
691.751120,0.589685
692.059580,0.591517
692.368000,0.584627
692.676380,0.598473
692.984720,0.597710
693.293020,0.595365
693.601280,0.596337
693.909500,0.592130
694.217680,0.592536
694.525820,0.595963
694.833920,0.594048
695.141980,0.600463
695.450000,0.593893
695.757980,0.584034
696.065920,0.588738
696.373820,0.600847
696.681680,0.594937
696.989500,0.602856
697.297280,0.590821
697.605020,0.611905
697.912720,0.588778
698.220380,0.595828
698.528000,0.596915
698.835580,0.593836
699.143120,0.593920
699.450620,0.599045
699.758080,0.592941
700.065500,0.606544
700.372880,0.602800
700.680220,0.597527
700.987520,0.610317
701.294780,0.600568
701.602000,0.607765
701.909180,0.612480
702.216320,0.599531
702.523420,0.598658
702.830480,0.607921
703.137500,0.603274
703.444480,0.598817
703.751420,0.604734
704.058320,0.607044
704.365180,0.604890
704.672000,0.610297
704.978780,0.617245
705.285520,0.602113
705.592220,0.599608
705.898880,0.594563
706.205500,0.600939
706.512080,0.614139
706.818620,0.615325
707.125120,0.599615
707.431580,0.608050
707.738000,0.610547
708.044380,0.599768
708.350720,0.606420
708.657020,0.608832
708.963280,0.613742
709.269500,0.606262
709.575680,0.616896
709.881820,0.615959
710.187920,0.612062
710.493980,0.603569
710.800000,0.607933
711.105980,0.611822
711.411920,0.612929
711.717820,0.603509
712.023680,0.614458
712.329500,0.623028
712.635280,0.621705
712.941020,0.610359
713.246720,0.626482
713.552380,0.613030
713.858000,0.623177
714.163580,0.612470
714.469120,0.615084
714.774620,0.613897
715.080080,0.618375
715.385500,0.625100
715.690880,0.618146
715.996220,0.610143
716.301520,0.623715
716.606780,0.615566
716.912000,0.625202
717.217180,0.623703
717.522320,0.622664
717.827420,0.627746
718.132480,0.621839
718.437500,0.618426
718.742480,0.621371
719.047420,0.616100
719.352320,0.620589
719.657180,0.623467
719.962000,0.615798
720.266780,0.619443
720.571520,0.608534
720.876220,0.616203
721.180880,0.628344
721.485500,0.617635
721.790080,0.620807
722.094620,0.629074
722.399120,0.629039
722.703580,0.611659
723.008000,0.620526
723.312380,0.628498
723.616720,0.618360
723.921020,0.619316
724.225280,0.627400
724.529500,0.612084
724.833680,0.628559
725.137820,0.619824
725.441920,0.620152
725.745980,0.621924
726.050000,0.629680
726.353980,0.620550
726.657920,0.615834
726.961820,0.629224
727.265680,0.627369
727.569500,0.626143
727.873280,0.615242
728.177020,0.623676
728.480720,0.616204
728.784380,0.628934
729.088000,0.627414
729.391580,0.617243
729.695120,0.637716
729.998620,0.630975
730.302080,0.627102
730.605500,0.622513
730.908880,0.632043
731.212220,0.630754
731.515520,0.624573
731.818780,0.614563
732.122000,0.624508
732.425180,0.624446
732.728320,0.620724
733.031420,0.630075
733.334480,0.627041
733.637500,0.631048
733.940480,0.639713
734.243420,0.628950
734.546320,0.637448
734.849180,0.625517
735.152000,0.630187
735.454780,0.625000
735.757520,0.630137
736.060220,0.637177
736.362880,0.623950
736.665500,0.621410
736.968080,0.637292
737.270620,0.635275
737.573120,0.629367
737.875580,0.637713
738.178000,0.632553
738.480380,0.632973
738.782720,0.624318
739.085020,0.627203
739.387280,0.626940
739.689500,0.629105
739.991680,0.636159
740.293820,0.632946
740.595920,0.634947
740.897980,0.634670
741.200000,0.634324
741.501980,0.634957
741.803920,0.628378
742.105820,0.621545
742.407680,0.637158
742.709500,0.638636
743.011280,0.637163
743.313020,0.632464
743.614720,0.636100
743.916380,0.626163
744.218000,0.637828
744.519580,0.628623
744.821120,0.646108
745.122620,0.632115
745.424080,0.627404
745.725500,0.645745
746.026880,0.641010
746.328220,0.641800
746.629520,0.629139
746.930780,0.620098
747.232000,0.636419
747.533180,0.643685
747.834320,0.639075
748.135420,0.633313
748.436480,0.638178
748.737500,0.638666
749.038480,0.630422
749.339420,0.649035
749.640320,0.641735
749.941180,0.634603
750.242000,0.634422
750.542780,0.641439
750.843520,0.640615
751.144220,0.635897
751.444880,0.643627
751.745500,0.642857
752.046080,0.638871
752.346620,0.635954
752.647120,0.633573
752.947580,0.635834
753.248000,0.626692
753.548380,0.634353
753.848720,0.640052
754.149020,0.619600
754.449280,0.645437
754.749500,0.636364
755.049680,0.644667
755.349820,0.649099
755.649920,0.653668
755.949980,0.639018
756.250000,0.643655
756.549980,0.635644
756.849920,0.641061
757.149820,0.636727
757.449680,0.636304
757.749500,0.646217
758.049280,0.649829
758.349020,0.639082
758.648720,0.649413
758.948380,0.637113
759.248000,0.648248
759.547580,0.655683
759.847120,0.640248
760.146620,0.640054
760.446080,0.645833
760.745500,0.658042
761.044880,0.647017
761.344220,0.647897
761.643520,0.641243
761.942780,0.649405
762.242000,0.645686
762.541180,0.650000
762.840320,0.647472
763.139420,0.652602
763.438480,0.654135
763.737500,0.645762
764.036480,0.654088
764.335420,0.638673
764.634320,0.645184
764.933180,0.643151
765.232000,0.647467
765.530780,0.640000
765.829520,0.654545
766.128220,0.652053
766.426880,0.658138
766.725500,0.653873
767.024080,0.634431
767.322620,0.660443
767.621120,0.644986
767.919580,0.655973
768.218000,0.647059
768.516380,0.640974
768.814720,0.649520
769.113020,0.650586
769.411280,0.656768
769.709500,0.652233
770.007680,0.627812
770.305820,0.656525
770.603920,0.651617
770.901980,0.655055
771.200000,0.656929
771.497980,0.633378
771.795920,0.649498
772.093820,0.644385
772.391680,0.646012
772.689500,0.651351
772.987280,0.657239
773.285020,0.651401
773.582720,0.661486
773.880380,0.652711
774.178000,0.649625
774.475580,0.647689
774.773120,0.648594
775.070620,0.657201
775.368080,0.658651
775.665500,0.633983
775.962880,0.639093
776.260220,0.656124
776.557520,0.661107
776.854780,0.659905
777.152000,0.635942
777.449180,0.652731
777.746320,0.638441
778.043420,0.662347
778.340480,0.659675
778.637500,0.663286
778.934480,0.652320
779.231420,0.659430
779.528320,0.658651
779.825180,0.640975
780.122000,0.648074
780.418780,0.666895
780.715520,0.653924
781.012220,0.659589
781.308880,0.663286
781.605500,0.656849
781.902080,0.650924
782.198620,0.663705
782.495120,0.664609
782.791580,0.673315
783.088000,0.657005
783.384380,0.668501
783.680720,0.651847
783.977020,0.645561
784.273280,0.669930
784.569500,0.660377
784.865680,0.663421
785.161820,0.656944
785.457920,0.646570
785.753980,0.649686
786.050000,0.647790
786.345980,0.661111
786.641920,0.661346
786.937820,0.673077
787.233680,0.643702
787.529500,0.647712
787.825280,0.666431
788.121020,0.662181
788.416720,0.640790
788.712380,0.650917
789.008000,0.651558
789.303580,0.645230
789.599120,0.672727
789.894620,0.662094
790.190080,0.664249
790.485500,0.660187
790.780880,0.651613
791.076220,0.658009
791.371520,0.663036
791.666780,0.671273
791.962000,0.669361
792.257180,0.667643
792.552320,0.654097
792.847420,0.663028
793.142480,0.661538
793.437500,0.657019
793.732480,0.653255
794.027420,0.658754
794.322320,0.668158
794.617180,0.657504
794.912000,0.662704
795.206780,0.656227
795.501520,0.683650
795.796220,0.652593
796.090880,0.661643
796.385500,0.663418
796.680080,0.655946
796.974620,0.657934
797.269120,0.663891
797.563580,0.655725
797.858000,0.666667
798.152380,0.679814
798.446720,0.660769
798.741020,0.649461
799.035280,0.663043
799.329500,0.674365
799.623680,0.668217
