399.985280,0.202703
400.329500,0.202703
400.673680,0.151899
401.017820,0.161765
401.361920,0.121212
401.705980,0.170732
402.050000,0.168831
402.393980,0.235294
402.737920,0.247191
403.081820,0.175258
403.425680,0.151163
403.769500,0.145833
404.113280,0.172414
404.457020,0.179775
404.800720,0.195652
405.144380,0.191919
405.488000,0.139785
405.831580,0.195876
406.175120,0.138298
406.518620,0.230000
406.862080,0.195876
407.205500,0.187500
407.548880,0.183673
407.892220,0.186275
408.235520,0.212766
408.578780,0.200000
408.922000,0.173077
409.265180,0.202020
409.608320,0.222222
409.951420,0.237113
410.294480,0.225490
410.637500,0.173913
410.980480,0.235294
411.323420,0.173469
411.666320,0.165138
412.009180,0.254545
412.352000,0.168317
412.694780,0.192661
413.037520,0.165138
413.380220,0.180180
413.722880,0.178571
414.065500,0.216216
414.408080,0.150442
414.750620,0.150442
415.093120,0.165289
415.435580,0.218487
415.778000,0.196970
416.120380,0.168067
416.462720,0.198413
416.805020,0.203008
417.147280,0.156716
417.489500,0.221429
417.831680,0.171233
418.173820,0.184397
418.515920,0.202797
418.857980,0.208861
419.200000,0.179487
419.541980,0.165680
419.883920,0.129213
420.225820,0.196532
420.567680,0.201117
420.909500,0.207650
421.251280,0.203125
421.593020,0.168367
421.934720,0.186869
422.276380,0.194872
422.618000,0.205882
422.959580,0.200980
423.301120,0.191781
423.642620,0.156522
423.984080,0.158140
424.325500,0.192825
424.666880,0.181034
425.008220,0.176471
425.349520,0.186441
425.690780,0.176923
426.032000,0.172549
426.373180,0.170124
426.714320,0.183594
427.055420,0.189189
427.396480,0.209738
427.737500,0.181818
428.078480,0.173913
428.419420,0.188755
428.760320,0.157088
429.101180,0.208661
429.442000,0.199234
429.782780,0.169231
430.123520,0.168627
430.464220,0.151292
430.804880,0.210728
431.145500,0.170909
431.486080,0.194757
431.826620,0.166667
432.167120,0.183824
432.507580,0.181159
432.848000,0.187050
433.188380,0.212996
433.528720,0.177358
433.869020,0.189286
434.209280,0.185965
434.549500,0.181185
434.889680,0.168350
435.229820,0.187713
435.569920,0.166090
435.909980,0.181230
436.250000,0.203390
436.589980,0.179567
436.929920,0.174603
437.269820,0.175549
437.609680,0.186391
437.949500,0.192771
438.289280,0.195467
438.629020,0.197674
438.968720,0.203488
439.308380,0.178862
439.648000,0.202740
439.987580,0.190476
440.327120,0.205333
440.666620,0.200000
441.006080,0.194373
441.345500,0.174447
441.684880,0.188995
442.024220,0.186104
442.363520,0.188095
442.702780,0.190909
443.042000,0.182819
443.381180,0.204741
443.720320,0.205184
444.059420,0.176471
444.398480,0.167364
444.737500,0.184426
445.076480,0.180556
445.415420,0.183633
445.754320,0.178794
446.093180,0.192661
446.432000,0.178571
446.770780,0.203036
447.109520,0.198529
447.448220,0.202147
447.786880,0.196780
448.125500,0.191379
448.464080,0.194643
448.802620,0.189716
449.141120,0.185121
449.479580,0.195804
449.818000,0.201377
450.156380,0.193980
450.494720,0.198347
450.833020,0.206294
451.171280,0.183219
451.509500,0.198606
451.847680,0.190556
452.185820,0.187608
452.523920,0.206186
452.861980,0.197302
453.200000,0.182724
453.537980,0.189916
453.875920,0.189916
454.213820,0.188356
454.551680,0.201987
454.889500,0.198988
455.227280,0.190391
455.565020,0.189280
455.902720,0.202995
456.240380,0.176373
456.578000,0.203833
456.915580,0.200345
457.253120,0.202303
457.590620,0.206897
457.928080,0.217172
458.265500,0.207770
458.602880,0.209416
458.940220,0.196277
459.277520,0.198400
459.614780,0.198036
459.952000,0.194099
460.289180,0.212025
460.626320,0.201575
460.963420,0.206785
461.300480,0.192661
461.637500,0.200308
461.974480,0.209480
462.311420,0.210134
462.648320,0.196193
462.985180,0.203730
463.322000,0.217262
463.658780,0.200276
463.995520,0.206327
464.332220,0.203601
464.668880,0.209677
465.005500,0.218499
465.342080,0.209987
465.678620,0.209102
466.015120,0.216041
466.351580,0.206068
466.688000,0.213155
467.024380,0.215067
467.360720,0.217045
467.697020,0.217540
468.033280,0.216667
468.369500,0.211921
468.705680,0.219842
469.041820,0.223958
469.377920,0.208243
469.713980,0.204943
470.050000,0.221256
470.385980,0.217221
470.721920,0.219393
471.057820,0.221248
471.393680,0.220767
471.729500,0.220575
472.065280,0.222719
472.401020,0.221631
472.736720,0.208551
473.072380,0.217235
473.408000,0.208877
473.743580,0.215398
474.079120,0.218777
474.414620,0.212044
474.750080,0.208299
475.085500,0.221217
475.420880,0.216486
475.756220,0.219951
476.091520,0.226769
476.426780,0.225728
476.762000,0.217216
477.097180,0.228800
477.432320,0.223748
477.767420,0.226307
478.102480,0.218898
478.437500,0.228243
478.772480,0.221434
479.107420,0.227828
479.442320,0.231015
479.777180,0.238663
480.112000,0.228043
480.446780,0.219797
480.781520,0.225443
481.116220,0.235247
481.450880,0.231069
481.785500,0.226266
482.120080,0.237461
482.454620,0.233877
482.789120,0.233280
483.123580,0.232866
483.458000,0.231013
483.792380,0.236422
484.126720,0.235521
484.461020,0.227947
484.795280,0.239013
485.129500,0.239283
485.463680,0.234109
485.797820,0.242613
486.131920,0.235654
486.465980,0.238610
486.800000,0.247328
487.133980,0.237160
487.467920,0.237950
487.801820,0.247902
488.135680,0.247157
488.469500,0.241301
488.803280,0.254829
489.137020,0.242491
489.470720,0.248516
489.804380,0.250928
490.138000,0.255935
490.471580,0.245394
490.805120,0.247320
491.138620,0.248756
491.472080,0.247350
491.805500,0.253835
492.138880,0.250869
492.472220,0.258824
492.805520,0.258380
493.138780,0.258442
493.472000,0.250836
493.805180,0.258527
494.138320,0.258172
494.471420,0.255859
494.804480,0.260026
495.137500,0.258023
495.470480,0.253665
495.803420,0.255668
496.136320,0.267544
496.469180,0.263966
496.802000,0.259169
497.134780,0.257732
497.467520,0.268502
497.800220,0.259434
498.132880,0.269841
498.465500,0.271727
498.798080,0.261986
499.130620,0.267266
499.463120,0.261089
499.795580,0.263476
500.128000,0.260490
500.460380,0.265877
500.792720,0.267232
501.125020,0.266947
501.457280,0.267363
501.789500,0.271178
502.121680,0.274235
502.453820,0.269250
502.785920,0.276638
503.117980,0.269382
503.450000,0.274234
503.781980,0.273044
504.113920,0.274064
504.445820,0.281964
504.777680,0.270588
505.109500,0.280769
505.441280,0.278681
505.773020,0.273837
506.104720,0.278380
506.436380,0.280170
506.768000,0.279233
507.099580,0.275057
507.431120,0.280094
507.762620,0.277726
508.094080,0.275752
508.425500,0.286181
508.756880,0.278921
509.088220,0.282889
509.419520,0.280726
509.750780,0.279288
510.082000,0.287313
510.413180,0.286043
510.744320,0.291302
511.075420,0.285518
511.406480,0.285378
511.737500,0.285185
512.068480,0.286654
512.399420,0.292958
512.730320,0.282217
513.061180,0.289248
513.392000,0.285376
513.722780,0.294909
514.053520,0.297556
514.384220,0.294006
514.714880,0.296793
515.045500,0.287356
515.376080,0.302179
515.706620,0.298100
516.037120,0.293627
516.367580,0.301626
516.698000,0.298039
517.028380,0.303873
517.358720,0.301728
517.689020,0.304154
518.019280,0.305068
518.349500,0.306133
518.679680,0.303887
519.009820,0.297571
519.339920,0.313126
519.669980,0.302863
520.000000,0.312277
520.329980,0.308968
520.659920,0.307771
520.989820,0.311146
521.319680,0.310700
521.649500,0.305398
521.979280,0.311587
522.309020,0.309129
522.638720,0.304659
522.968380,0.320062
523.298000,0.318894
523.627580,0.320745
523.957120,0.320000
524.286620,0.312142
524.616080,0.317994
524.945500,0.318863
525.274880,0.326321
525.604220,0.321946
525.933520,0.318658
526.262780,0.311201
526.592000,0.322171
526.921180,0.321991
527.250320,0.323694
527.579420,0.326427
527.908480,0.320039
528.237500,0.326216
528.566480,0.321856
528.895420,0.330705
529.224320,0.326399
529.553180,0.328193
529.882000,0.326521
530.210780,0.330116
530.539520,0.332694
530.868220,0.335567
531.196880,0.330626
531.525500,0.346731
531.854080,0.338180
532.182620,0.334423
532.511120,0.333643
532.839580,0.343466
533.168000,0.337739
533.496380,0.342466
533.824720,0.338717
534.153020,0.341061
534.481280,0.342731
534.809500,0.337731
535.137680,0.345920
535.465820,0.340206
535.793920,0.343486
536.121980,0.343684
536.450000,0.344186
536.777980,0.351906
537.105920,0.353674
537.433820,0.348609
537.761680,0.352245
538.089500,0.355726
538.417280,0.354158
538.745020,0.354596
539.072720,0.355720
539.400380,0.351204
539.728000,0.353346
540.055580,0.347566
540.383120,0.349963
540.710620,0.355655
541.038080,0.353375
541.365500,0.362500
541.692880,0.364462
542.020220,0.360561
542.347520,0.370065
542.674780,0.354975
543.002000,0.364591
543.329180,0.368292
543.656320,0.375527
543.983420,0.371624
544.310480,0.360856
544.637500,0.366769
544.964480,0.365747
545.291420,0.364905
545.618320,0.370850
545.945180,0.365524
546.272000,0.365007
546.598780,0.369387
546.925520,0.367623
547.252220,0.369759
547.578880,0.369501
547.905500,0.377778
548.232080,0.372645
548.558620,0.375529
548.885120,0.376513
549.211580,0.366763
549.538000,0.375811
549.864380,0.379421
550.190720,0.380368
550.517020,0.380704
550.843280,0.380782
551.169500,0.376272
551.495680,0.378449
551.821820,0.384063
552.147920,0.380612
552.473980,0.382614
552.800000,0.384565
553.125980,0.391945
553.451920,0.385534
553.777820,0.387742
554.103680,0.387260
554.429500,0.386006
554.755280,0.393858
555.081020,0.385695
555.406720,0.386048
555.732380,0.383260
556.058000,0.389341
556.383580,0.391989
556.709120,0.389731
557.034620,0.390975
557.360080,0.396546
557.685500,0.397649
558.010880,0.395494
558.336220,0.391213
558.661520,0.400213
558.986780,0.400425
559.312000,0.398148
559.637180,0.402513
559.962320,0.393022
560.287420,0.406911
560.612480,0.393613
560.937500,0.408590
561.262480,0.398094
561.587420,0.396083
561.912320,0.403095
562.237180,0.408586
562.562000,0.410774
562.886780,0.407655
563.211520,0.406110
563.536220,0.404082
563.860880,0.413806
564.185500,0.412383
564.510080,0.407449
564.834620,0.413844
565.159120,0.410526
565.483580,0.412011
565.808000,0.409762
566.132380,0.411414
566.456720,0.415722
566.781020,0.411103
567.105280,0.412476
567.429500,0.411988
567.753680,0.413886
568.077820,0.418632
568.401920,0.416348
568.725980,0.413662
569.050000,0.420532
569.373980,0.419109
569.697920,0.417899
570.021820,0.419101
570.345680,0.419441
570.669500,0.420450
570.993280,0.420819
571.317020,0.423091
571.640720,0.426825
571.964380,0.420564
572.288000,0.424703
572.611580,0.431299
572.935120,0.426113
573.258620,0.422588
573.582080,0.430700
573.905500,0.424051
574.228880,0.435041
574.552220,0.434225
574.875520,0.435964
575.198780,0.436574
575.522000,0.429252
575.845180,0.424785
576.168320,0.432986
576.491420,0.438953
576.814480,0.434720
577.137500,0.437590
577.460480,0.440739
577.783420,0.441586
578.106320,0.445869
578.429180,0.442206
578.752000,0.443557
579.074780,0.447741
579.397520,0.439638
579.720220,0.442407
580.042880,0.450611
580.365500,0.441099
580.688080,0.452510
581.010620,0.454607
581.333120,0.442886
581.655580,0.445221
581.978000,0.454273
582.300380,0.445310
582.622720,0.450560
582.945020,0.453186
583.267280,0.456529
583.589500,0.454575
583.911680,0.455065
584.233820,0.451054
584.555920,0.455405
584.877980,0.455716
585.200000,0.452732
585.521980,0.464628
585.843920,0.459732
586.165820,0.459781
586.487680,0.458923
586.809500,0.460546
587.131280,0.462289
587.453020,0.464881
587.774720,0.459491
588.096380,0.460035
588.418000,0.464150
588.739580,0.463926
589.061120,0.466935
589.382620,0.469054
589.704080,0.464236
590.025500,0.472603
590.346880,0.469646
590.668220,0.469616
590.989520,0.463672
591.310780,0.473902
591.632000,0.469672
591.953180,0.470800
592.274320,0.468468
592.595420,0.470097
592.916480,0.482206
593.237500,0.475344
593.558480,0.475921
593.879420,0.475317
594.200320,0.477364
594.521180,0.478088
594.842000,0.487910
595.162780,0.481303
595.483520,0.477533
595.804220,0.480397
596.124880,0.478550
596.445500,0.481530
596.766080,0.492606
597.086620,0.484607
597.407120,0.482359
597.727580,0.486874
598.048000,0.481619
598.368380,0.484219
598.688720,0.478375
599.009020,0.483280
599.329280,0.489090
599.649500,0.483360
599.969680,0.488248
600.289820,0.488515
600.609920,0.484371
600.929980,0.491983
601.250000,0.493784
601.569980,0.484472
601.889920,0.482224
602.209820,0.486742
602.529680,0.500412
602.849500,0.491271
603.169280,0.494627
603.489020,0.497094
603.808720,0.496709
604.128380,0.495585
604.448000,0.498343
604.767580,0.497207
605.087120,0.490305
605.406620,0.503778
605.726080,0.500428
606.045500,0.493174
606.364880,0.502126
606.684220,0.505997
607.003520,0.496846
607.322780,0.498579
607.642000,0.496554
607.961180,0.502168
608.280320,0.501450
608.599420,0.500869
608.918480,0.499120
609.237500,0.505282
609.556480,0.506067
609.875420,0.504725
610.194320,0.504281
610.513180,0.508434
610.832000,0.505658
611.150780,0.512466
611.469520,0.513122
611.788220,0.511487
612.106880,0.503920
612.425500,0.503045
612.744080,0.509080
613.062620,0.506728
613.381120,0.510055
613.699580,0.514715
614.018000,0.514128
614.336380,0.511721
614.654720,0.507597
614.973020,0.513422
615.291280,0.510691
615.609500,0.526783
615.927680,0.510198
616.245820,0.516698
616.563920,0.519117
616.881980,0.516059
617.200000,0.518818
617.517980,0.518357
617.835920,0.514445
618.153820,0.523158
618.471680,0.518140
618.789500,0.518565
619.107280,0.522692
619.425020,0.517285
619.742720,0.521657
620.060380,0.512692
620.378000,0.525173
620.695580,0.522031
621.013120,0.527244
621.330620,0.533103
621.648080,0.518297
621.965500,0.521644
622.282880,0.517970
622.600220,0.528743
622.917520,0.536232
623.234780,0.538412
623.552000,0.528644
623.869180,0.534195
624.186320,0.526584
624.503420,0.528527
624.820480,0.531574
625.137500,0.537733
625.454480,0.526727
625.771420,0.534363
626.088320,0.535624
626.405180,0.533603
626.722000,0.537014
627.038780,0.530075
627.355520,0.535937
627.672220,0.538103
627.988880,0.540902
628.305500,0.532565
628.622080,0.548637
628.938620,0.538532
629.255120,0.542626
629.571580,0.535090
629.888000,0.539736
630.204380,0.539429
630.520720,0.546009
630.837020,0.545791
631.153280,0.541966
631.469500,0.543966
631.785680,0.547920
632.101820,0.543727
632.417920,0.544858
632.733980,0.546218
633.050000,0.557914
633.365980,0.544161
633.681920,0.548926
633.997820,0.548715
634.313680,0.550575
634.629500,0.549690
634.945280,0.552493
635.261020,0.552686
635.576720,0.559307
635.892380,0.554749
636.208000,0.548228
636.523580,0.553055
636.839120,0.552403
637.154620,0.551594
637.470080,0.549785
637.785500,0.553341
638.100880,0.558355
638.416220,0.561116
638.731520,0.555587
639.046780,0.559860
639.362000,0.551319
639.677180,0.552827
639.992320,0.554271
640.307420,0.552964
640.622480,0.558667
640.937500,0.553675
641.252480,0.566602
641.567420,0.560386
641.882320,0.557628
642.197180,0.564290
642.512000,0.560593
642.826780,0.559223
643.141520,0.554043
643.456220,0.563918
643.770880,0.566335
644.085500,0.564561
644.400080,0.568539
644.714620,0.569119
645.029120,0.570132
645.343580,0.571037
645.658000,0.566472
645.972380,0.567553
646.286720,0.566639
646.601020,0.569056
646.915280,0.567864
647.229500,0.566758
647.543680,0.570837
647.857820,0.560969
648.171920,0.569452
648.485980,0.576322
648.800000,0.566823
649.113980,0.570399
649.427920,0.578086
649.741820,0.571311
650.055680,0.571860
650.369500,0.573991
650.683280,0.570755
650.997020,0.569857
651.310720,0.575399
651.624380,0.565934
651.938000,0.578670
652.251580,0.575564
652.565120,0.567915
652.878620,0.576858
653.192080,0.577809
653.505500,0.574194
653.818880,0.580608
654.132220,0.582170
654.445520,0.565513
654.758780,0.573088
655.072000,0.573639
655.385180,0.581455
655.698320,0.572163
656.011420,0.573517
656.324480,0.573594
656.637500,0.575319
656.950480,0.581033
657.263420,0.584393
657.576320,0.580789
657.889180,0.583604
658.202000,0.586353
658.514780,0.579935
658.827520,0.581933
659.140220,0.584657
659.452880,0.580489
659.765500,0.579169
660.078080,0.575083
660.390620,0.578368
660.703120,0.580813
661.015580,0.585583
661.328000,0.585013
661.640380,0.583722
661.952720,0.581750
662.265020,0.586326
662.577280,0.588740
662.889500,0.580889
663.201680,0.589024
663.513820,0.584111
663.825920,0.582133
664.137980,0.591144
664.450000,0.574169
664.761980,0.582651
665.073920,0.585849
665.385820,0.595550
665.697680,0.596364
666.009500,0.596940
666.321280,0.596090
666.633020,0.590758
666.944720,0.589821
667.256380,0.587147
667.568000,0.589334
667.879580,0.593197
668.191120,0.598558
668.502620,0.589524
668.814080,0.602105
669.125500,0.591516
669.436880,0.592324
669.748220,0.591208
670.059520,0.599790
670.370780,0.592206
670.682000,0.601770
670.993180,0.596899
671.304320,0.593179
671.615420,0.594815
671.926480,0.592619
672.237500,0.596999
672.548480,0.596167
672.859420,0.601144
673.170320,0.599927
673.481180,0.604634
673.792000,0.595745
674.102780,0.594973
674.413520,0.602260
674.724220,0.599274
675.034880,0.605061
675.345500,0.604303
675.656080,0.597096
675.966620,0.597308
676.277120,0.601611
676.587580,0.598675
676.898000,0.598731
677.208380,0.605545
677.518720,0.602480
677.829020,0.598300
678.139280,0.606375
678.449500,0.611586
678.759680,0.610341
679.069820,0.605576
679.379920,0.609581
679.689980,0.607872
680.000000,0.601869
680.309980,0.610245
680.619920,0.610375
680.929820,0.600971
681.239680,0.594535
681.549500,0.609259
681.859280,0.613891
682.169020,0.606490
682.478720,0.611444
682.788380,0.609081
683.098000,0.617801
683.407580,0.607880
683.717120,0.609234
684.026620,0.609187
684.336080,0.612353
684.645500,0.604938
684.954880,0.611258
685.264220,0.610042
685.573520,0.617815
685.882780,0.617185
686.192000,0.609857
686.501180,0.617480
686.810320,0.615296
687.119420,0.623337
687.428480,0.614128
687.737500,0.615503
688.046480,0.611196
688.355420,0.609204
688.664320,0.614384
688.973180,0.621746
689.282000,0.618056
689.590780,0.615031
689.899520,0.606532
690.208220,0.623471
690.516880,0.616648
690.825500,0.616226
691.134080,0.623386
691.442620,0.612424
691.751120,0.615851
692.059580,0.615208
692.368000,0.608482
692.676380,0.627481
692.984720,0.621756
693.293020,0.615881
693.601280,0.618848
693.909500,0.616345
694.217680,0.619954
694.525820,0.619193
694.833920,0.613125
695.141980,0.627073
695.450000,0.622901
695.757980,0.626432
696.065920,0.619806
696.373820,0.624711
696.681680,0.612582
696.989500,0.626013
697.297280,0.619214
697.605020,0.628968
697.912720,0.617602
698.220380,0.612751
698.528000,0.621440
698.835580,0.621098
699.143120,0.618862
699.450620,0.631265
699.758080,0.615294
700.065500,0.622506
700.372880,0.628400
700.680220,0.636219
700.987520,0.627778
701.294780,0.625710
701.602000,0.622425
701.909180,0.632750
702.216320,0.622996
702.523420,0.622336
702.830480,0.630099
703.137500,0.620421
703.444480,0.626036
703.751420,0.628402
704.058320,0.630787
704.365180,0.623028
704.672000,0.627723
704.978780,0.627780
705.285520,0.625587
705.592220,0.627059
705.898880,0.630812
706.205500,0.633803
706.512080,0.631122
706.818620,0.627709
707.125120,0.630769
707.431580,0.629543
707.738000,0.641016
708.044380,0.639135
708.350720,0.634314
708.657020,0.638921
708.963280,0.631988
709.269500,0.632094
709.575680,0.641257
709.881820,0.638758
710.187920,0.640856
710.493980,0.631109
710.800000,0.640732
711.105980,0.615587
711.411920,0.636579
711.717820,0.627680
712.023680,0.632724
712.329500,0.631309
712.635280,0.639147
712.941020,0.643603
713.246720,0.636364
713.552380,0.637755
713.858000,0.628301
714.163580,0.627466
714.469120,0.628370
714.774620,0.627714
715.080080,0.634865
715.385500,0.642686
715.690880,0.634320
715.996220,0.639461
716.301520,0.644269
716.606780,0.643082
716.912000,0.646204
717.217180,0.639665
717.522320,0.634195
717.827420,0.644833
718.132480,0.636692
718.437500,0.635141
718.742480,0.636694
719.047420,0.631472
719.352320,0.637194
719.657180,0.638594
719.962000,0.642266
720.266780,0.637723
720.571520,0.648716
720.876220,0.637889
721.180880,0.634197
721.485500,0.639783
721.790080,0.638217
722.094620,0.648799
722.399120,0.646704
722.703580,0.632233
723.008000,0.652436
723.312380,0.643134
723.616720,0.635359
723.921020,0.645734
724.225280,0.635253
724.529500,0.633100
724.833680,0.651246
725.137820,0.644934
725.441920,0.633527
725.745980,0.647875
726.050000,0.643663
726.353980,0.635872
726.657920,0.641026
726.961820,0.644749
727.265680,0.649098
727.569500,0.650366
727.873280,0.633718
728.177020,0.651313
728.480720,0.646296
728.784380,0.649601
729.088000,0.655205
729.391580,0.647087
729.695120,0.664107
729.998620,0.634321
730.302080,0.638635
730.605500,0.653566
730.908880,0.644782
731.212220,0.649363
731.515520,0.645539
731.818780,0.645631
732.122000,0.652559
732.425180,0.642188
732.728320,0.637581
733.031420,0.647118
733.334480,0.643878
733.637500,0.631552
733.940480,0.640225
734.243420,0.644750
734.546320,0.654046
734.849180,0.638946
735.152000,0.646266
735.454780,0.642562
735.757520,0.643309
736.060220,0.650342
736.362880,0.641807
736.665500,0.639687
736.968080,0.653412
737.270620,0.653783
737.573120,0.650655
737.875580,0.645410
738.178000,0.645073
738.480380,0.636757
738.782720,0.639040
739.085020,0.651982
739.387280,0.645233
739.689500,0.650057
739.991680,0.650758
740.293820,0.649530
740.595920,0.661102
740.897980,0.656691
741.200000,0.643298
741.501980,0.657307
741.803920,0.649775
742.105820,0.644106
742.407680,0.657542
742.709500,0.638636
743.011280,0.653576
743.313020,0.649275
743.614720,0.632618
743.916380,0.644186
744.218000,0.644988
744.519580,0.643720
744.821120,0.656886
745.122620,0.642301
745.424080,0.644231
745.725500,0.651177
746.026880,0.645936
746.328220,0.664612
746.629520,0.638170
746.930780,0.644608
747.232000,0.640711
747.533180,0.649176
747.834320,0.660986
748.135420,0.653822
748.436480,0.655022
748.737500,0.647931
749.038480,0.652413
749.339420,0.658370
749.640320,0.660591
749.941180,0.647096
750.242000,0.649497
750.542780,0.651985
750.843520,0.660474
751.144220,0.653205
751.444880,0.646164
751.745500,0.657792
752.046080,0.652983
752.346620,0.645619
752.647120,0.654474
752.947580,0.652005
753.248000,0.633785
753.548380,0.657124
753.848720,0.648422
754.149020,0.642166
754.449280,0.653972
754.749500,0.654280
755.049680,0.658667
755.349820,0.650434
755.649920,0.653668
755.949980,0.646981
756.250000,0.653517
756.549980,0.658086
756.849920,0.660095
757.149820,0.640053
757.449680,0.648185
757.749500,0.653715
758.049280,0.655973
758.349020,0.655076
758.648720,0.656315
758.948380,0.639175
759.248000,0.659704
759.547580,0.665770
759.847120,0.639559
760.146620,0.658999
760.446080,0.663978
760.745500,0.660140
761.044880,0.649858
761.344220,0.655738
761.643520,0.650424
761.942780,0.667600
762.242000,0.665488
762.541180,0.657042
762.840320,0.661517
763.139420,0.651195
763.438480,0.645933
763.737500,0.656099
764.036480,0.655486
764.335420,0.665490
764.634320,0.656965
764.933180,0.654110
765.232000,0.643303
765.530780,0.665965
765.829520,0.665035
766.128220,0.656924
766.426880,0.657427
766.725500,0.652502
767.024080,0.664609
767.322620,0.657676
767.621120,0.647696
767.919580,0.660068
768.218000,0.650479
768.516380,0.667343
768.814720,0.648834
769.113020,0.663680
769.411280,0.669199
769.709500,0.669824
770.007680,0.663258
770.305820,0.665314
770.603920,0.652965
770.901980,0.669399
771.200000,0.651495
771.497980,0.644102
771.795920,0.656856
772.093820,0.643717
772.391680,0.657877
772.689500,0.664189
772.987280,0.661279
773.285020,0.658237
773.582720,0.658108
773.880380,0.657515
774.178000,0.663940
774.475580,0.662425
774.773120,0.656627
775.070620,0.658553
775.368080,0.665999
775.665500,0.639355
775.962880,0.660440
776.260220,0.664199
776.557520,0.657772
776.854780,0.663962
777.152000,0.658488
777.449180,0.667566
777.746320,0.639113
778.043420,0.656207
778.340480,0.668471
778.637500,0.670047
778.934480,0.663753
779.231420,0.662144
779.528320,0.670675
779.825180,0.644269
780.122000,0.652722
780.418780,0.664159
780.715520,0.657277
781.012220,0.671233
781.308880,0.664638
781.605500,0.664384
781.902080,0.669405
782.198620,0.654135
782.495120,0.672154
782.791580,0.673315
783.088000,0.671498
783.384380,0.665750
783.680720,0.653215
783.977020,0.655196
784.273280,0.668531
784.569500,0.669462
784.865680,0.658554
785.161820,0.656250
785.457920,0.656965
785.753980,0.660154
786.050000,0.647099
786.345980,0.654861
786.641920,0.657183
786.937820,0.670228
787.233680,0.657620
787.529500,0.667822
787.825280,0.667847
788.121020,0.672805
788.416720,0.654199
788.712380,0.658674
789.008000,0.654391
789.303580,0.669965
789.599120,0.690909
789.894620,0.667148
790.190080,0.656273
790.485500,0.663787
790.780880,0.669534
791.076220,0.667388
791.371520,0.665214
791.666780,0.668364
791.962000,0.662013
792.257180,0.678624
792.552320,0.658448
792.847420,0.663028
793.142480,0.671062
793.437500,0.664978
793.732480,0.666423
794.027420,0.668398
794.322320,0.673378
794.617180,0.667905
794.912000,0.669391
795.206780,0.665175
795.501520,0.680608
795.796220,0.651852
796.090880,0.663904
796.385500,0.657421
796.680080,0.664174
796.974620,0.660928
797.269120,0.647994
797.563580,0.666412
797.858000,0.671982
798.152380,0.663573
798.446720,0.683846
798.741020,0.674884
799.035280,0.670807
799.329500,0.667436
799.623680,0.655039
