399.985280,0.162162
400.329500,0.189189
400.673680,0.189873
401.017820,0.176471
401.361920,0.196970
401.705980,0.195122
402.050000,0.103896
402.393980,0.176471
402.737920,0.146067
403.081820,0.206186
403.425680,0.197674
403.769500,0.187500
404.113280,0.126437
404.457020,0.213483
404.800720,0.130435
405.144380,0.252525
405.488000,0.139785
405.831580,0.175258
406.175120,0.234043
406.518620,0.210000
406.862080,0.216495
407.205500,0.156250
407.548880,0.173469
407.892220,0.196078
408.235520,0.191489
408.578780,0.257143
408.922000,0.192308
409.265180,0.191919
409.608320,0.202020
409.951420,0.257732
410.294480,0.264706
410.637500,0.206522
410.980480,0.215686
411.323420,0.153061
411.666320,0.201835
412.009180,0.227273
412.352000,0.178218
412.694780,0.211009
413.037520,0.201835
413.380220,0.243243
413.722880,0.205357
414.065500,0.198198
414.408080,0.141593
414.750620,0.185841
415.093120,0.157025
415.435580,0.226891
415.778000,0.257576
416.120380,0.210084
416.462720,0.150794
416.805020,0.225564
417.147280,0.208955
417.489500,0.235714
417.831680,0.171233
418.173820,0.156028
418.515920,0.202797
418.857980,0.189873
419.200000,0.205128
419.541980,0.218935
419.883920,0.174157
420.225820,0.190751
420.567680,0.189944
420.909500,0.207650
421.251280,0.213542
421.593020,0.183673
421.934720,0.171717
422.276380,0.174359
422.618000,0.191176
422.959580,0.220588
423.301120,0.210046
423.642620,0.173913
423.984080,0.190698
424.325500,0.179372
424.666880,0.198276
425.008220,0.201681
425.349520,0.182203
425.690780,0.180769
426.032000,0.176471
426.373180,0.203320
426.714320,0.199219
427.055420,0.200772
427.396480,0.198502
427.737500,0.209486
428.078480,0.205534
428.419420,0.212851
428.760320,0.183908
429.101180,0.220472
429.442000,0.180077
429.782780,0.180769
430.123520,0.203922
430.464220,0.221402
430.804880,0.214559
431.145500,0.185455
431.486080,0.209738
431.826620,0.193798
432.167120,0.187500
432.507580,0.242754
432.848000,0.208633
433.188380,0.198556
433.528720,0.200000
433.869020,0.217857
434.209280,0.178947
434.549500,0.202091
434.889680,0.212121
435.229820,0.194539
435.569920,0.193772
435.909980,0.197411
436.250000,0.237288
436.589980,0.191950
436.929920,0.212698
437.269820,0.200627
437.609680,0.233728
437.949500,0.213855
438.289280,0.203966
438.629020,0.215116
438.968720,0.209302
439.308380,0.208672
439.648000,0.219178
439.987580,0.206349
440.327120,0.216000
440.666620,0.215584
441.006080,0.202046
441.345500,0.213759
441.684880,0.210526
442.024220,0.203474
442.363520,0.221429
442.702780,0.200000
443.042000,0.191630
443.381180,0.224138
443.720320,0.211663
444.059420,0.203782
444.398480,0.207113
444.737500,0.206967
445.076480,0.194444
445.415420,0.209581
445.754320,0.207900
446.093180,0.207339
446.432000,0.199248
446.770780,0.203036
447.109520,0.222426
447.448220,0.221825
447.786880,0.225403
448.125500,0.218966
448.464080,0.203571
448.802620,0.210993
449.141120,0.214533
449.479580,0.223776
449.818000,0.206540
450.156380,0.212375
450.494720,0.218182
450.833020,0.220280
451.171280,0.220890
451.509500,0.229965
451.847680,0.219224
452.185820,0.218589
452.523920,0.223368
452.861980,0.225970
453.200000,0.214286
453.537980,0.216807
453.875920,0.230252
454.213820,0.205479
454.551680,0.206954
454.889500,0.225970
455.227280,0.211744
455.565020,0.232831
455.902720,0.226290
456.240380,0.226290
456.578000,0.231707
456.915580,0.222798
457.253120,0.222039
457.590620,0.228243
457.928080,0.232323
458.265500,0.229730
458.602880,0.225649
458.940220,0.228426
459.277520,0.224000
459.614780,0.235679
459.952000,0.228261
460.289180,0.240506
460.626320,0.229921
460.963420,0.242326
461.300480,0.238532
461.637500,0.241911
461.974480,0.237003
462.311420,0.241431
462.648320,0.228404
462.985180,0.232425
463.322000,0.245536
463.658780,0.229282
463.995520,0.232462
464.332220,0.235457
464.668880,0.243280
465.005500,0.235925
465.342080,0.233035
465.678620,0.242312
466.015120,0.240621
466.351580,0.249052
466.688000,0.257004
467.024380,0.240583
467.360720,0.234091
467.697020,0.234624
468.033280,0.252222
468.369500,0.241722
468.705680,0.255919
469.041820,0.237500
469.377920,0.245119
469.713980,0.249228
470.050000,0.251208
470.385980,0.247554
470.721920,0.240940
471.057820,0.254386
471.393680,0.240412
471.729500,0.251158
472.065280,0.250447
472.401020,0.249113
472.736720,0.245201
473.072380,0.251346
473.408000,0.240209
473.743580,0.243080
474.079120,0.251507
474.414620,0.245123
474.750080,0.248983
475.085500,0.254112
475.420880,0.258951
475.756220,0.253475
476.091520,0.257460
476.426780,0.256472
476.762000,0.246179
477.097180,0.256800
477.432320,0.252827
477.767420,0.263889
478.102480,0.261417
478.437500,0.261905
478.772480,0.264775
479.107420,0.262002
479.442320,0.263789
479.777180,0.271281
480.112000,0.255008
480.446780,0.259548
480.781520,0.256844
481.116220,0.266774
481.450880,0.263076
481.785500,0.270570
482.120080,0.265674
482.454620,0.276612
482.789120,0.272293
483.123580,0.265576
483.458000,0.265032
483.792380,0.273163
484.126720,0.271042
484.461020,0.259173
484.795280,0.272938
485.129500,0.272019
485.463680,0.265891
485.797820,0.280715
486.131920,0.269319
486.465980,0.267954
486.800000,0.274046
487.133980,0.262840
487.467920,0.276970
487.801820,0.292143
488.135680,0.277483
488.469500,0.272315
488.803280,0.284547
489.137020,0.278388
489.470720,0.287092
489.804380,0.291017
490.138000,0.288576
490.471580,0.290346
490.805120,0.280200
491.138620,0.282871
491.472080,0.286926
491.805500,0.293584
492.138880,0.287005
492.472220,0.286505
492.805520,0.295391
493.138780,0.299793
493.472000,0.297659
493.805180,0.293997
494.138320,0.299533
494.471420,0.291016
494.804480,0.293661
495.137500,0.303594
495.470480,0.300191
495.803420,0.294710
496.136320,0.298872
496.469180,0.289748
496.802000,0.297066
497.134780,0.297150
497.467520,0.306422
497.800220,0.305425
498.132880,0.306878
498.465500,0.302433
498.798080,0.303653
499.130620,0.303762
499.463120,0.297586
499.795580,0.301980
500.128000,0.301362
500.460380,0.309473
500.792720,0.304348
501.125020,0.309511
501.457280,0.310705
501.789500,0.306818
502.121680,0.310524
502.453820,0.308516
502.785920,0.308654
503.117980,0.311580
503.450000,0.316424
503.781980,0.305929
504.113920,0.302987
504.445820,0.315022
504.777680,0.305412
505.109500,0.313942
505.441280,0.310707
505.773020,0.313762
506.104720,0.314178
506.436380,0.312352
506.768000,0.316651
507.099580,0.308467
507.431120,0.318501
507.762620,0.320489
508.094080,0.319964
508.425500,0.323529
508.756880,0.322359
509.088220,0.318307
509.419520,0.322626
509.750780,0.326617
510.082000,0.324160
510.413180,0.324735
510.744320,0.326737
511.075420,0.325848
511.406480,0.327692
511.737500,0.316204
512.068480,0.328947
512.399420,0.326291
512.730320,0.314088
513.061180,0.325880
513.392000,0.330809
513.722780,0.329971
514.053520,0.331097
514.384220,0.333492
514.714880,0.337961
515.045500,0.333333
515.376080,0.338983
515.706620,0.338529
516.037120,0.341667
516.367580,0.338098
516.698000,0.334804
517.028380,0.335154
517.358720,0.340741
517.689020,0.346192
518.019280,0.339689
518.349500,0.344146
518.679680,0.340737
519.009820,0.346660
519.339920,0.349198
519.669980,0.347062
520.000000,0.345390
520.329980,0.345257
520.659920,0.338446
520.989820,0.346749
521.319680,0.340535
521.649500,0.350643
521.979280,0.356472
522.309020,0.349585
522.638720,0.347670
522.968380,0.357808
523.298000,0.355428
523.627580,0.352302
523.957120,0.352727
524.286620,0.355915
524.616080,0.354188
524.945500,0.360207
525.274880,0.365829
525.604220,0.357660
525.933520,0.363208
526.262780,0.358338
526.592000,0.363267
526.921180,0.357542
527.250320,0.361745
527.579420,0.360788
527.908480,0.365337
528.237500,0.365442
528.566480,0.366267
528.895420,0.370133
529.224320,0.373452
529.553180,0.362892
529.882000,0.364477
530.210780,0.374035
530.539520,0.373921
530.868220,0.370034
531.196880,0.368849
531.525500,0.377240
531.854080,0.372420
532.182620,0.367118
532.511120,0.370766
532.839580,0.377949
533.168000,0.376481
533.496380,0.386758
533.824720,0.381786
534.153020,0.382523
534.481280,0.379736
534.809500,0.386104
535.137680,0.385851
535.465820,0.375859
535.793920,0.387056
536.121980,0.380193
536.450000,0.388584
536.777980,0.396732
537.105920,0.390619
537.433820,0.383388
537.761680,0.386531
538.089500,0.390935
538.417280,0.393156
538.745020,0.395800
539.072720,0.395158
539.400380,0.396659
539.728000,0.395793
540.055580,0.391760
540.383120,0.396128
540.710620,0.395089
541.038080,0.398008
541.365500,0.398162
541.692880,0.396802
542.020220,0.396905
542.347520,0.403805
542.674780,0.400141
543.002000,0.397131
543.329180,0.408278
543.656320,0.399086
543.983420,0.403419
544.310480,0.401631
544.637500,0.404640
544.964480,0.405451
545.291420,0.404453
545.618320,0.402058
545.945180,0.403428
546.272000,0.410550
546.598780,0.410357
546.925520,0.410485
547.252220,0.404424
547.578880,0.408276
547.905500,0.410784
548.232080,0.409032
548.558620,0.416206
548.885120,0.414459
549.211580,0.410158
549.538000,0.416342
549.864380,0.411254
550.190720,0.423636
550.517020,0.416558
550.843280,0.418893
551.169500,0.415076
551.495680,0.420499
551.821820,0.424233
552.147920,0.417046
552.473980,0.420481
552.800000,0.417593
553.125980,0.424361
553.451920,0.426012
553.777820,0.427715
554.103680,0.424671
554.429500,0.418480
554.755280,0.424900
555.081020,0.424799
555.406720,0.424992
555.732380,0.423585
556.058000,0.428377
556.383580,0.422458
556.709120,0.428670
557.034620,0.436101
557.360080,0.433506
557.685500,0.431881
558.010880,0.433276
558.336220,0.427065
558.661520,0.437079
558.986780,0.442240
559.312000,0.438390
559.637180,0.438420
559.962320,0.439658
560.287420,0.437941
560.612480,0.432365
560.937500,0.439794
561.262480,0.439516
561.587420,0.442510
561.912320,0.444731
562.237180,0.438194
562.562000,0.440703
562.886780,0.442958
563.211520,0.440015
563.536220,0.438219
563.860880,0.444361
564.185500,0.443527
564.510080,0.444695
564.834620,0.443617
565.159120,0.448496
565.483580,0.440517
565.808000,0.447976
566.132380,0.449459
566.456720,0.451625
566.781020,0.449362
567.105280,0.444234
567.429500,0.453718
567.753680,0.462601
568.077820,0.451875
568.401920,0.456837
568.725980,0.462619
569.050000,0.460076
569.373980,0.455272
569.697920,0.451270
570.021820,0.458052
570.345680,0.454267
570.669500,0.457459
570.993280,0.450720
571.317020,0.456704
571.640720,0.466840
571.964380,0.465479
572.288000,0.457715
572.611580,0.464994
572.935120,0.466891
573.258620,0.465221
573.582080,0.458271
573.905500,0.469471
574.228880,0.468820
574.552220,0.463906
574.875520,0.462770
575.198780,0.468016
575.522000,0.475806
575.845180,0.469556
576.168320,0.468200
576.491420,0.483648
576.814480,0.474503
577.137500,0.474026
577.460480,0.477347
577.783420,0.476242
578.106320,0.482906
578.429180,0.479675
578.752000,0.474470
579.074780,0.490223
579.397520,0.483215
579.720220,0.480373
580.042880,0.480013
580.365500,0.487095
580.688080,0.483379
581.010620,0.483631
581.333120,0.485972
581.655580,0.492174
581.978000,0.494845
582.300380,0.479714
582.622720,0.489123
582.945020,0.482770
583.267280,0.486486
583.589500,0.489567
583.911680,0.488091
584.233820,0.490400
584.555920,0.494485
584.877980,0.497173
585.200000,0.486802
585.521980,0.493358
585.843920,0.496339
586.165820,0.489640
586.487680,0.492928
586.809500,0.495350
587.131280,0.490387
587.453020,0.500000
587.774720,0.497930
588.096380,0.498833
588.418000,0.502195
588.739580,0.504168
589.061120,0.503450
589.382620,0.505158
589.704080,0.499860
590.025500,0.508847
590.346880,0.505902
590.668220,0.509101
590.989520,0.501109
591.310780,0.505385
591.632000,0.502732
591.953180,0.505951
592.274320,0.500137
592.595420,0.500269
592.916480,0.504754
593.237500,0.508488
593.558480,0.512779
593.879420,0.513623
594.200320,0.511385
594.521180,0.506507
594.842000,0.512628
595.162780,0.520833
595.483520,0.517681
595.804220,0.515843
596.124880,0.517986
596.445500,0.513492
596.766080,0.522452
597.086620,0.515127
597.407120,0.510269
597.727580,0.517900
598.048000,0.512298
598.368380,0.517096
598.688720,0.514548
599.009020,0.517516
599.329280,0.516764
599.649500,0.519282
599.969680,0.522703
600.289820,0.523504
600.609920,0.515095
600.929980,0.520310
601.250000,0.519730
601.569980,0.523629
601.889920,0.518845
602.209820,0.522998
602.529680,0.530349
602.849500,0.525914
603.169280,0.522182
603.489020,0.528093
603.808720,0.526330
604.128380,0.528422
604.448000,0.524033
604.767580,0.530447
605.087120,0.524100
605.406620,0.529807
605.726080,0.531223
606.045500,0.524380
606.364880,0.526226
606.684220,0.530268
607.003520,0.526376
607.322780,0.528994
607.642000,0.532165
607.961180,0.538017
608.280320,0.531323
608.599420,0.533024
608.918480,0.536657
609.237500,0.539319
609.556480,0.538325
609.875420,0.529533
610.194320,0.534101
610.513180,0.535957
610.832000,0.538714
611.150780,0.544007
611.469520,0.542081
611.788220,0.540206
612.106880,0.538902
612.425500,0.542022
612.744080,0.551554
613.062620,0.540979
613.381120,0.538696
613.699580,0.540466
614.018000,0.541769
614.336380,0.544417
614.654720,0.550388
614.973020,0.533477
615.291280,0.551596
615.609500,0.558479
615.927680,0.544499
616.245820,0.542672
616.563920,0.544607
616.881980,0.549423
617.200000,0.547434
617.517980,0.542315
617.835920,0.544268
618.153820,0.548648
618.471680,0.538915
618.789500,0.553178
619.107280,0.541158
619.425020,0.545829
619.742720,0.554614
620.060380,0.552178
620.378000,0.553178
620.695580,0.554598
621.013120,0.544252
621.330620,0.558519
621.648080,0.550158
621.965500,0.553325
622.282880,0.546028
622.600220,0.554011
622.917520,0.561122
623.234780,0.561234
623.552000,0.562062
623.869180,0.546486
624.186320,0.557147
624.503420,0.556740
624.820480,0.553880
625.137500,0.560467
625.454480,0.557049
625.771420,0.560845
626.088320,0.561475
626.405180,0.566273
626.722000,0.563676
627.038780,0.557644
627.355520,0.556562
627.672220,0.555832
627.988880,0.567030
628.305500,0.568401
628.622080,0.570012
628.938620,0.566055
629.255120,0.574362
629.571580,0.565737
629.888000,0.568272
630.204380,0.566738
630.520720,0.574650
630.837020,0.571385
631.153280,0.568645
631.469500,0.569739
631.785680,0.564798
632.101820,0.572376
632.417920,0.571982
632.733980,0.569628
633.050000,0.577320
633.365980,0.574689
633.681920,0.575477
633.997820,0.572026
634.313680,0.567679
634.629500,0.574462
634.945280,0.576540
635.261020,0.573819
635.576720,0.580740
635.892380,0.580889
636.208000,0.577571
636.523580,0.577024
636.839120,0.575275
637.154620,0.575652
637.470080,0.571306
637.785500,0.579719
638.100880,0.584419
638.416220,0.577222
638.731520,0.571347
639.046780,0.581998
639.362000,0.577408
639.677180,0.577384
639.992320,0.582182
640.307420,0.580781
640.622480,0.579670
640.937500,0.589736
641.252480,0.588942
641.567420,0.584257
641.882320,0.579900
642.197180,0.587310
642.512000,0.584943
642.826780,0.582802
643.141520,0.590164
643.456220,0.586608
643.770880,0.592869
644.085500,0.591951
644.400080,0.591854
644.714620,0.593367
645.029120,0.587459
645.343580,0.587493
645.658000,0.598390
645.972380,0.587832
646.286720,0.593077
646.601020,0.590368
646.915280,0.596655
647.229500,0.594231
647.543680,0.593206
647.857820,0.590972
648.171920,0.593055
648.485980,0.592491
648.800000,0.591347
649.113980,0.589246
649.427920,0.595284
649.741820,0.590547
650.055680,0.592979
650.369500,0.595291
650.683280,0.595450
650.997020,0.597910
651.310720,0.593010
651.624380,0.592308
651.938000,0.593906
652.251580,0.599221
652.565120,0.593348
652.878620,0.600225
653.192080,0.594663
653.505500,0.596914
653.818880,0.603071
654.132220,0.596696
654.445520,0.600113
654.758780,0.597167
655.072000,0.592550
655.385180,0.595720
655.698320,0.601886
656.011420,0.603325
656.324480,0.606237
656.637500,0.592410
656.950480,0.602173
657.263420,0.602719
657.576320,0.602431
657.889180,0.604247
658.202000,0.605676
658.514780,0.601667
658.827520,0.601140
659.140220,0.605034
659.452880,0.606765
659.765500,0.599940
660.078080,0.590430
660.390620,0.597311
660.703120,0.600978
661.015580,0.612883
661.328000,0.604534
661.640380,0.606400
661.952720,0.603239
662.265020,0.614367
662.577280,0.606234
662.889500,0.612110
663.201680,0.614550
663.513820,0.607269
663.825920,0.615434
664.137980,0.617324
664.450000,0.603581
664.761980,0.602291
665.073920,0.604025
665.385820,0.607003
665.697680,0.614215
666.009500,0.611573
666.321280,0.619947
666.633020,0.604721
666.944720,0.613751
667.256380,0.612719
667.568000,0.608356
667.879580,0.612925
668.191120,0.616071
668.502620,0.613146
668.814080,0.617895
669.125500,0.620937
669.436880,0.614799
669.748220,0.616476
670.059520,0.616947
670.370780,0.622477
670.682000,0.616991
670.993180,0.611346
671.304320,0.610408
671.615420,0.612216
671.926480,0.616040
672.237500,0.607717
672.548480,0.607523
672.859420,0.623302
673.170320,0.610083
673.481180,0.618755
673.792000,0.614858
674.102780,0.614363
674.413520,0.622311
674.724220,0.613793
675.034880,0.625963
675.345500,0.622538
675.656080,0.613067
675.966620,0.619862
676.277120,0.630172
676.587580,0.621502
676.898000,0.617021
677.208380,0.611460
677.518720,0.614515
677.829020,0.633038
678.139280,0.617494
678.449500,0.615299
678.759680,0.626827
679.069820,0.612268
679.379920,0.628819
679.689980,0.620869
680.000000,0.617944
680.309980,0.619154
680.619920,0.627793
680.929820,0.615901
681.239680,0.627031
681.549500,0.628148
681.859280,0.625093
682.169020,0.618053
682.478720,0.631264
682.788380,0.629753
683.098000,0.627524
683.407580,0.630769
683.717120,0.621246
684.026620,0.630271
684.336080,0.624479
684.645500,0.619903
684.954880,0.623347
685.264220,0.630804
685.573520,0.631519
685.882780,0.635980
686.192000,0.623025
686.501180,0.630344
686.810320,0.625288
687.119420,0.628658
687.428480,0.628940
687.737500,0.635457
688.046480,0.628067
688.355420,0.617880
688.664320,0.632364
688.973180,0.641271
689.282000,0.635802
689.590780,0.633052
689.899520,0.617167
690.208220,0.636468
690.516880,0.628484
690.825500,0.632830
691.134080,0.636674
691.442620,0.633765
691.751120,0.636708
692.059580,0.634314
692.368000,0.627414
692.676380,0.636641
692.984720,0.630534
693.293020,0.632599
693.601280,0.636780
693.909500,0.644344
694.217680,0.629855
694.525820,0.644707
694.833920,0.634491
695.141980,0.634015
695.450000,0.631679
695.757980,0.627196
696.065920,0.635728
696.373820,0.637028
696.681680,0.620253
696.989500,0.634890
697.297280,0.629327
697.605020,0.641667
697.912720,0.629516
698.220380,0.633609
698.528000,0.637658
698.835580,0.627420
699.143120,0.626656
699.450620,0.632856
699.758080,0.630196
700.065500,0.644054
700.372880,0.643600
700.680220,0.638213
700.987520,0.640079
701.294780,0.644769
701.602000,0.637876
701.909180,0.643879
702.216320,0.640594
702.523420,0.645620
702.830480,0.654653
703.137500,0.640296
703.444480,0.639842
703.751420,0.647732
704.058320,0.643055
704.365180,0.646688
704.672000,0.648317
704.978780,0.635973
705.285520,0.636150
705.592220,0.647451
705.898880,0.638692
706.205500,0.643584
706.512080,0.641785
706.818620,0.643576
707.125120,0.641923
707.431580,0.639312
707.738000,0.639844
708.044380,0.651100
708.350720,0.642721
708.657020,0.647128
708.963280,0.640916
709.269500,0.637182
709.575680,0.649116
709.881820,0.641509
710.187920,0.647082
710.493980,0.648953
710.800000,0.638825
711.105980,0.633283
711.411920,0.643279
711.717820,0.644834
712.023680,0.638943
712.329500,0.654180
712.635280,0.653876
712.941020,0.641670
713.246720,0.651779
713.552380,0.654239
713.858000,0.653922
714.163580,0.646409
714.469120,0.638921
714.774620,0.652981
715.080080,0.650962
715.385500,0.662270
715.690880,0.634714
715.996220,0.659667
716.301520,0.649802
716.606780,0.645833
716.912000,0.653069
717.217180,0.654429
717.522320,0.649304
717.827420,0.645647
718.132480,0.649137
718.437500,0.649409
718.742480,0.642742
719.047420,0.648463
719.352320,0.666252
719.657180,0.656173
719.962000,0.650538
720.266780,0.646448
720.571520,0.648302
720.876220,0.655892
721.180880,0.648411
721.485500,0.654409
721.790080,0.651805
722.094620,0.653087
722.399120,0.657044
722.703580,0.641234
723.008000,0.647262
723.312380,0.650022
723.616720,0.647259
723.921020,0.651364
724.225280,0.650960
724.529500,0.644921
724.833680,0.657918
725.137820,0.650220
725.441920,0.653143
725.745980,0.655034
726.050000,0.658999
726.353980,0.654799
726.657920,0.656770
726.961820,0.657534
727.265680,0.652335
727.569500,0.651737
727.873280,0.650346
728.177020,0.654537
728.480720,0.647685
728.784380,0.660874
729.088000,0.656147
729.391580,0.652297
729.695120,0.657390
729.998620,0.662046
730.302080,0.657857
730.605500,0.656963
730.908880,0.662420
731.212220,0.656709
731.515520,0.653340
731.818780,0.646117
732.122000,0.659449
732.425180,0.641695
732.728320,0.653446
733.031420,0.649624
733.334480,0.649490
733.637500,0.651210
733.940480,0.654555
734.243420,0.649337
734.546320,0.664419
734.849180,0.647727
735.152000,0.652490
735.454780,0.637397
735.757520,0.649104
736.060220,0.652449
736.362880,0.651261
736.665500,0.653264
736.968080,0.655562
737.270620,0.664671
737.573120,0.659389
737.875580,0.659703
738.178000,0.651606
738.480380,0.657297
738.782720,0.646674
739.085020,0.653634
739.387280,0.658537
739.689500,0.671008
739.991680,0.662549
740.293820,0.656716
740.595920,0.649416
740.897980,0.662338
741.200000,0.658441
741.501980,0.657880
741.803920,0.637387
742.105820,0.643542
742.407680,0.661619
742.709500,0.646591
743.011280,0.669988
743.313020,0.659130
743.614720,0.653511
743.916380,0.641279
744.218000,0.653341
744.519580,0.664251
744.821120,0.667066
745.122620,0.650090
745.424080,0.655649
745.725500,0.661436
746.026880,0.668719
746.328220,0.657830
746.629520,0.636966
746.930780,0.655025
747.232000,0.660944
747.533180,0.654057
747.834320,0.662812
748.135420,0.649472
748.436480,0.666875
748.737500,0.646695
749.038480,0.652413
749.339420,0.662103
749.640320,0.653048
749.941180,0.657089
750.242000,0.653894
750.542780,0.656328
750.843520,0.659833
751.144220,0.672436
751.444880,0.655675
751.745500,0.655844
752.046080,0.672226
752.346620,0.650773
752.647120,0.660353
752.947580,0.663001
753.248000,0.653127
753.548380,0.665582
753.848720,0.661301
754.149020,0.647324
754.449280,0.650033
754.749500,0.654280
755.049680,0.656667
755.349820,0.658439
755.649920,0.655651
755.949980,0.652953
756.250000,0.654175
756.549980,0.652145
756.849920,0.658056
757.149820,0.638057
757.449680,0.656766
757.749500,0.655078
758.049280,0.675085
758.349020,0.655772
758.648720,0.663216
758.948380,0.657732
759.248000,0.663747
759.547580,0.648958
759.847120,0.661613
760.146620,0.657645
760.446080,0.665995
760.745500,0.676923
761.044880,0.666903
761.344220,0.655025
761.643520,0.651130
761.942780,0.659902
762.242000,0.654173
762.541180,0.653521
762.840320,0.662921
763.139420,0.659634
763.438480,0.656869
763.737500,0.664369
764.036480,0.659679
764.335420,0.649965
764.634320,0.657658
764.933180,0.652055
765.232000,0.661346
765.530780,0.663158
765.829520,0.660140
766.128220,0.656228
766.426880,0.668088
766.725500,0.649075
767.024080,0.657064
767.322620,0.659751
767.621120,0.669377
767.919580,0.667577
768.218000,0.673735
768.516380,0.663962
768.814720,0.665981
769.113020,0.658856
769.411280,0.670580
769.709500,0.665088
770.007680,0.652352
770.305820,0.667343
770.603920,0.648922
770.901980,0.666667
771.200000,0.658288
771.497980,0.647453
771.795920,0.646154
772.093820,0.650401
772.391680,0.660514
772.689500,0.664189
772.987280,0.653199
773.285020,0.665072
773.582720,0.665541
773.880380,0.673301
774.178000,0.674847
774.475580,0.669123
774.773120,0.669344
775.070620,0.671400
775.368080,0.665999
775.665500,0.668234
775.962880,0.665110
776.260220,0.672275
776.557520,0.664443
776.854780,0.671400
777.152000,0.653183
777.449180,0.670263
777.746320,0.641129
778.043420,0.667804
778.340480,0.674560
778.637500,0.674104
778.934480,0.674512
779.231420,0.659430
779.528320,0.656647
779.825180,0.653491
780.122000,0.664011
780.418780,0.664843
780.715520,0.670020
781.012220,0.673973
781.308880,0.668695
781.605500,0.660274
781.902080,0.665298
782.198620,0.664388
782.495120,0.670096
782.791580,0.672627
783.088000,0.676329
783.384380,0.666437
783.680720,0.660739
783.977020,0.661390
784.273280,0.651748
784.569500,0.669462
784.865680,0.657858
785.161820,0.664583
785.457920,0.665281
785.753980,0.662945
786.050000,0.651243
786.345980,0.661111
786.641920,0.661346
786.937820,0.670940
787.233680,0.650661
787.529500,0.656727
787.825280,0.669263
788.121020,0.673513
788.416720,0.659139
788.712380,0.651622
789.008000,0.655099
789.303580,0.664311
789.599120,0.681455
789.894620,0.666426
790.190080,0.661349
790.485500,0.670266
790.780880,0.660215
791.076220,0.659452
791.371520,0.656500
791.666780,0.656727
791.962000,0.668626
792.257180,0.667643
792.552320,0.664249
792.847420,0.661572
793.142480,0.665201
793.437500,0.661360
793.732480,0.664228
794.027420,0.654303
794.322320,0.674124
794.617180,0.669391
794.912000,0.670877
795.206780,0.666667
795.501520,0.672243
795.796220,0.656296
796.090880,0.672193
796.385500,0.648426
796.680080,0.662678
796.974620,0.666168
797.269120,0.663134
797.563580,0.662595
797.858000,0.673500
798.152380,0.665120
798.446720,0.666154
798.741020,0.658706
799.035280,0.663043
799.329500,0.665127
799.623680,0.663566
