399.985280,0.202703
400.329500,0.243243
400.673680,0.113924
401.017820,0.250000
401.361920,0.151515
401.705980,0.195122
402.050000,0.207792
402.393980,0.211765
402.737920,0.202247
403.081820,0.216495
403.425680,0.186047
403.769500,0.135417
404.113280,0.137931
404.457020,0.191011
404.800720,0.173913
405.144380,0.272727
405.488000,0.129032
405.831580,0.216495
406.175120,0.202128
406.518620,0.190000
406.862080,0.226804
407.205500,0.197917
407.548880,0.193878
407.892220,0.186275
408.235520,0.202128
408.578780,0.238095
408.922000,0.182692
409.265180,0.252525
409.608320,0.212121
409.951420,0.226804
410.294480,0.215686
410.637500,0.206522
410.980480,0.245098
411.323420,0.183673
411.666320,0.220183
412.009180,0.218182
412.352000,0.198020
412.694780,0.201835
413.037520,0.192661
413.380220,0.243243
413.722880,0.258929
414.065500,0.243243
414.408080,0.150442
414.750620,0.185841
415.093120,0.214876
415.435580,0.226891
415.778000,0.219697
416.120380,0.218487
416.462720,0.150794
416.805020,0.285714
417.147280,0.208955
417.489500,0.221429
417.831680,0.205479
418.173820,0.198582
418.515920,0.251748
418.857980,0.234177
419.200000,0.224359
419.541980,0.230769
419.883920,0.213483
420.225820,0.219653
420.567680,0.223464
420.909500,0.202186
421.251280,0.234375
421.593020,0.209184
421.934720,0.202020
422.276380,0.210256
422.618000,0.225490
422.959580,0.230392
423.301120,0.223744
423.642620,0.234783
423.984080,0.195349
424.325500,0.219731
424.666880,0.181034
425.008220,0.226891
425.349520,0.224576
425.690780,0.203846
426.032000,0.176471
426.373180,0.219917
426.714320,0.210937
427.055420,0.239382
427.396480,0.228464
427.737500,0.209486
428.078480,0.201581
428.419420,0.232932
428.760320,0.210728
429.101180,0.236220
429.442000,0.222222
429.782780,0.200000
430.123520,0.243137
430.464220,0.221402
430.804880,0.226054
431.145500,0.200000
431.486080,0.247191
431.826620,0.240310
432.167120,0.224265
432.507580,0.221014
432.848000,0.223022
433.188380,0.252708
433.528720,0.226415
433.869020,0.232143
434.209280,0.224561
434.549500,0.261324
434.889680,0.259259
435.229820,0.211604
435.569920,0.217993
435.909980,0.226537
436.250000,0.230508
436.589980,0.226006
436.929920,0.244444
437.269820,0.225705
437.609680,0.251479
437.949500,0.246988
438.289280,0.226629
438.629020,0.247093
438.968720,0.261628
439.308380,0.224932
439.648000,0.230137
439.987580,0.246032
440.327120,0.245333
440.666620,0.220779
441.006080,0.222506
441.345500,0.250614
441.684880,0.241627
442.024220,0.228288
442.363520,0.221429
442.702780,0.229545
443.042000,0.240088
443.381180,0.245690
443.720320,0.241901
444.059420,0.233193
444.398480,0.234310
444.737500,0.256148
445.076480,0.236111
445.415420,0.249501
445.754320,0.222453
446.093180,0.233028
446.432000,0.240602
446.770780,0.254269
447.109520,0.250000
447.448220,0.241503
447.786880,0.252236
448.125500,0.236207
448.464080,0.241071
448.802620,0.250000
449.141120,0.245675
449.479580,0.248252
449.818000,0.256454
450.156380,0.250836
450.494720,0.236364
450.833020,0.246503
451.171280,0.246575
451.509500,0.257840
451.847680,0.237774
452.185820,0.251291
452.523920,0.261168
452.861980,0.249578
453.200000,0.242525
453.537980,0.250420
453.875920,0.242017
454.213820,0.248288
454.551680,0.245033
454.889500,0.256324
455.227280,0.249110
455.565020,0.266332
455.902720,0.254576
456.240380,0.247920
456.578000,0.266551
456.915580,0.264249
457.253120,0.256579
457.590620,0.266010
457.928080,0.262626
458.265500,0.271959
458.602880,0.258117
458.940220,0.260575
459.277520,0.267200
459.614780,0.279869
459.952000,0.263975
460.289180,0.256329
460.626320,0.270866
460.963420,0.277868
461.300480,0.261468
461.637500,0.269646
461.974480,0.275229
462.311420,0.272727
462.648320,0.265007
462.985180,0.274032
463.322000,0.278274
463.658780,0.263812
463.995520,0.269601
464.332220,0.270083
464.668880,0.275538
465.005500,0.277480
465.342080,0.280410
465.678620,0.274293
466.015120,0.278137
466.351580,0.274336
466.688000,0.285018
467.024380,0.277035
467.360720,0.271591
467.697020,0.266515
468.033280,0.285556
468.369500,0.270419
468.705680,0.284104
469.041820,0.276042
469.377920,0.284165
469.713980,0.272915
470.050000,0.300483
470.385980,0.277886
470.721920,0.274241
471.057820,0.286550
471.393680,0.284378
471.729500,0.275255
472.065280,0.287120
472.401020,0.282801
472.736720,0.287086
473.072380,0.275583
473.408000,0.290688
473.743580,0.290657
474.079120,0.288544
474.414620,0.289228
474.750080,0.283971
475.085500,0.291118
475.420880,0.288926
475.756220,0.287817
476.091520,0.298380
476.426780,0.283981
476.762000,0.282381
477.097180,0.294400
477.432320,0.293215
477.767420,0.295752
478.102480,0.289764
478.437500,0.292282
478.772480,0.301812
479.107420,0.292921
479.442320,0.296563
479.777180,0.308671
480.112000,0.291217
480.446780,0.282931
480.781520,0.305153
481.116220,0.309620
481.450880,0.297424
481.785500,0.299842
482.120080,0.311912
482.454620,0.309246
482.789120,0.313694
483.123580,0.305296
483.458000,0.306171
483.792380,0.317093
484.126720,0.315830
484.461020,0.310695
484.795280,0.303778
485.129500,0.309431
485.463680,0.308527
485.797820,0.321151
486.131920,0.300689
486.465980,0.312741
486.800000,0.310687
487.133980,0.308157
487.467920,0.316756
487.801820,0.324943
488.135680,0.311600
488.469500,0.319970
488.803280,0.321694
489.137020,0.317949
489.470720,0.324184
489.804380,0.317001
490.138000,0.320475
490.471580,0.319823
490.805120,0.322373
491.138620,0.307747
491.472080,0.324382
491.805500,0.323570
492.138880,0.324531
492.472220,0.316263
492.805520,0.324721
493.138780,0.335631
493.472000,0.327759
493.805180,0.339018
494.138320,0.328886
494.471420,0.327474
494.804480,0.336352
495.137500,0.335045
495.470480,0.337157
495.803420,0.330605
496.136320,0.334586
496.469180,0.333947
496.802000,0.337408
497.134780,0.331110
497.467520,0.340673
497.800220,0.337264
498.132880,0.338036
498.465500,0.338934
498.798080,0.339612
499.130620,0.345873
499.463120,0.347558
499.795580,0.338284
500.128000,0.337875
500.460380,0.332078
500.792720,0.341463
501.125020,0.345244
501.457280,0.344648
501.789500,0.346591
502.121680,0.358217
502.453820,0.347272
502.785920,0.346673
503.117980,0.352306
503.450000,0.355098
503.781980,0.358246
504.113920,0.346136
504.445820,0.345649
504.777680,0.342588
505.109500,0.361538
505.441280,0.357075
505.773020,0.344293
506.104720,0.351861
506.436380,0.364411
506.768000,0.352666
507.099580,0.349199
507.431120,0.359251
507.762620,0.359962
508.094080,0.358706
508.425500,0.359944
508.756880,0.357567
509.088220,0.359706
509.419520,0.364525
509.750780,0.360356
510.082000,0.357276
510.413180,0.359742
510.744320,0.367234
511.075420,0.359762
511.406480,0.361072
511.737500,0.357407
512.068480,0.357613
512.399420,0.361972
512.730320,0.361663
513.061180,0.360609
513.392000,0.367250
513.722780,0.375120
514.053520,0.368951
514.384220,0.365842
514.714880,0.371470
515.045500,0.364464
515.376080,0.375787
515.706620,0.377496
516.037120,0.372059
516.367580,0.377526
516.698000,0.372059
517.028380,0.382324
517.358720,0.376790
517.689020,0.376360
518.019280,0.385850
518.349500,0.380132
518.679680,0.381625
519.009820,0.376518
519.339920,0.383768
519.669980,0.379709
520.000000,0.384106
520.329980,0.382582
520.659920,0.383947
520.989820,0.392673
521.319680,0.393004
521.649500,0.391774
521.979280,0.390919
522.309020,0.388485
522.638720,0.380952
522.968380,0.388314
523.298000,0.395616
523.627580,0.393171
523.957120,0.386494
524.286620,0.385618
524.616080,0.396587
524.945500,0.392765
525.274880,0.396614
525.604220,0.394928
525.933520,0.398847
526.262780,0.395844
526.592000,0.399797
526.921180,0.403758
527.250320,0.404871
527.579420,0.402223
527.908480,0.397834
528.237500,0.409136
528.566480,0.404691
528.895420,0.406111
529.224320,0.406637
529.553180,0.411566
529.882000,0.412165
530.210780,0.405405
530.539520,0.407478
530.868220,0.399234
531.196880,0.408982
531.525500,0.418402
531.854080,0.409006
532.182620,0.411023
532.511120,0.413457
532.839580,0.413793
533.168000,0.411577
533.496380,0.413242
533.824720,0.419919
534.153020,0.416407
534.481280,0.424229
534.809500,0.422164
535.137680,0.420573
535.465820,0.424399
535.793920,0.421743
536.121980,0.426773
536.450000,0.432558
536.777980,0.431085
537.105920,0.432130
537.433820,0.427578
537.761680,0.429388
538.089500,0.428976
538.417280,0.425388
538.745020,0.433043
539.072720,0.432253
539.400380,0.426573
539.728000,0.432122
540.055580,0.425843
540.383120,0.429263
540.710620,0.431920
541.038080,0.433051
541.365500,0.433824
541.692880,0.434956
542.020220,0.433249
542.347520,0.435750
542.674780,0.433310
543.002000,0.424773
543.329180,0.445808
543.656320,0.445851
543.983420,0.440000
544.310480,0.439348
544.637500,0.441146
544.964480,0.429341
545.291420,0.443337
545.618320,0.446547
545.945180,0.440672
546.272000,0.440695
546.598780,0.442478
546.925520,0.444444
547.252220,0.446352
547.578880,0.446074
547.905500,0.441176
548.232080,0.449643
548.558620,0.449398
548.885120,0.450769
549.211580,0.448730
549.538000,0.454604
549.864380,0.441479
550.190720,0.446561
550.517020,0.455346
550.843280,0.457329
551.169500,0.447519
551.495680,0.454008
551.821820,0.463096
552.147920,0.453481
552.473980,0.447481
552.800000,0.452910
553.125980,0.451539
553.451920,0.458195
553.777820,0.461026
554.103680,0.464442
554.429500,0.457315
554.755280,0.460614
555.081020,0.460561
555.406720,0.462919
555.732380,0.464249
556.058000,0.466056
556.383580,0.462513
556.709120,0.463818
557.034620,0.470203
557.360080,0.460104
557.685500,0.465076
558.010880,0.463432
558.336220,0.460457
558.661520,0.464020
558.986780,0.465273
559.312000,0.469017
559.637180,0.465709
559.962320,0.472054
560.287420,0.467913
560.612480,0.475780
560.937500,0.472467
561.262480,0.472507
561.587420,0.472252
561.912320,0.476050
562.237180,0.472243
562.562000,0.480359
562.886780,0.486808
563.211520,0.471684
563.536220,0.469759
563.860880,0.477933
564.185500,0.474672
564.510080,0.475546
564.834620,0.479345
565.159120,0.471053
565.483580,0.478905
565.808000,0.477109
566.132380,0.481537
566.456720,0.486772
566.781020,0.483496
567.105280,0.476749
567.429500,0.487102
567.753680,0.482931
568.077820,0.477000
568.401920,0.490451
568.725980,0.495636
569.050000,0.493536
569.373980,0.492958
569.697920,0.490709
570.021820,0.485768
570.345680,0.491772
570.669500,0.495612
570.993280,0.491325
571.317020,0.490318
571.640720,0.493146
571.964380,0.495174
572.288000,0.494436
572.611580,0.495320
572.935120,0.500187
573.258620,0.497382
573.582080,0.496274
573.905500,0.499628
574.228880,0.500371
574.552220,0.497985
574.875520,0.499628
575.198780,0.498374
575.522000,0.500000
575.845180,0.492479
576.168320,0.498742
576.491420,0.499637
576.814480,0.506329
577.137500,0.508658
577.460480,0.509967
577.783420,0.502322
578.106320,0.516382
578.429180,0.509721
578.752000,0.507815
579.074780,0.514160
579.397520,0.509038
579.720220,0.512548
580.042880,0.513710
580.365500,0.513236
580.688080,0.512212
581.010620,0.513331
581.333120,0.517368
581.655580,0.514486
581.978000,0.514799
582.300380,0.506978
582.622720,0.516809
582.945020,0.517230
583.267280,0.516770
583.589500,0.521990
583.911680,0.511591
584.233820,0.521246
584.555920,0.515600
584.877980,0.526068
585.200000,0.514119
585.521980,0.524560
585.843920,0.524405
586.165820,0.523461
586.487680,0.517906
586.809500,0.526853
587.131280,0.518781
587.453020,0.530655
587.774720,0.517150
588.096380,0.521295
588.418000,0.527656
588.739580,0.528025
589.061120,0.527602
589.382620,0.531805
589.704080,0.522581
590.025500,0.533961
590.346880,0.530635
590.668220,0.533744
590.989520,0.531337
591.310780,0.535211
591.632000,0.532514
591.953180,0.530584
592.274320,0.533989
592.595420,0.535022
592.916480,0.538169
593.237500,0.533010
593.558480,0.535647
593.879420,0.539520
594.200320,0.536834
594.521180,0.541567
594.842000,0.540570
595.162780,0.542468
595.483520,0.537091
595.804220,0.548067
596.124880,0.544098
596.445500,0.538119
596.766080,0.550955
597.086620,0.541136
597.407120,0.540811
597.727580,0.546274
598.048000,0.540333
598.368380,0.539979
598.688720,0.542071
599.009020,0.545382
599.329280,0.544439
599.649500,0.545959
599.969680,0.545406
600.289820,0.541400
600.609920,0.550628
600.929980,0.551042
601.250000,0.544865
601.569980,0.541993
601.889920,0.541834
602.209820,0.547890
602.529680,0.552595
602.849500,0.548009
603.169280,0.548912
603.489020,0.552449
603.808720,0.552935
604.128380,0.558775
604.448000,0.545028
604.767580,0.554190
605.087120,0.552355
605.406620,0.559474
605.726080,0.554320
606.045500,0.544720
606.364880,0.555713
606.684220,0.553969
607.003520,0.558486
607.322780,0.553439
607.642000,0.558300
607.961180,0.554206
608.280320,0.560035
608.599420,0.552433
608.918480,0.557185
609.237500,0.557218
609.556480,0.559337
609.875420,0.552569
610.194320,0.551521
610.513180,0.561113
610.832000,0.559559
611.150780,0.560829
611.469520,0.561689
611.788220,0.563482
612.106880,0.557901
612.425500,0.570341
612.744080,0.567251
613.062620,0.565443
613.381120,0.560938
613.699580,0.564991
614.018000,0.566339
614.336380,0.571561
614.654720,0.560000
614.973020,0.564332
615.291280,0.574218
615.609500,0.584786
615.927680,0.569221
616.245820,0.572047
616.563920,0.564812
616.881980,0.570315
617.200000,0.568585
617.517980,0.556938
617.835920,0.570674
618.153820,0.565744
618.471680,0.568062
618.789500,0.569855
619.107280,0.576839
619.425020,0.575008
619.742720,0.579724
620.060380,0.569414
620.378000,0.578037
620.695580,0.577586
621.013120,0.574173
621.330620,0.573894
621.648080,0.566877
621.965500,0.574341
622.282880,0.577238
622.600220,0.573279
622.917520,0.578135
623.234780,0.583414
623.552000,0.580204
623.869180,0.578632
624.186320,0.586119
624.503420,0.579624
624.820480,0.579014
625.137500,0.578150
625.454480,0.579869
625.771420,0.578184
626.088320,0.588588
626.405180,0.589297
626.722000,0.579987
627.038780,0.581454
627.355520,0.584063
627.672220,0.586936
627.988880,0.579782
628.305500,0.584917
628.622080,0.591388
628.938620,0.579817
629.255120,0.590853
629.571580,0.580447
629.888000,0.585456
630.204380,0.585149
630.520720,0.584095
630.837020,0.587727
631.153280,0.582434
631.469500,0.590055
631.785680,0.585895
632.101820,0.588963
632.417920,0.589568
632.733980,0.583433
633.050000,0.599454
633.365980,0.583284
633.681920,0.585621
633.997820,0.596234
634.313680,0.594810
634.629500,0.591271
634.945280,0.587097
635.261020,0.593778
635.576720,0.603053
635.892380,0.598315
636.208000,0.594131
636.523580,0.603625
636.839120,0.603069
637.154620,0.596812
637.470080,0.598852
637.785500,0.601407
638.100880,0.602664
638.416220,0.603681
638.731520,0.591117
639.046780,0.605593
639.362000,0.602924
639.677180,0.601656
639.992320,0.596279
640.307420,0.605788
640.622480,0.602632
640.937500,0.605825
641.252480,0.602346
641.567420,0.605854
641.882320,0.604677
642.197180,0.610893
642.512000,0.603414
642.826780,0.605548
643.141520,0.605446
643.456220,0.599889
643.770880,0.610006
644.085500,0.606484
644.400080,0.613483
644.714620,0.608417
645.029120,0.606436
645.343580,0.611355
645.658000,0.609770
645.972380,0.616333
646.286720,0.609158
646.601020,0.610850
646.915280,0.606526
647.229500,0.613187
647.543680,0.612538
647.857820,0.608037
648.171920,0.601465
648.485980,0.611948
648.800000,0.602370
649.113980,0.613636
649.427920,0.613592
649.741820,0.604836
650.055680,0.608338
650.369500,0.619395
650.683280,0.605161
650.997020,0.619912
651.310720,0.612548
651.624380,0.606319
651.938000,0.615512
652.251580,0.613693
652.565120,0.614030
652.878620,0.612050
653.192080,0.616011
653.505500,0.610940
653.818880,0.617856
654.132220,0.619766
654.445520,0.616279
654.758780,0.609348
655.072000,0.619771
655.385180,0.608559
655.698320,0.615604
656.011420,0.614216
656.324480,0.615855
656.637500,0.613268
656.950480,0.620963
657.263420,0.625480
657.576320,0.616662
657.889180,0.617222
658.202000,0.623490
658.514780,0.626972
658.827520,0.614046
659.140220,0.617021
659.452880,0.616430
659.765500,0.616195
660.078080,0.608486
660.390620,0.617782
660.703120,0.619615
661.015580,0.619939
661.328000,0.629093
661.640380,0.621932
661.952720,0.621925
662.265020,0.624449
662.577280,0.616094
662.889500,0.616209
663.201680,0.626356
663.513820,0.615632
663.825920,0.617355
664.137980,0.626374
664.450000,0.616688
664.761980,0.620622
665.073920,0.616358
665.385820,0.627945
665.697680,0.625785
666.009500,0.634852
666.321280,0.625580
666.633020,0.625997
666.944720,0.624874
667.256380,0.627524
667.568000,0.624321
667.879580,0.623129
668.191120,0.637019
668.502620,0.629579
668.814080,0.635088
669.125500,0.625385
669.436880,0.624827
669.748220,0.619592
670.059520,0.635504
670.370780,0.624913
670.682000,0.630088
670.993180,0.634249
671.304320,0.618847
671.615420,0.618253
671.926480,0.627750
672.237500,0.631297
672.548480,0.624911
672.859420,0.618299
673.170320,0.641277
673.481180,0.636133
673.792000,0.629643
674.102780,0.626930
674.413520,0.632884
674.724220,0.630490
675.034880,0.628896
675.345500,0.625821
675.656080,0.627586
675.966620,0.638778
676.277120,0.636031
676.587580,0.632548
676.898000,0.638671
677.208380,0.639926
677.518720,0.626185
677.829020,0.629712
678.139280,0.628614
678.449500,0.626810
678.759680,0.635069
679.069820,0.632342
679.379920,0.631083
679.689980,0.638322
680.000000,0.625794
680.309980,0.629547
680.619920,0.636880
680.929820,0.631952
681.239680,0.625554
681.549500,0.635556
681.859280,0.630695
682.169020,0.640433
682.478720,0.638743
682.788380,0.631598
683.098000,0.637248
683.407580,0.636773
683.717120,0.634384
684.026620,0.636672
684.336080,0.638878
684.645500,0.628881
684.954880,0.634681
685.264220,0.635334
685.573520,0.638751
685.882780,0.652474
686.192000,0.640331
686.501180,0.640938
686.810320,0.642198
687.119420,0.644242
687.428480,0.630460
687.737500,0.648120
688.046480,0.639571
688.355420,0.635609
688.664320,0.631599
688.973180,0.633614
689.282000,0.640818
689.590780,0.647623
689.899520,0.628561
690.208220,0.650994
690.516880,0.638030
690.825500,0.638868
691.134080,0.636295
691.442620,0.634909
691.751120,0.635950
692.059580,0.645013
692.368000,0.645589
692.676380,0.649618
692.984720,0.641221
693.293020,0.649316
693.601280,0.645555
693.909500,0.641317
694.217680,0.640899
694.525820,0.638995
694.833920,0.641740
695.141980,0.643656
695.450000,0.638931
695.757980,0.639801
696.065920,0.641942
696.373820,0.647036
696.681680,0.636747
696.989500,0.641451
697.297280,0.635161
697.605020,0.654762
697.912720,0.636434
698.220380,0.644235
698.528000,0.649525
698.835580,0.647175
699.143120,0.646532
699.450620,0.645187
699.758080,0.633333
700.065500,0.648843
700.372880,0.656000
700.680220,0.648983
700.987520,0.646429
701.294780,0.646796
701.602000,0.645800
701.909180,0.646661
702.216320,0.635901
702.523420,0.656275
702.830480,0.655446
703.137500,0.644583
703.444480,0.648521
703.751420,0.659566
704.058320,0.654135
704.365180,0.648659
704.672000,0.651089
704.978780,0.646898
705.285520,0.647496
705.592220,0.638039
705.898880,0.652876
706.205500,0.645540
706.512080,0.645735
706.818620,0.662926
707.125120,0.652692
707.431580,0.653380
707.738000,0.664453
708.044380,0.644539
708.350720,0.647306
708.657020,0.655725
708.963280,0.652174
709.269500,0.646967
709.575680,0.653831
709.881820,0.654481
710.187920,0.657198
710.493980,0.656711
710.800000,0.653699
711.105980,0.639307
711.411920,0.645250
711.717820,0.648733
712.023680,0.649825
712.329500,0.654180
712.635280,0.657752
712.941020,0.654039
713.246720,0.652569
713.552380,0.665620
713.858000,0.648798
714.163580,0.649961
714.469120,0.648691
714.774620,0.656139
715.080080,0.652532
715.385500,0.653477
715.690880,0.646548
715.996220,0.657290
716.301520,0.656126
716.606780,0.647013
716.912000,0.656704
717.217180,0.663607
717.522320,0.650497
717.827420,0.655004
718.132480,0.647531
718.437500,0.655524
718.742480,0.656452
719.047420,0.655744
719.352320,0.662931
719.657180,0.659853
719.962000,0.653846
720.266780,0.654757
720.571520,0.650787
720.876220,0.654255
721.180880,0.653428
721.485500,0.654409
721.790080,0.648408
722.094620,0.661664
722.399120,0.670401
722.703580,0.645949
723.008000,0.661061
723.312380,0.652604
723.616720,0.654059
723.921020,0.640537
724.225280,0.652269
724.529500,0.645359
724.833680,0.657473
725.137820,0.663436
725.441920,0.654481
725.745980,0.663982
726.050000,0.651331
726.353980,0.653898
726.657920,0.647323
726.961820,0.662100
727.265680,0.653259
727.569500,0.652651
727.873280,0.660046
728.177020,0.649931
728.480720,0.652778
728.784380,0.666510
729.088000,0.653321
729.391580,0.657508
729.695120,0.663148
729.998620,0.661568
730.302080,0.654493
730.605500,0.650170
730.908880,0.643312
731.212220,0.653281
731.515520,0.654803
731.818780,0.645631
732.122000,0.647638
732.425180,0.641203
732.728320,0.652950
733.031420,0.640602
733.334480,0.660714
733.637500,0.647681
733.940480,0.654043
734.243420,0.649847
734.546320,0.658714
734.849180,0.643595
735.152000,0.659751
735.454780,0.647211
735.757520,0.654373
736.060220,0.655608
736.362880,0.659664
736.665500,0.642298
736.968080,0.663622
737.270620,0.663038
737.573120,0.651747
737.875580,0.669049
738.178000,0.646707
738.480380,0.655676
738.782720,0.655398
739.085020,0.656388
739.387280,0.646896
739.689500,0.654587
739.991680,0.660865
740.293820,0.654505
740.595920,0.656093
740.897980,0.657256
741.200000,0.656197
741.501980,0.669914
741.803920,0.649775
742.105820,0.654258
742.407680,0.665696
742.709500,0.640341
743.011280,0.660610
743.313020,0.654493
743.614720,0.652931
743.916380,0.646512
744.218000,0.665871
744.519580,0.666063
744.821120,0.661677
745.122620,0.663271
745.424080,0.650240
745.725500,0.660229
746.026880,0.655788
746.328220,0.669544
746.629520,0.637568
746.930780,0.648284
747.232000,0.641324
747.533180,0.651617
747.834320,0.654291
748.135420,0.654444
748.436480,0.671241
748.737500,0.663372
749.038480,0.641417
749.339420,0.661481
749.640320,0.668133
749.941180,0.644597
750.242000,0.660176
750.542780,0.652605
750.843520,0.659193
751.144220,0.658333
751.444880,0.666455
751.745500,0.659740
752.046080,0.656831
752.346620,0.653351
752.647120,0.659700
752.947580,0.648771
753.248000,0.657640
753.548380,0.644112
753.848720,0.659369
754.149020,0.650548
754.449280,0.665791
754.749500,0.654944
755.049680,0.657333
755.349820,0.650434
755.649920,0.658295
755.949980,0.652289
756.250000,0.662722
756.549980,0.640924
756.849920,0.653297
757.149820,0.641384
757.449680,0.644224
757.749500,0.667348
758.049280,0.653925
758.349020,0.646732
758.648720,0.664596
758.948380,0.657732
759.248000,0.662399
759.547580,0.648285
759.847120,0.650586
760.146620,0.665088
760.446080,0.655242
760.745500,0.662937
761.044880,0.664062
761.344220,0.659301
761.643520,0.667373
761.942780,0.655703
762.242000,0.657709
762.541180,0.649296
762.840320,0.665730
763.139420,0.649086
763.438480,0.656186
763.737500,0.657478
764.036480,0.659679
764.335420,0.658433
764.634320,0.651421
764.933180,0.648630
765.232000,0.655795
765.530780,0.661053
765.829520,0.662937
766.128220,0.659012
766.426880,0.661692
766.725500,0.663468
767.024080,0.661180
767.322620,0.667358
767.621120,0.651084
767.919580,0.660068
768.218000,0.649111
768.516380,0.655172
768.814720,0.658436
769.113020,0.662991
769.411280,0.667127
769.709500,0.658322
770.007680,0.664622
770.305820,0.655172
770.603920,0.648922
770.901980,0.665984
771.200000,0.666440
771.497980,0.635389
771.795920,0.648829
772.093820,0.645722
772.391680,0.653922
772.689500,0.644595
772.987280,0.665320
773.285020,0.663021
773.582720,0.664189
773.880380,0.678792
774.178000,0.655760
774.475580,0.652378
774.773120,0.653280
775.070620,0.646383
775.368080,0.653975
775.665500,0.648758
775.962880,0.654436
776.260220,0.658816
776.557520,0.659773
776.854780,0.667343
777.152000,0.646552
777.449180,0.648685
777.746320,0.653226
778.043420,0.655525
778.340480,0.652233
778.637500,0.661934
778.934480,0.661063
779.231420,0.656038
779.528320,0.647295
779.825180,0.638340
780.122000,0.651394
780.418780,0.666211
780.715520,0.653924
781.012220,0.651370
781.308880,0.651116
781.605500,0.654795
781.902080,0.663244
782.198620,0.655502
782.495120,0.659808
782.791580,0.665062
783.088000,0.663216
783.384380,0.662311
783.680720,0.648427
783.977020,0.654508
784.273280,0.648951
784.569500,0.656883
784.865680,0.651599
785.161820,0.656944
785.457920,0.653500
785.753980,0.666434
786.050000,0.666436
786.345980,0.647222
786.641920,0.667592
786.937820,0.670228
787.233680,0.643006
787.529500,0.651872
787.825280,0.660765
788.121020,0.658640
788.416720,0.647142
788.712380,0.665726
789.008000,0.656516
789.303580,0.648763
789.599120,0.666909
789.894620,0.649097
790.190080,0.651922
790.485500,0.655148
790.780880,0.658065
791.076220,0.656566
791.371520,0.670298
791.666780,0.658182
791.962000,0.673769
792.257180,0.653734
792.552320,0.652647
792.847420,0.656477
793.142480,0.660806
793.437500,0.658466
793.732480,0.662765
794.027420,0.658754
794.322320,0.657718
794.617180,0.658247
794.912000,0.668648
795.206780,0.662938
795.501520,0.671483
795.796220,0.644444
796.090880,0.655614
796.385500,0.645427
796.680080,0.653702
796.974620,0.642216
797.269120,0.654050
797.563580,0.655725
797.858000,0.652240
798.152380,0.662800
798.446720,0.660000
798.741020,0.657935
799.035280,0.661491
799.329500,0.659738
799.623680,0.663566
