399.985280,0.229730
400.329500,0.135135
400.673680,0.189873
401.017820,0.191176
401.361920,0.136364
401.705980,0.207317
402.050000,0.142857
402.393980,0.247059
402.737920,0.224719
403.081820,0.226804
403.425680,0.232558
403.769500,0.187500
404.113280,0.218391
404.457020,0.191011
404.800720,0.206522
405.144380,0.282828
405.488000,0.172043
405.831580,0.195876
406.175120,0.180851
406.518620,0.190000
406.862080,0.247423
407.205500,0.197917
407.548880,0.234694
407.892220,0.205882
408.235520,0.202128
408.578780,0.238095
408.922000,0.134615
409.265180,0.181818
409.608320,0.202020
409.951420,0.268041
410.294480,0.225490
410.637500,0.195652
410.980480,0.225490
411.323420,0.193878
411.666320,0.211009
412.009180,0.236364
412.352000,0.188119
412.694780,0.229358
413.037520,0.220183
413.380220,0.243243
413.722880,0.223214
414.065500,0.252252
414.408080,0.256637
414.750620,0.212389
415.093120,0.190083
415.435580,0.210084
415.778000,0.219697
416.120380,0.184874
416.462720,0.238095
416.805020,0.263158
417.147280,0.268657
417.489500,0.264286
417.831680,0.219178
418.173820,0.198582
418.515920,0.216783
418.857980,0.234177
419.200000,0.262821
419.541980,0.242604
419.883920,0.230337
420.225820,0.236994
420.567680,0.234637
420.909500,0.262295
421.251280,0.229167
421.593020,0.214286
421.934720,0.227273
422.276380,0.215385
422.618000,0.240196
422.959580,0.254902
423.301120,0.264840
423.642620,0.195652
423.984080,0.213953
424.325500,0.242152
424.666880,0.245690
425.008220,0.231092
425.349520,0.258475
425.690780,0.226923
426.032000,0.200000
426.373180,0.228216
426.714320,0.218750
427.055420,0.243243
427.396480,0.243446
427.737500,0.217391
428.078480,0.272727
428.419420,0.228916
428.760320,0.214559
429.101180,0.228346
429.442000,0.241379
429.782780,0.261538
430.123520,0.247059
430.464220,0.236162
430.804880,0.252874
431.145500,0.258182
431.486080,0.262172
431.826620,0.255814
432.167120,0.227941
432.507580,0.253623
432.848000,0.266187
433.188380,0.238267
433.528720,0.233962
433.869020,0.253571
434.209280,0.228070
434.549500,0.261324
434.889680,0.255892
435.229820,0.232082
435.569920,0.221453
435.909980,0.249191
436.250000,0.237288
436.589980,0.229102
436.929920,0.263492
437.269820,0.253918
437.609680,0.254438
437.949500,0.262048
438.289280,0.254958
438.629020,0.255814
438.968720,0.247093
439.308380,0.246612
439.648000,0.246575
439.987580,0.272487
440.327120,0.264000
440.666620,0.249351
441.006080,0.260870
441.345500,0.275184
441.684880,0.246411
442.024220,0.243176
442.363520,0.266667
442.702780,0.252273
443.042000,0.248899
443.381180,0.269397
443.720320,0.274298
444.059420,0.252101
444.398480,0.251046
444.737500,0.260246
445.076480,0.248016
445.415420,0.251497
445.754320,0.272349
446.093180,0.255046
446.432000,0.274436
446.770780,0.271347
447.109520,0.270221
447.448220,0.262970
447.786880,0.275492
448.125500,0.268966
448.464080,0.258929
448.802620,0.269504
449.141120,0.256055
449.479580,0.260490
449.818000,0.271945
450.156380,0.260870
450.494720,0.257851
450.833020,0.251748
451.171280,0.255137
451.509500,0.264808
451.847680,0.264755
452.185820,0.273666
452.523920,0.286942
452.861980,0.256324
453.200000,0.255814
453.537980,0.284034
453.875920,0.282353
454.213820,0.282534
454.551680,0.269868
454.889500,0.269815
455.227280,0.254448
455.565020,0.271357
455.902720,0.272879
456.240380,0.261231
456.578000,0.271777
456.915580,0.278066
457.253120,0.279605
457.590620,0.280788
457.928080,0.289562
458.265500,0.282095
458.602880,0.277597
458.940220,0.260575
459.277520,0.278400
459.614780,0.292962
459.952000,0.273292
460.289180,0.284810
460.626320,0.281890
460.963420,0.289176
461.300480,0.287462
461.637500,0.297381
461.974480,0.296636
462.311420,0.293592
462.648320,0.270864
462.985180,0.282640
463.322000,0.297619
463.658780,0.283149
463.995520,0.281981
464.332220,0.296399
464.668880,0.291667
465.005500,0.304290
465.342080,0.293214
465.678620,0.290283
466.015120,0.293661
466.351580,0.303413
466.688000,0.306943
467.024380,0.301337
467.360720,0.287500
467.697020,0.298405
468.033280,0.298889
468.369500,0.306843
468.705680,0.304397
469.041820,0.302083
469.377920,0.295011
469.713980,0.305870
470.050000,0.296618
470.385980,0.305284
470.721920,0.289912
471.057820,0.305068
471.393680,0.304958
471.729500,0.303985
472.065280,0.312165
472.401020,0.312057
472.736720,0.305410
473.072380,0.298923
473.408000,0.295039
473.743580,0.296713
474.079120,0.307494
474.414620,0.304495
474.750080,0.304312
475.085500,0.308388
475.420880,0.310575
475.756220,0.311529
476.091520,0.309463
476.426780,0.311489
476.762000,0.301689
477.097180,0.320800
477.432320,0.306947
477.767420,0.313725
478.102480,0.304724
478.437500,0.308703
478.772480,0.302600
479.107420,0.314076
479.442320,0.314149
479.777180,0.319809
480.112000,0.310478
480.446780,0.308652
480.781520,0.315620
481.116220,0.318513
481.450880,0.314598
481.785500,0.333070
482.120080,0.328370
482.454620,0.326340
482.789120,0.322452
483.123580,0.321651
483.458000,0.322785
483.792380,0.329073
484.126720,0.332046
484.461020,0.331772
484.795280,0.333847
485.129500,0.328917
485.463680,0.343411
485.797820,0.341369
486.131920,0.326702
486.465980,0.322780
486.800000,0.336641
487.133980,0.327039
487.467920,0.328998
487.801820,0.342487
488.135680,0.332828
488.469500,0.338124
488.803280,0.338039
489.137020,0.339927
489.470720,0.333086
489.804380,0.348181
490.138000,0.353116
490.471580,0.353721
490.805120,0.340958
491.138620,0.326937
491.472080,0.343463
491.805500,0.341004
492.138880,0.345379
492.472220,0.352941
492.805520,0.345670
493.138780,0.357684
493.472000,0.353177
493.805180,0.355389
494.138320,0.352235
494.471420,0.348307
494.804480,0.345408
495.137500,0.354300
495.470480,0.355003
495.803420,0.359572
496.136320,0.365915
496.469180,0.352363
496.802000,0.350856
497.134780,0.353548
497.467520,0.368196
497.800220,0.356132
498.132880,0.363316
498.465500,0.361530
498.798080,0.356164
499.130620,0.361033
499.463120,0.363841
499.795580,0.356986
500.128000,0.358038
500.460380,0.361679
500.792720,0.355249
501.125020,0.357856
501.457280,0.363969
501.789500,0.359504
502.121680,0.371177
502.453820,0.368689
502.785920,0.367684
503.117980,0.376349
503.450000,0.378202
503.781980,0.365720
504.113920,0.358938
504.445820,0.363636
504.777680,0.371765
505.109500,0.380288
505.441280,0.372849
505.773020,0.371536
506.104720,0.370702
506.436380,0.379555
506.768000,0.381197
507.099580,0.368421
507.431120,0.377518
507.762620,0.382049
508.094080,0.365542
508.425500,0.378151
508.756880,0.373571
509.088220,0.377645
509.419520,0.383147
509.750780,0.382849
510.082000,0.379198
510.413180,0.376324
510.744320,0.385642
511.075420,0.383593
511.406480,0.381758
511.737500,0.378241
512.068480,0.396147
512.399420,0.380751
512.730320,0.378291
513.061180,0.384396
513.392000,0.387127
513.722780,0.393372
514.053520,0.394346
514.384220,0.387250
514.714880,0.394447
515.045500,0.388410
515.376080,0.391283
515.706620,0.393083
516.037120,0.390686
516.367580,0.399211
516.698000,0.394608
517.028380,0.397219
517.358720,0.394074
517.689020,0.397626
518.019280,0.397391
518.349500,0.406994
518.679680,0.403836
519.009820,0.396255
519.339920,0.403808
519.669980,0.393270
520.000000,0.404992
520.329980,0.410575
520.659920,0.400307
520.989820,0.409701
521.319680,0.416152
521.649500,0.408226
521.979280,0.403967
522.309020,0.403527
522.638720,0.399386
522.968380,0.407446
523.298000,0.410230
523.627580,0.400414
523.957120,0.405195
524.286620,0.410631
524.616080,0.408997
524.945500,0.413437
525.274880,0.420729
525.604220,0.418219
525.933520,0.415094
526.262780,0.405981
526.592000,0.417555
526.921180,0.415439
527.250320,0.415018
527.579420,0.426983
527.908480,0.420975
528.237500,0.430487
528.566480,0.421158
528.895420,0.424840
529.224320,0.429421
529.553180,0.424096
529.882000,0.428710
530.210780,0.424710
530.539520,0.424736
530.868220,0.424126
531.196880,0.424271
531.525500,0.434867
531.854080,0.427298
532.182620,0.424568
532.511120,0.428306
532.839580,0.435572
533.168000,0.439380
533.496380,0.438356
533.824720,0.431135
534.153020,0.437361
534.481280,0.435242
534.809500,0.443712
535.137680,0.442274
535.465820,0.435997
535.793920,0.435279
536.121980,0.441460
536.450000,0.452008
536.777980,0.453289
537.105920,0.443337
537.433820,0.442308
537.761680,0.445306
538.089500,0.444759
538.417280,0.444091
538.745020,0.454041
539.072720,0.446310
539.400380,0.449106
539.728000,0.442447
540.055580,0.447566
540.383120,0.437081
540.710620,0.451637
541.038080,0.449281
541.365500,0.454044
541.692880,0.457122
542.020220,0.454840
542.347520,0.458363
542.674780,0.455187
543.002000,0.458013
543.329180,0.460540
543.656320,0.460970
543.983420,0.457094
544.310480,0.447842
544.637500,0.464347
544.964480,0.461306
545.291420,0.459621
545.618320,0.458499
545.945180,0.457482
546.272000,0.455767
546.598780,0.462144
546.925520,0.467194
547.252220,0.462529
547.578880,0.465624
547.905500,0.462418
548.232080,0.469786
548.558620,0.471201
548.885120,0.464508
549.211580,0.468017
549.538000,0.471141
549.864380,0.467524
550.190720,0.469164
550.517020,0.468709
550.843280,0.467101
551.169500,0.457061
551.495680,0.472733
551.821820,0.471587
552.147920,0.464541
552.473980,0.475140
552.800000,0.472858
553.125980,0.478716
553.451920,0.479429
553.777820,0.482345
554.103680,0.478261
554.429500,0.472715
554.755280,0.477971
555.081020,0.472259
555.406720,0.472740
555.732380,0.480176
556.058000,0.478615
556.383580,0.478946
556.709120,0.483115
557.034620,0.480193
557.360080,0.480484
557.685500,0.480290
558.010880,0.476256
558.336220,0.473814
558.661520,0.483871
558.986780,0.485117
559.312000,0.489672
559.637180,0.483662
559.962320,0.480242
560.287420,0.485896
560.612480,0.486545
560.937500,0.488987
561.262480,0.486070
561.587420,0.489300
561.912320,0.491894
562.237180,0.485566
562.562000,0.494949
562.886780,0.492754
563.211520,0.489568
563.536220,0.491280
563.860880,0.490381
564.185500,0.487430
564.510080,0.500752
564.834620,0.496092
565.159120,0.495113
565.483580,0.490688
565.808000,0.490730
566.132380,0.493473
566.456720,0.493953
566.781020,0.494749
567.105280,0.497164
567.429500,0.500000
567.753680,0.504028
568.077820,0.495168
568.401920,0.503438
568.725980,0.510816
569.050000,0.513688
569.373980,0.497145
569.697920,0.510049
570.021820,0.498876
570.345680,0.508993
570.669500,0.495231
570.993280,0.499815
571.317020,0.496164
571.640720,0.512041
571.964380,0.512249
572.288000,0.512611
572.611580,0.508798
572.935120,0.506921
573.258620,0.514211
573.582080,0.509687
573.905500,0.510797
574.228880,0.513734
574.552220,0.513008
574.875520,0.514892
575.198780,0.511384
575.522000,0.510264
575.845180,0.509312
576.168320,0.522817
576.491420,0.526163
576.814480,0.520072
577.137500,0.520563
577.460480,0.517579
577.783420,0.523401
578.106320,0.535613
578.429180,0.525274
578.752000,0.527961
579.074780,0.524949
579.397520,0.520336
579.720220,0.525418
580.042880,0.531219
580.365500,0.526803
580.688080,0.527815
581.010620,0.527843
581.333120,0.531396
581.655580,0.523810
581.978000,0.526106
582.300380,0.526452
582.622720,0.532301
582.945020,0.529909
583.267280,0.525236
583.589500,0.529053
583.911680,0.530962
584.233820,0.532263
584.555920,0.542389
584.877980,0.536432
585.200000,0.523941
585.521980,0.539388
585.843920,0.533862
586.165820,0.535954
586.487680,0.533253
586.809500,0.538254
587.131280,0.531500
587.453020,0.541964
587.774720,0.544057
588.096380,0.539090
588.418000,0.549605
588.739580,0.544409
589.061120,0.543128
589.382620,0.546132
589.704080,0.533240
590.025500,0.550228
590.346880,0.542721
590.668220,0.541865
590.989520,0.538270
591.310780,0.545982
591.632000,0.547268
591.953180,0.537227
592.274320,0.540541
592.595420,0.548222
592.916480,0.552567
593.237500,0.550525
593.558480,0.555017
593.879420,0.548692
594.200320,0.551835
594.521180,0.548473
594.842000,0.554809
595.162780,0.549145
595.483520,0.551715
595.804220,0.549946
596.124880,0.555023
596.445500,0.549384
596.766080,0.560903
597.086620,0.556263
597.407120,0.552659
597.727580,0.559003
598.048000,0.560434
598.368380,0.556023
598.688720,0.552556
599.009020,0.547240
599.329280,0.559340
599.649500,0.555468
599.969680,0.561165
600.289820,0.560897
600.609920,0.559177
600.929980,0.562266
601.250000,0.560270
601.569980,0.562787
601.889920,0.558941
602.209820,0.561418
602.529680,0.569624
602.849500,0.564375
603.169280,0.570130
603.489020,0.573761
603.808720,0.566374
604.128380,0.559051
604.448000,0.559945
604.767580,0.567318
605.087120,0.562604
605.406620,0.563392
605.726080,0.570288
606.045500,0.556701
606.364880,0.558548
606.684220,0.562821
607.003520,0.560206
607.322780,0.568505
607.642000,0.570362
607.961180,0.572131
608.280320,0.565835
608.599420,0.565180
608.918480,0.570968
609.237500,0.572770
609.556480,0.571767
609.875420,0.566745
610.194320,0.568350
610.513180,0.565256
610.832000,0.566111
611.150780,0.573145
611.469520,0.570739
611.788220,0.576784
612.106880,0.568154
612.425500,0.576431
612.744080,0.581717
613.062620,0.575229
613.381120,0.572821
613.699580,0.573881
614.018000,0.576474
614.336380,0.574028
614.654720,0.580155
614.973020,0.570811
615.291280,0.577316
615.609500,0.594295
615.927680,0.580346
616.245820,0.576685
616.563920,0.575692
616.881980,0.580917
617.200000,0.572628
617.517980,0.584319
617.835920,0.578441
618.153820,0.580044
618.471680,0.579225
618.789500,0.581498
619.107280,0.581847
619.425020,0.582937
619.742720,0.575330
620.060380,0.581949
620.378000,0.580554
620.695580,0.584291
621.013120,0.585197
621.330620,0.583935
621.648080,0.578233
621.965500,0.586575
622.282880,0.590164
622.600220,0.576753
622.917520,0.588847
623.234780,0.593700
623.552000,0.590388
623.869180,0.584620
624.186320,0.590895
624.503420,0.584013
624.820480,0.587496
625.137500,0.589833
625.454480,0.591122
625.771420,0.592055
626.088320,0.593317
626.405180,0.590853
626.722000,0.594417
627.038780,0.584900
627.355520,0.589375
627.672220,0.594712
627.988880,0.590980
628.305500,0.602680
628.622080,0.595725
628.938620,0.585321
629.255120,0.597698
629.571580,0.600061
629.888000,0.584842
630.204380,0.598036
630.520720,0.595064
630.837020,0.602220
631.153280,0.598921
631.469500,0.592784
631.785680,0.597046
632.101820,0.598311
632.417920,0.599404
632.733980,0.598139
633.050000,0.606125
633.365980,0.595436
633.681920,0.597852
633.997820,0.599821
634.313680,0.600118
634.629500,0.592746
634.945280,0.597654
635.261020,0.604638
635.576720,0.610981
635.892380,0.598025
636.208000,0.598489
636.523580,0.612102
636.839120,0.599595
637.154620,0.608406
637.470080,0.597704
637.785500,0.612837
638.100880,0.605850
638.416220,0.611447
638.731520,0.603725
639.046780,0.607049
639.362000,0.604644
639.677180,0.607367
639.992320,0.611785
640.307420,0.606631
640.622480,0.609073
640.937500,0.602774
641.252480,0.614074
641.567420,0.610969
641.882320,0.616927
642.197180,0.616227
642.512000,0.611251
642.826780,0.611373
643.141520,0.610447
643.456220,0.617045
643.770880,0.612493
644.085500,0.610676
644.400080,0.615730
644.714620,0.615106
645.029120,0.610561
645.343580,0.615469
645.658000,0.613655
645.972380,0.615237
646.286720,0.610793
646.601020,0.627456
646.915280,0.616671
647.229500,0.609341
647.543680,0.610052
647.857820,0.615469
648.171920,0.607976
648.485980,0.617978
648.800000,0.605125
649.113980,0.616962
649.427920,0.618308
649.741820,0.610333
650.055680,0.617937
650.369500,0.621637
650.683280,0.616815
650.997020,0.615787
651.310720,0.611447
651.624380,0.618681
651.938000,0.631302
652.251580,0.622321
652.565120,0.618781
652.878620,0.617962
653.192080,0.622472
653.505500,0.614306
653.818880,0.630651
654.132220,0.617488
654.445520,0.620817
654.758780,0.621246
655.072000,0.612321
655.385180,0.609700
655.698320,0.617033
656.011420,0.621955
656.324480,0.624308
656.637500,0.616165
656.950480,0.620963
657.263420,0.625480
657.576320,0.621109
657.889180,0.619286
658.202000,0.627717
658.514780,0.620720
658.827520,0.613145
659.140220,0.617621
659.452880,0.624283
659.765500,0.622216
660.078080,0.616311
660.390620,0.618087
660.703120,0.623892
661.015580,0.627607
661.328000,0.631612
661.640380,0.636222
661.952720,0.624105
662.265020,0.626969
662.577280,0.620865
662.889500,0.618417
663.201680,0.630504
663.513820,0.628176
663.825920,0.628882
664.137980,0.636070
664.450000,0.613811
664.761980,0.627169
665.073920,0.621551
665.385820,0.622382
665.697680,0.629091
666.009500,0.639840
666.321280,0.636846
666.633020,0.638298
666.944720,0.625885
667.256380,0.628869
667.568000,0.626359
667.879580,0.632993
668.191120,0.629121
668.502620,0.629237
668.814080,0.635088
669.125500,0.631201
669.436880,0.627593
669.748220,0.633437
670.059520,0.635854
670.370780,0.628392
670.682000,0.632212
670.993180,0.640944
671.304320,0.630450
671.615420,0.630682
671.926480,0.629524
672.237500,0.631297
672.548480,0.634138
672.859420,0.631165
673.170320,0.630758
673.481180,0.628530
673.792000,0.628201
674.102780,0.626930
674.413520,0.635436
674.724220,0.633757
675.034880,0.645398
675.345500,0.633479
675.656080,0.629038
675.966620,0.638414
676.277120,0.634932
676.587580,0.638439
676.898000,0.641284
677.208380,0.632532
677.518720,0.637491
677.829020,0.628973
678.139280,0.641216
678.449500,0.641292
678.759680,0.645185
679.069820,0.631599
679.379920,0.635609
679.689980,0.632009
680.000000,0.645981
680.309980,0.640312
680.619920,0.638395
680.929820,0.633445
681.239680,0.628139
681.549500,0.634815
681.859280,0.638536
682.169020,0.634465
682.478720,0.642483
682.788380,0.640458
683.098000,0.634256
683.407580,0.637523
683.717120,0.630631
684.026620,0.637425
684.336080,0.638878
684.645500,0.629256
684.954880,0.652059
685.264220,0.631937
685.573520,0.640655
685.882780,0.643652
686.192000,0.636945
686.501180,0.641317
686.810320,0.643736
687.119420,0.633979
687.428480,0.644512
687.737500,0.652341
688.046480,0.639187
688.355420,0.630328
688.664320,0.641163
688.973180,0.637060
689.282000,0.641204
689.590780,0.646856
689.899520,0.638055
690.208220,0.650229
690.516880,0.638030
690.825500,0.641887
691.134080,0.637813
691.442620,0.641768
691.751120,0.642017
692.059580,0.656477
692.368000,0.640666
692.676380,0.646947
692.984720,0.638168
693.293020,0.639818
693.601280,0.643266
693.909500,0.645100
694.217680,0.646992
694.525820,0.652704
694.833920,0.642884
695.141980,0.652140
695.450000,0.646947
695.757980,0.638655
696.065920,0.638058
696.373820,0.635874
696.681680,0.635980
696.989500,0.648012
697.297280,0.635939
697.605020,0.655952
697.912720,0.641430
698.220380,0.635183
698.528000,0.655063
698.835580,0.639273
699.143120,0.636789
699.450620,0.649165
699.758080,0.636863
700.065500,0.647247
700.372880,0.650000
700.680220,0.647786
700.987520,0.647222
701.294780,0.651257
701.602000,0.642235
701.909180,0.645072
702.216320,0.639030
702.523420,0.651934
702.830480,0.656634
703.137500,0.644193
703.444480,0.649310
703.751420,0.657199
704.058320,0.645034
704.365180,0.645505
704.672000,0.651881
704.978780,0.649629
705.285520,0.642801
705.592220,0.650196
705.898880,0.644602
706.205500,0.649844
706.512080,0.657188
706.818620,0.648994
707.125120,0.656538
707.431580,0.648300
707.738000,0.652734
708.044380,0.646854
708.350720,0.648452
708.657020,0.658460
708.963280,0.650233
709.269500,0.643836
709.575680,0.653045
709.881820,0.646226
710.187920,0.649805
710.493980,0.648953
710.800000,0.632342
711.105980,0.648343
711.411920,0.650769
711.717820,0.648343
712.023680,0.640886
712.329500,0.652208
712.635280,0.658527
712.941020,0.644376
713.246720,0.648221
713.552380,0.651884
713.858000,0.651163
714.163580,0.651934
714.469120,0.649863
714.774620,0.654560
715.080080,0.651747
715.385500,0.657874
715.690880,0.648915
715.996220,0.645800
716.301520,0.653755
716.606780,0.657233
716.912000,0.658724
717.217180,0.660016
717.522320,0.656859
717.827420,0.652970
718.132480,0.649940
718.437500,0.651447
718.742480,0.647177
719.047420,0.652913
719.352320,0.653798
719.657180,0.664350
719.962000,0.651365
720.266780,0.656003
720.571520,0.652030
720.876220,0.643208
721.180880,0.644231
721.485500,0.650230
721.790080,0.657749
722.094620,0.653087
722.399120,0.664369
722.703580,0.651522
723.008000,0.658473
723.312380,0.649591
723.616720,0.648109
723.921020,0.656128
724.225280,0.655323
724.529500,0.651489
724.833680,0.660587
725.137820,0.652863
725.441920,0.654035
725.745980,0.656376
726.050000,0.655390
726.353980,0.656151
726.657920,0.652272
726.961820,0.656621
727.265680,0.668054
727.569500,0.652194
727.873280,0.650808
728.177020,0.661446
728.480720,0.652315
728.784380,0.658995
729.088000,0.655676
729.391580,0.651824
729.695120,0.660269
729.998620,0.660612
730.302080,0.658337
730.605500,0.658418
730.908880,0.656051
731.212220,0.651812
731.515520,0.649927
731.818780,0.644175
732.122000,0.651575
732.425180,0.644160
732.728320,0.642538
733.031420,0.642105
733.334480,0.647959
733.637500,0.646169
733.940480,0.663767
734.243420,0.661570
734.546320,0.664419
734.849180,0.640496
735.152000,0.659751
735.454780,0.652893
735.757520,0.663330
736.060220,0.662454
736.362880,0.650735
736.665500,0.645431
736.968080,0.652337
737.270620,0.662493
737.573120,0.655022
737.875580,0.657504
738.178000,0.663582
738.480380,0.655135
738.782720,0.647764
739.085020,0.650330
739.387280,0.649667
739.689500,0.662514
739.991680,0.653004
740.293820,0.651741
740.595920,0.663328
740.897980,0.657256
741.200000,0.643298
741.501980,0.657880
741.803920,0.645833
742.105820,0.645798
742.407680,0.665696
742.709500,0.647727
743.011280,0.644197
743.313020,0.657391
743.614720,0.641904
743.916380,0.648837
744.218000,0.657518
744.519580,0.649758
744.821120,0.656287
745.122620,0.647094
745.424080,0.653846
745.725500,0.652384
746.026880,0.655788
746.328220,0.651048
746.629520,0.641782
746.930780,0.650735
747.232000,0.657265
747.533180,0.665650
747.834320,0.671333
748.135420,0.645121
748.436480,0.650031
748.737500,0.645460
749.038480,0.650580
749.339420,0.649658
749.640320,0.658077
749.941180,0.655840
750.242000,0.654523
750.542780,0.648263
750.843520,0.661755
751.144220,0.652564
751.444880,0.671528
751.745500,0.646104
752.046080,0.671584
752.346620,0.657216
752.647120,0.656434
752.947580,0.647477
753.248000,0.654417
753.548380,0.638907
753.848720,0.670316
754.149020,0.640877
754.449280,0.656599
754.749500,0.643663
755.049680,0.644000
755.349820,0.653769
755.649920,0.662921
755.949980,0.651626
756.250000,0.662722
756.549980,0.649505
756.849920,0.651258
757.149820,0.650033
757.449680,0.651485
757.749500,0.661895
758.049280,0.661433
758.349020,0.646036
758.648720,0.663906
758.948380,0.659107
759.248000,0.666442
759.547580,0.659718
759.847120,0.645762
760.146620,0.654939
760.446080,0.655242
760.745500,0.667832
761.044880,0.666903
761.344220,0.652887
761.643520,0.656780
761.942780,0.651505
762.242000,0.649929
762.541180,0.656338
762.840320,0.658006
763.139420,0.645570
763.438480,0.656869
763.737500,0.658856
764.036480,0.640811
764.335420,0.648553
764.634320,0.652114
764.933180,0.636301
765.232000,0.652325
765.530780,0.654737
765.829520,0.650350
766.128220,0.654141
766.426880,0.646055
766.725500,0.651816
767.024080,0.653635
767.322620,0.656293
767.621120,0.655149
767.919580,0.660751
768.218000,0.652531
768.516380,0.652468
768.814720,0.638546
769.113020,0.660234
769.411280,0.653315
769.709500,0.661028
770.007680,0.655078
770.305820,0.657877
770.603920,0.642183
770.901980,0.646858
771.200000,0.647418
771.497980,0.638070
771.795920,0.650836
772.093820,0.650401
772.391680,0.644034
772.689500,0.649324
772.987280,0.646465
773.285020,0.657553
773.582720,0.655405
773.880380,0.673988
774.178000,0.658487
774.475580,0.666443
774.773120,0.663989
775.070620,0.655849
775.368080,0.659987
775.665500,0.644056
775.962880,0.652435
776.260220,0.664199
776.557520,0.647098
776.854780,0.672076
777.152000,0.641910
777.449180,0.652057
777.746320,0.651210
778.043420,0.661664
778.340480,0.653586
778.637500,0.666667
778.934480,0.656355
779.231420,0.643148
779.528320,0.641283
779.825180,0.638340
780.122000,0.650730
780.418780,0.661423
780.715520,0.653924
781.012220,0.670548
781.308880,0.660581
781.605500,0.651370
781.902080,0.650924
782.198620,0.652085
782.495120,0.652263
782.791580,0.654746
783.088000,0.661146
783.384380,0.656121
783.680720,0.658687
783.977020,0.639367
784.273280,0.656643
784.569500,0.657582
784.865680,0.659249
785.161820,0.659722
785.457920,0.654193
785.753980,0.641312
786.050000,0.638812
786.345980,0.654861
786.641920,0.661346
786.937820,0.668091
787.233680,0.659012
787.529500,0.649792
787.825280,0.667139
788.121020,0.657932
788.416720,0.656316
788.712380,0.647391
789.008000,0.645184
789.303580,0.655124
789.599120,0.663273
789.894620,0.657040
790.190080,0.657723
790.485500,0.657307
790.780880,0.649462
791.076220,0.650794
791.371520,0.663762
791.666780,0.653091
791.962000,0.666422
792.257180,0.653001
792.552320,0.668600
792.847420,0.647016
793.142480,0.654945
793.437500,0.658466
793.732480,0.647403
794.027420,0.666914
794.322320,0.652498
794.617180,0.657504
794.912000,0.671620
795.206780,0.649515
795.501520,0.663878
795.796220,0.634815
796.090880,0.660889
796.385500,0.637181
796.680080,0.650711
796.974620,0.649701
797.269120,0.647994
797.563580,0.656489
797.858000,0.663629
798.152380,0.654292
798.446720,0.656923
798.741020,0.653313
799.035280,0.656056
799.329500,0.658199
799.623680,0.644186
