399.985280,0.202703
400.329500,0.202703
400.673680,0.227848
401.017820,0.205882
401.361920,0.257576
401.705980,0.231707
402.050000,0.194805
402.393980,0.211765
402.737920,0.235955
403.081820,0.206186
403.425680,0.279070
403.769500,0.218750
404.113280,0.114943
404.457020,0.258427
404.800720,0.163043
405.144380,0.242424
405.488000,0.225806
405.831580,0.247423
406.175120,0.244681
406.518620,0.190000
406.862080,0.278351
407.205500,0.218750
407.548880,0.265306
407.892220,0.245098
408.235520,0.287234
408.578780,0.238095
408.922000,0.230769
409.265180,0.252525
409.608320,0.222222
409.951420,0.247423
410.294480,0.333333
410.637500,0.260870
410.980480,0.264706
411.323420,0.244898
411.666320,0.229358
412.009180,0.236364
412.352000,0.227723
412.694780,0.238532
413.037520,0.238532
413.380220,0.261261
413.722880,0.285714
414.065500,0.279279
414.408080,0.238938
414.750620,0.221239
415.093120,0.231405
415.435580,0.252101
415.778000,0.287879
416.120380,0.184874
416.462720,0.269841
416.805020,0.285714
417.147280,0.276119
417.489500,0.250000
417.831680,0.239726
418.173820,0.262411
418.515920,0.265734
418.857980,0.265823
419.200000,0.237179
419.541980,0.248521
419.883920,0.219101
420.225820,0.265896
420.567680,0.262570
420.909500,0.256831
421.251280,0.239583
421.593020,0.301020
421.934720,0.257576
422.276380,0.220513
422.618000,0.259804
422.959580,0.254902
423.301120,0.264840
423.642620,0.247826
423.984080,0.251163
424.325500,0.237668
424.666880,0.271552
425.008220,0.239496
425.349520,0.254237
425.690780,0.238462
426.032000,0.247059
426.373180,0.269710
426.714320,0.261719
427.055420,0.239382
427.396480,0.250936
427.737500,0.249012
428.078480,0.241107
428.419420,0.265060
428.760320,0.260536
429.101180,0.299213
429.442000,0.272031
429.782780,0.234615
430.123520,0.250980
430.464220,0.261993
430.804880,0.283525
431.145500,0.236364
431.486080,0.292135
431.826620,0.263566
432.167120,0.275735
432.507580,0.275362
432.848000,0.276978
433.188380,0.281588
433.528720,0.283019
433.869020,0.275000
434.209280,0.242105
434.549500,0.310105
434.889680,0.269360
435.229820,0.286689
435.569920,0.235294
435.909980,0.258900
436.250000,0.271186
436.589980,0.256966
436.929920,0.263492
437.269820,0.278997
437.609680,0.275148
437.949500,0.283133
438.289280,0.269122
438.629020,0.290698
438.968720,0.293605
439.308380,0.252033
439.648000,0.271233
439.987580,0.261905
440.327120,0.280000
440.666620,0.277922
441.006080,0.294118
441.345500,0.280098
441.684880,0.255981
442.024220,0.272953
442.363520,0.264286
442.702780,0.272727
443.042000,0.288546
443.381180,0.280172
443.720320,0.298056
444.059420,0.292017
444.398480,0.290795
444.737500,0.280738
445.076480,0.279762
445.415420,0.291417
445.754320,0.282744
446.093180,0.284404
446.432000,0.289474
446.770780,0.290323
447.109520,0.288603
447.448220,0.289803
447.786880,0.279070
448.125500,0.296552
448.464080,0.278571
448.802620,0.274823
449.141120,0.280277
449.479580,0.288462
449.818000,0.292599
450.156380,0.289298
450.494720,0.295868
450.833020,0.293706
451.171280,0.296233
451.509500,0.301394
451.847680,0.298482
452.185820,0.301205
452.523920,0.288660
452.861980,0.298482
453.200000,0.295681
453.537980,0.292437
453.875920,0.304202
454.213820,0.313356
454.551680,0.286424
454.889500,0.308600
455.227280,0.279359
455.565020,0.324958
455.902720,0.316140
456.240380,0.292845
456.578000,0.324042
456.915580,0.307427
457.253120,0.296053
457.590620,0.307061
457.928080,0.306397
458.265500,0.305743
458.602880,0.321429
458.940220,0.313029
459.277520,0.296000
459.614780,0.310966
459.952000,0.296584
460.289180,0.314873
460.626320,0.319685
460.963420,0.306947
461.300480,0.318043
461.637500,0.295840
461.974480,0.325688
462.311420,0.304024
462.648320,0.308931
462.985180,0.328551
463.322000,0.325893
463.658780,0.303867
463.995520,0.312242
464.332220,0.318560
464.668880,0.317204
465.005500,0.316354
465.342080,0.318822
465.678620,0.321033
466.015120,0.326003
466.351580,0.332491
466.688000,0.334957
467.024380,0.325638
467.360720,0.326136
467.697020,0.329157
468.033280,0.336667
468.369500,0.335541
468.705680,0.321308
469.041820,0.323958
469.377920,0.321041
469.713980,0.330587
470.050000,0.316908
470.385980,0.322896
470.721920,0.331048
471.057820,0.343080
471.393680,0.316183
471.729500,0.327155
472.065280,0.332737
472.401020,0.322695
472.736720,0.335079
473.072380,0.328546
473.408000,0.328982
473.743580,0.336505
474.079120,0.334195
474.414620,0.324003
474.750080,0.323027
475.085500,0.338816
475.420880,0.343047
475.756220,0.329518
476.091520,0.329923
476.426780,0.337379
476.762000,0.332261
477.097180,0.336000
477.432320,0.335218
477.767420,0.346405
478.102480,0.336220
478.437500,0.347291
478.772480,0.338061
479.107420,0.340114
479.442320,0.342126
479.777180,0.346858
480.112000,0.343606
480.446780,0.342167
480.781520,0.342995
481.116220,0.348424
481.450880,0.342701
481.785500,0.359968
482.120080,0.346395
482.454620,0.348096
482.789120,0.355892
483.123580,0.348910
483.458000,0.346519
483.792380,0.350639
484.126720,0.344402
484.461020,0.352849
484.795280,0.356207
485.129500,0.359314
485.463680,0.359690
485.797820,0.364697
486.131920,0.353481
486.465980,0.360618
486.800000,0.360305
487.133980,0.360272
487.467920,0.354246
487.801820,0.369184
488.135680,0.370735
488.469500,0.354766
488.803280,0.364042
489.137020,0.362637
489.470720,0.359050
489.804380,0.371195
490.138000,0.380564
490.471580,0.374355
490.805120,0.365976
491.138620,0.366738
491.472080,0.373852
491.805500,0.370293
492.138880,0.375261
492.472220,0.373702
492.805520,0.383380
493.138780,0.376981
493.472000,0.371237
493.805180,0.375171
494.138320,0.384256
494.471420,0.373047
494.804480,0.381630
495.137500,0.374840
495.470480,0.386871
495.803420,0.382872
496.136320,0.382832
496.469180,0.375691
496.802000,0.381418
497.134780,0.388720
497.467520,0.404281
497.800220,0.381486
498.132880,0.379189
498.465500,0.382387
498.798080,0.385845
499.130620,0.393599
499.463120,0.389669
499.795580,0.376788
500.128000,0.395095
500.460380,0.392896
500.792720,0.389183
501.125020,0.401997
501.457280,0.394256
501.789500,0.389463
502.121680,0.401244
502.453820,0.394697
502.785920,0.392196
503.117980,0.394995
503.450000,0.409844
503.781980,0.392128
504.113920,0.390706
504.445820,0.400583
504.777680,0.400000
505.109500,0.388462
505.441280,0.393403
505.773020,0.398309
506.104720,0.406500
506.436380,0.402272
506.768000,0.408793
507.099580,0.394508
507.431120,0.404215
507.762620,0.400376
508.094080,0.400638
508.425500,0.405696
508.756880,0.400549
509.088220,0.410304
509.419520,0.412011
509.750780,0.408622
510.082000,0.405317
510.413180,0.412252
510.744320,0.410953
511.075420,0.410632
511.406480,0.408087
511.737500,0.413889
512.068480,0.418233
512.399420,0.413146
512.730320,0.406467
513.061180,0.416270
513.392000,0.408897
513.722780,0.417387
514.053520,0.419741
514.384220,0.414843
514.714880,0.416467
515.045500,0.411877
515.376080,0.413559
515.706620,0.417438
516.037120,0.420588
516.367580,0.423361
516.698000,0.413725
517.028380,0.423535
517.358720,0.418765
517.689020,0.427300
518.019280,0.430005
518.349500,0.428789
518.679680,0.426552
519.009820,0.423583
519.339920,0.424349
519.669980,0.425917
520.000000,0.426388
520.329980,0.421980
520.659920,0.426892
520.989820,0.428793
521.319680,0.435185
521.649500,0.428278
521.979280,0.426931
522.309020,0.433610
522.638720,0.434204
522.968380,0.429679
523.298000,0.431106
523.627580,0.430419
523.957120,0.439481
524.286620,0.446066
524.616080,0.441572
524.945500,0.434625
525.274880,0.437660
525.604220,0.437888
525.933520,0.449161
526.262780,0.426761
526.592000,0.440893
526.921180,0.441849
527.250320,0.437849
527.579420,0.447196
527.908480,0.433776
528.237500,0.448361
528.566480,0.448603
528.895420,0.448004
529.224320,0.456662
529.553180,0.443855
529.882000,0.453528
530.210780,0.448842
530.539520,0.453020
530.868220,0.450933
531.196880,0.453416
531.525500,0.459080
531.854080,0.448405
532.182620,0.452592
532.511120,0.456148
532.839580,0.457350
533.168000,0.449863
533.496380,0.457078
533.824720,0.449978
534.153020,0.462327
534.481280,0.460352
534.809500,0.460422
535.137680,0.465278
535.465820,0.460052
535.793920,0.461506
536.121980,0.469157
536.450000,0.466808
536.777980,0.471303
537.105920,0.474471
537.433820,0.468085
537.761680,0.474694
538.089500,0.469850
538.417280,0.469558
538.745020,0.476228
539.072720,0.463100
539.400380,0.466977
539.728000,0.466922
540.055580,0.467416
540.383120,0.470588
540.710620,0.466890
541.038080,0.476946
541.365500,0.475368
541.692880,0.479288
542.020220,0.475711
542.347520,0.482412
542.674780,0.472124
543.002000,0.479356
543.329180,0.484742
543.656320,0.484177
543.983420,0.475214
544.310480,0.480122
544.637500,0.483794
544.964480,0.482840
545.291420,0.483882
545.618320,0.486720
545.945180,0.481213
546.272000,0.484600
546.598780,0.492298
546.925520,0.488295
547.252220,0.486959
547.578880,0.487129
547.905500,0.488889
548.232080,0.480832
548.558620,0.482590
548.885120,0.487406
549.211580,0.486660
549.538000,0.484112
549.864380,0.481350
550.190720,0.489506
550.517020,0.497392
550.843280,0.487296
551.169500,0.479008
551.495680,0.490473
551.821820,0.497714
552.147920,0.493494
552.473980,0.496543
552.800000,0.486593
553.125980,0.493451
553.451920,0.493696
553.777820,0.496336
554.103680,0.504213
554.429500,0.496150
554.755280,0.507677
555.081020,0.493984
555.406720,0.502540
555.732380,0.498814
556.058000,0.501358
556.383580,0.495036
556.709120,0.498277
557.034620,0.506028
557.360080,0.505354
557.685500,0.502420
558.010880,0.495321
558.336220,0.495606
558.661520,0.497341
558.986780,0.504607
559.312000,0.511040
559.637180,0.504488
559.962320,0.506942
560.287420,0.502821
560.612480,0.508432
560.937500,0.502937
561.262480,0.513196
561.587420,0.513602
561.912320,0.514738
562.237180,0.508882
562.562000,0.509166
562.886780,0.516908
563.211520,0.511923
563.536220,0.512801
563.860880,0.511882
564.185500,0.509568
564.510080,0.517306
564.834620,0.505396
565.159120,0.510150
565.483580,0.517674
565.808000,0.515323
566.132380,0.521074
566.456720,0.523810
566.781020,0.509752
567.105280,0.516068
567.429500,0.521624
567.753680,0.525125
568.077820,0.516042
568.401920,0.522918
568.725980,0.523340
569.050000,0.528137
569.373980,0.516178
569.697920,0.522943
570.021820,0.524719
570.345680,0.528894
570.669500,0.521557
570.993280,0.521226
571.317020,0.520643
571.640720,0.528714
571.964380,0.529696
572.288000,0.527819
572.611580,0.529015
572.935120,0.524504
573.258620,0.522438
573.582080,0.532414
573.905500,0.530529
574.228880,0.537120
574.552220,0.530964
574.875520,0.523455
575.198780,0.529093
575.522000,0.530425
575.845180,0.532593
576.168320,0.535393
576.491420,0.536701
576.814480,0.537071
577.137500,0.542569
577.460480,0.536426
577.783420,0.534477
578.106320,0.543447
578.429180,0.546483
578.752000,0.540465
579.074780,0.538773
579.397520,0.538412
579.720220,0.542793
580.042880,0.546746
580.365500,0.543018
580.688080,0.544776
581.010620,0.545731
581.333120,0.546760
581.655580,0.549451
581.978000,0.544064
582.300380,0.540409
582.622720,0.540541
582.945020,0.548114
583.267280,0.549984
583.589500,0.546709
583.911680,0.549063
584.233820,0.542650
584.555920,0.551213
584.877980,0.547425
585.200000,0.547882
585.521980,0.553599
585.843920,0.559487
586.165820,0.555454
586.487680,0.551309
586.809500,0.552655
587.131280,0.551020
587.453020,0.557440
587.774720,0.554406
588.096380,0.559510
588.418000,0.561896
588.739580,0.559931
589.061120,0.560667
589.382620,0.556160
589.704080,0.558485
590.025500,0.563356
590.346880,0.560708
590.668220,0.557547
590.989520,0.557404
591.310780,0.550953
591.632000,0.561475
591.953180,0.561030
592.274320,0.556921
592.595420,0.562500
592.916480,0.558816
593.237500,0.566424
593.558480,0.569007
593.879420,0.571082
594.200320,0.562550
594.521180,0.560956
594.842000,0.571736
595.162780,0.565972
595.483520,0.570061
595.804220,0.573040
596.124880,0.571543
596.445500,0.567199
596.766080,0.577575
597.086620,0.566879
597.407120,0.565824
597.727580,0.574649
598.048000,0.573129
598.368380,0.567070
598.688720,0.573526
599.009020,0.571656
599.329280,0.579297
599.649500,0.577919
599.969680,0.577457
600.289820,0.579327
600.609920,0.578413
600.929980,0.573757
601.250000,0.575676
601.569980,0.571699
601.889920,0.566426
602.209820,0.568452
602.529680,0.586377
602.849500,0.576650
603.169280,0.573436
603.489020,0.580681
603.808720,0.576796
604.128380,0.577539
604.448000,0.569337
604.767580,0.581844
605.087120,0.567313
605.406620,0.582983
605.726080,0.582834
606.045500,0.562831
606.364880,0.580947
606.684220,0.582810
607.003520,0.574255
607.322780,0.582717
607.642000,0.579839
607.961180,0.576756
608.280320,0.578596
608.599420,0.574450
608.918480,0.582111
609.237500,0.578638
609.556480,0.585676
609.875420,0.587123
610.194320,0.587836
610.513180,0.587156
610.832000,0.585170
611.150780,0.586362
611.469520,0.585822
611.788220,0.593410
612.106880,0.584439
612.425500,0.589829
612.744080,0.587873
613.062620,0.580122
613.381120,0.582876
613.699580,0.583691
614.018000,0.589373
614.336380,0.595620
614.654720,0.594109
614.973020,0.582845
615.291280,0.587233
615.609500,0.605071
615.927680,0.588999
616.245820,0.589054
616.563920,0.579733
616.881980,0.586529
617.200000,0.595023
617.517980,0.588675
617.835920,0.589003
618.153820,0.578178
618.471680,0.586977
618.789500,0.597231
619.107280,0.593114
619.425020,0.589597
619.742720,0.593534
620.060380,0.587903
620.378000,0.594084
620.695580,0.590996
621.013120,0.591811
621.330620,0.594289
621.648080,0.590221
621.965500,0.602886
622.282880,0.585120
622.600220,0.590335
622.917520,0.588532
623.234780,0.603022
623.552000,0.595162
623.869180,0.595020
624.186320,0.596625
624.503420,0.602194
624.820480,0.604461
625.137500,0.600568
625.454480,0.602376
625.771420,0.604666
626.088320,0.604981
626.405180,0.604543
626.722000,0.601004
627.038780,0.591479
627.355520,0.603437
627.672220,0.605599
627.988880,0.604977
628.305500,0.606419
628.622080,0.608426
628.938620,0.598471
629.255120,0.602987
629.571580,0.601287
629.888000,0.604173
630.204380,0.611844
630.520720,0.602986
630.837020,0.610546
631.153280,0.605815
631.469500,0.611583
631.785680,0.612719
632.101820,0.613088
632.417920,0.608048
632.733980,0.603842
633.050000,0.615221
633.365980,0.610848
633.681920,0.606205
633.997820,0.607890
634.313680,0.605131
634.629500,0.603362
634.945280,0.615836
635.261020,0.611388
635.576720,0.610981
635.892380,0.612257
636.208000,0.607205
636.523580,0.624087
636.839120,0.609728
637.154620,0.613913
637.470080,0.609182
637.785500,0.625440
638.100880,0.613090
638.416220,0.615761
638.731520,0.612607
639.046780,0.614914
639.362000,0.613819
639.677180,0.611079
639.992320,0.617423
640.307420,0.617589
640.622480,0.613554
640.937500,0.614979
641.252480,0.627478
641.567420,0.619494
641.882320,0.616091
642.197180,0.630545
642.512000,0.623286
642.826780,0.621359
643.141520,0.620728
643.456220,0.620919
643.770880,0.628800
644.085500,0.621576
644.400080,0.622191
644.714620,0.624025
645.029120,0.625688
645.343580,0.622874
645.658000,0.626422
645.972380,0.624281
646.286720,0.621968
646.601020,0.627733
646.915280,0.624349
647.229500,0.625824
647.543680,0.622480
647.857820,0.625654
648.171920,0.625068
648.485980,0.622636
648.800000,0.624139
649.113980,0.616685
649.427920,0.630236
649.741820,0.619951
650.055680,0.618212
650.369500,0.632007
650.683280,0.621254
650.997020,0.627063
651.310720,0.617226
651.624380,0.622253
651.938000,0.634072
652.251580,0.634289
652.565120,0.625489
652.878620,0.628378
653.192080,0.628933
653.505500,0.623282
653.818880,0.635769
654.132220,0.630020
654.445520,0.635848
654.758780,0.622096
655.072000,0.623782
655.385180,0.622254
655.698320,0.626465
656.011420,0.631700
656.324480,0.626057
656.637500,0.626593
656.950480,0.628890
657.263420,0.633461
657.576320,0.620516
657.889180,0.631082
658.202000,0.644022
658.514780,0.629652
658.827520,0.636255
659.140220,0.630207
659.452880,0.638780
659.765500,0.631547
660.078080,0.623232
660.390620,0.630003
660.703120,0.634892
661.015580,0.628834
661.328000,0.634446
661.640380,0.634048
661.952720,0.630022
662.265020,0.633270
662.577280,0.633906
662.889500,0.628824
663.201680,0.635929
663.513820,0.631071
663.825920,0.633045
664.137980,0.634454
664.450000,0.617967
664.761980,0.628805
665.073920,0.617332
665.385820,0.630890
665.697680,0.628760
666.009500,0.637512
666.321280,0.636514
666.633020,0.638298
666.944720,0.632289
667.256380,0.631561
667.568000,0.627717
667.879580,0.635714
668.191120,0.645261
668.502620,0.628552
668.814080,0.643509
669.125500,0.635306
669.436880,0.629668
669.748220,0.628245
670.059520,0.642857
670.370780,0.637091
670.682000,0.637168
670.993180,0.642001
671.304320,0.635021
671.615420,0.636719
671.926480,0.623137
672.237500,0.627367
672.548480,0.638041
672.859420,0.634024
673.170320,0.636199
673.481180,0.646633
673.792000,0.632889
674.102780,0.635907
674.413520,0.641633
674.724220,0.634120
675.034880,0.645398
675.345500,0.638585
675.656080,0.642468
675.966620,0.638778
676.277120,0.634200
676.587580,0.645066
676.898000,0.640164
677.208380,0.645102
677.518720,0.640044
677.829020,0.631929
678.139280,0.638992
678.449500,0.636094
678.759680,0.647808
679.069820,0.642007
679.379920,0.645794
679.689980,0.633494
680.000000,0.634019
680.309980,0.637713
680.619920,0.636880
680.929820,0.635312
681.239680,0.637001
681.549500,0.640000
681.859280,0.644884
682.169020,0.639687
682.478720,0.642109
682.788380,0.638981
683.098000,0.643231
683.407580,0.641276
683.717120,0.644520
684.026620,0.640437
684.336080,0.639257
684.645500,0.637112
684.954880,0.635814
685.264220,0.640619
685.573520,0.647126
685.882780,0.654008
686.192000,0.643717
686.501180,0.645100
686.810320,0.649885
687.119420,0.650323
687.428480,0.646411
687.737500,0.653492
688.046480,0.644939
688.355420,0.641645
688.664320,0.647284
688.973180,0.653139
689.282000,0.652006
689.590780,0.640337
689.899520,0.638055
690.208220,0.654817
690.516880,0.656739
690.825500,0.641132
691.134080,0.641989
691.442620,0.639863
691.751120,0.647706
692.059580,0.650745
692.368000,0.639909
692.676380,0.650382
692.984720,0.646947
693.293020,0.645517
693.601280,0.648989
693.909500,0.641695
694.217680,0.642422
694.525820,0.665270
694.833920,0.651278
695.141980,0.650598
695.450000,0.648473
695.757980,0.642857
696.065920,0.636893
696.373820,0.650115
696.681680,0.637514
696.989500,0.648398
697.297280,0.633606
697.605020,0.655159
697.912720,0.640661
698.220380,0.643447
698.528000,0.657041
698.835580,0.647570
699.143120,0.636789
699.450620,0.651154
699.758080,0.647059
700.065500,0.651237
700.372880,0.658800
700.680220,0.648584
700.987520,0.659921
701.294780,0.652879
701.602000,0.648970
701.909180,0.657790
702.216320,0.641377
702.523420,0.650355
702.830480,0.657822
703.137500,0.646142
703.444480,0.660355
703.751420,0.657199
704.058320,0.653740
704.365180,0.649842
704.672000,0.651881
704.978780,0.646118
705.285520,0.645931
705.592220,0.642353
705.898880,0.652088
706.205500,0.658059
706.512080,0.647709
706.818620,0.646285
707.125120,0.649615
707.431580,0.652599
707.738000,0.651953
708.044380,0.637592
708.350720,0.658770
708.657020,0.656116
708.963280,0.654115
709.269500,0.639139
709.575680,0.658546
709.881820,0.650157
710.187920,0.656031
710.493980,0.655159
710.800000,0.648741
711.105980,0.631777
711.411920,0.654316
711.717820,0.648343
712.023680,0.647882
712.329500,0.650631
712.635280,0.653101
712.941020,0.643989
713.246720,0.643478
713.552380,0.666405
713.858000,0.657075
714.163580,0.651934
714.469120,0.651817
714.774620,0.645874
715.080080,0.650569
715.385500,0.658673
715.690880,0.653649
715.996220,0.648177
716.301520,0.651383
716.606780,0.656053
716.912000,0.660339
717.217180,0.660814
717.522320,0.650099
717.827420,0.650529
718.132480,0.652348
718.437500,0.649409
718.742480,0.653226
719.047420,0.656553
719.352320,0.653383
719.657180,0.658626
719.962000,0.646816
720.266780,0.654342
720.571520,0.647473
720.876220,0.646481
721.180880,0.643395
721.485500,0.653991
721.790080,0.650531
722.094620,0.668525
722.399120,0.670832
722.703580,0.651522
723.008000,0.662786
723.312380,0.651313
723.616720,0.644284
723.921020,0.653097
724.225280,0.643106
724.529500,0.651926
724.833680,0.654359
725.137820,0.657269
725.441920,0.646456
725.745980,0.652796
726.050000,0.653586
726.353980,0.647589
726.657920,0.653171
726.961820,0.650228
727.265680,0.654184
727.569500,0.650823
727.873280,0.643880
728.177020,0.650852
728.480720,0.662037
728.784380,0.652889
729.088000,0.660857
729.391580,0.661772
729.695120,0.654511
729.998620,0.664914
730.302080,0.652571
730.605500,0.648229
730.908880,0.656541
731.212220,0.655730
731.515520,0.648464
731.818780,0.656796
732.122000,0.648622
732.425180,0.640710
732.728320,0.650471
733.031420,0.659148
733.334480,0.652041
733.637500,0.644153
733.940480,0.650972
734.243420,0.658512
734.546320,0.663382
734.849180,0.644628
735.152000,0.644710
735.454780,0.643595
735.757520,0.648577
736.060220,0.652975
736.362880,0.643382
736.665500,0.642820
736.968080,0.653412
737.270620,0.661404
737.573120,0.654476
737.875580,0.662452
738.178000,0.654872
738.480380,0.648649
738.782720,0.642857
739.085020,0.647026
739.387280,0.654656
739.689500,0.650623
739.991680,0.646828
740.293820,0.655058
740.595920,0.648859
740.897980,0.662902
741.200000,0.654515
741.501980,0.651576
741.803920,0.649212
742.105820,0.645798
742.407680,0.651718
742.709500,0.649432
743.011280,0.654162
743.313020,0.648696
743.614720,0.647707
743.916380,0.645930
744.218000,0.655728
744.519580,0.646739
744.821120,0.658683
745.122620,0.646495
745.424080,0.649639
745.725500,0.656005
746.026880,0.658251
746.328220,0.653514
746.629520,0.636364
746.930780,0.648284
747.232000,0.635806
747.533180,0.644905
747.834320,0.650639
748.135420,0.645743
748.436480,0.643793
748.737500,0.642989
749.038480,0.649969
749.339420,0.657747
749.640320,0.656191
749.941180,0.643348
750.242000,0.651382
750.542780,0.641439
750.843520,0.648943
751.144220,0.640385
751.444880,0.651237
751.745500,0.650000
752.046080,0.668377
752.346620,0.643041
752.647120,0.652515
752.947580,0.650065
753.248000,0.665377
753.548380,0.655823
753.848720,0.655505
754.149020,0.643456
754.449280,0.652659
754.749500,0.643663
755.049680,0.643333
755.349820,0.652435
755.649920,0.641771
755.949980,0.652953
756.250000,0.658777
756.549980,0.627723
756.849920,0.650578
757.149820,0.638057
757.449680,0.647525
757.749500,0.646898
758.049280,0.658020
758.349020,0.649513
758.648720,0.661836
758.948380,0.652921
759.248000,0.652965
759.547580,0.657028
759.847120,0.651964
760.146620,0.657645
760.446080,0.654570
760.745500,0.649650
761.044880,0.656250
761.344220,0.654312
761.643520,0.641243
761.942780,0.653604
762.242000,0.658416
762.541180,0.643662
762.840320,0.644663
763.139420,0.649789
763.438480,0.650718
763.737500,0.640937
764.036480,0.646401
764.335420,0.652788
764.634320,0.644491
764.933180,0.641781
765.232000,0.648855
765.530780,0.652632
765.829520,0.648252
766.128220,0.650661
766.426880,0.648898
766.725500,0.648389
767.024080,0.634431
767.322620,0.641770
767.621120,0.644309
767.919580,0.655973
768.218000,0.656635
768.516380,0.651792
768.814720,0.646776
769.113020,0.640248
769.411280,0.655387
769.709500,0.663058
770.007680,0.648262
770.305820,0.643678
770.603920,0.643531
770.901980,0.646175
771.200000,0.631793
771.497980,0.628686
771.795920,0.645485
772.093820,0.633021
772.391680,0.646012
772.689500,0.653378
772.987280,0.653199
773.285020,0.656869
773.582720,0.639865
773.880380,0.655456
774.178000,0.650988
774.475580,0.642331
774.773120,0.643240
775.070620,0.662610
775.368080,0.654643
775.665500,0.640027
775.962880,0.637759
776.260220,0.658816
776.557520,0.662442
776.854780,0.647059
777.152000,0.633952
777.449180,0.655428
777.746320,0.633065
778.043420,0.638472
778.340480,0.650880
778.637500,0.648411
778.934480,0.650303
779.231420,0.653324
779.528320,0.643287
779.825180,0.623847
780.122000,0.640106
780.418780,0.657319
780.715520,0.645205
781.012220,0.658904
781.308880,0.645030
781.605500,0.653425
781.902080,0.647502
782.198620,0.643882
782.495120,0.644033
782.791580,0.657497
783.088000,0.643202
783.384380,0.641678
783.680720,0.636115
783.977020,0.638679
784.273280,0.649650
784.569500,0.647100
784.865680,0.657163
785.161820,0.647222
785.457920,0.650728
785.753980,0.646197
786.050000,0.636050
786.345980,0.643750
786.641920,0.638446
786.937820,0.660969
787.233680,0.640223
787.529500,0.631761
787.825280,0.656516
788.121020,0.654391
788.416720,0.640085
788.712380,0.644570
789.008000,0.645184
789.303580,0.629682
789.599120,0.650909
789.894620,0.646931
790.190080,0.630167
790.485500,0.650828
790.780880,0.649462
791.076220,0.639971
791.371520,0.653595
791.666780,0.647273
791.962000,0.663483
792.257180,0.645681
792.552320,0.637418
792.847420,0.644105
793.142480,0.646154
793.437500,0.642547
793.732480,0.649598
794.027420,0.629080
794.322320,0.645787
794.617180,0.644874
794.912000,0.641902
795.206780,0.653244
795.501520,0.644867
795.796220,0.626667
796.090880,0.649586
796.385500,0.637931
796.680080,0.637248
796.974620,0.639222
797.269120,0.649508
797.563580,0.641985
797.858000,0.634776
798.152380,0.648105
798.446720,0.644615
798.741020,0.639445
799.035280,0.635093
799.329500,0.638183
799.623680,0.651163
