399.985280,0.202703
400.329500,0.243243
400.673680,0.265823
401.017820,0.205882
401.361920,0.212121
401.705980,0.243902
402.050000,0.233766
402.393980,0.305882
402.737920,0.235955
403.081820,0.257732
403.425680,0.313953
403.769500,0.260417
404.113280,0.229885
404.457020,0.303371
404.800720,0.228261
405.144380,0.262626
405.488000,0.258065
405.831580,0.268041
406.175120,0.255319
406.518620,0.220000
406.862080,0.298969
407.205500,0.281250
407.548880,0.234694
407.892220,0.274510
408.235520,0.297872
408.578780,0.276190
408.922000,0.221154
409.265180,0.313131
409.608320,0.262626
409.951420,0.288660
410.294480,0.352941
410.637500,0.282609
410.980480,0.235294
411.323420,0.275510
411.666320,0.284404
412.009180,0.318182
412.352000,0.287129
412.694780,0.302752
413.037520,0.220183
413.380220,0.270270
413.722880,0.294643
414.065500,0.261261
414.408080,0.283186
414.750620,0.274336
415.093120,0.272727
415.435580,0.310924
415.778000,0.295455
416.120380,0.302521
416.462720,0.261905
416.805020,0.308271
417.147280,0.298507
417.489500,0.342857
417.831680,0.267123
418.173820,0.269504
418.515920,0.279720
418.857980,0.272152
419.200000,0.314103
419.541980,0.331361
419.883920,0.280899
420.225820,0.271676
420.567680,0.268156
420.909500,0.300546
421.251280,0.317708
421.593020,0.295918
421.934720,0.277778
422.276380,0.276923
422.618000,0.299020
422.959580,0.318627
423.301120,0.292237
423.642620,0.265217
423.984080,0.306977
424.325500,0.304933
424.666880,0.301724
425.008220,0.273109
425.349520,0.292373
425.690780,0.315385
426.032000,0.301961
426.373180,0.307054
426.714320,0.296875
427.055420,0.285714
427.396480,0.280899
427.737500,0.280632
428.078480,0.284585
428.419420,0.293173
428.760320,0.279693
429.101180,0.330709
429.442000,0.318008
429.782780,0.292308
430.123520,0.325490
430.464220,0.287823
430.804880,0.329502
431.145500,0.272727
431.486080,0.322097
431.826620,0.313953
432.167120,0.283088
432.507580,0.311594
432.848000,0.309353
433.188380,0.314079
433.528720,0.309434
433.869020,0.317857
434.209280,0.301754
434.549500,0.303136
434.889680,0.319865
435.229820,0.307167
435.569920,0.294118
435.909980,0.310680
436.250000,0.305085
436.589980,0.312693
436.929920,0.304762
437.269820,0.313480
437.609680,0.331361
437.949500,0.304217
438.289280,0.303116
438.629020,0.334302
438.968720,0.322674
439.308380,0.308943
439.648000,0.315068
439.987580,0.298942
440.327120,0.328000
440.666620,0.324675
441.006080,0.317136
441.345500,0.329238
441.684880,0.306220
442.024220,0.322581
442.363520,0.335714
442.702780,0.302273
443.042000,0.321586
443.381180,0.329741
443.720320,0.330454
444.059420,0.315126
444.398480,0.328452
444.737500,0.338115
445.076480,0.327381
445.415420,0.321357
445.754320,0.328482
446.093180,0.322936
446.432000,0.323308
446.770780,0.333966
447.109520,0.341912
447.448220,0.322004
447.786880,0.309481
448.125500,0.329310
448.464080,0.330357
448.802620,0.328014
449.141120,0.313149
449.479580,0.340909
449.818000,0.337349
450.156380,0.337793
450.494720,0.330579
450.833020,0.333916
451.171280,0.342466
451.509500,0.343206
451.847680,0.342327
452.185820,0.340792
452.523920,0.360825
452.861980,0.344013
453.200000,0.313953
453.537980,0.324370
453.875920,0.351261
454.213820,0.339041
454.551680,0.331126
454.889500,0.333895
455.227280,0.345196
455.565020,0.335008
455.902720,0.351082
456.240380,0.339434
456.578000,0.341463
456.915580,0.335060
457.253120,0.338816
457.590620,0.339901
457.928080,0.346801
458.265500,0.354730
458.602880,0.349026
458.940220,0.346870
459.277520,0.342400
459.614780,0.358429
459.952000,0.340062
460.289180,0.360759
460.626320,0.357480
460.963420,0.358643
461.300480,0.362385
461.637500,0.335901
461.974480,0.373089
462.311420,0.344262
462.648320,0.349927
462.985180,0.350072
463.322000,0.369048
463.658780,0.348066
463.995520,0.352132
464.332220,0.360111
464.668880,0.353495
465.005500,0.368633
465.342080,0.362356
465.678620,0.359164
466.015120,0.362225
466.351580,0.362832
466.688000,0.366626
467.024380,0.363305
467.360720,0.372727
467.697020,0.365604
468.033280,0.367778
468.369500,0.378587
468.705680,0.369786
469.041820,0.360417
469.377920,0.356833
469.713980,0.361483
470.050000,0.365217
470.385980,0.366928
470.721920,0.369246
471.057820,0.373294
471.393680,0.351731
471.729500,0.361446
472.065280,0.369410
472.401020,0.370567
472.736720,0.375218
473.072380,0.369838
473.408000,0.366406
473.743580,0.369377
474.079120,0.376400
474.414620,0.368957
474.750080,0.364524
475.085500,0.372533
475.420880,0.372190
475.756220,0.368765
476.091520,0.387042
476.426780,0.373786
476.762000,0.374899
477.097180,0.385600
477.432320,0.382876
477.767420,0.383987
478.102480,0.371654
478.437500,0.373563
478.772480,0.386919
479.107420,0.377543
479.442320,0.375699
479.777180,0.387430
480.112000,0.374422
480.446780,0.371005
480.781520,0.376006
481.116220,0.380760
481.450880,0.369243
481.785500,0.385285
482.120080,0.388715
482.454620,0.394716
482.789120,0.390127
483.123580,0.391745
483.458000,0.390823
483.792380,0.396965
484.126720,0.395367
484.461020,0.377830
484.795280,0.394757
485.129500,0.402962
485.463680,0.391473
485.797820,0.394246
486.131920,0.390207
486.465980,0.394595
486.800000,0.386260
487.133980,0.392749
487.467920,0.396327
487.801820,0.401983
488.135680,0.405610
488.469500,0.400151
488.803280,0.398960
489.137020,0.392674
489.470720,0.402819
489.804380,0.406088
490.138000,0.413947
490.471580,0.408990
490.805120,0.391708
491.138620,0.406539
491.472080,0.415548
491.805500,0.408647
492.138880,0.411397
492.472220,0.409689
492.805520,0.412011
493.138780,0.414886
493.472000,0.400669
493.805180,0.414734
494.138320,0.414276
494.471420,0.411458
494.804480,0.413325
495.137500,0.416560
495.470480,0.413002
495.803420,0.421914
496.136320,0.421053
496.469180,0.414365
496.802000,0.416870
497.134780,0.411765
497.467520,0.426300
497.800220,0.422170
498.132880,0.431511
498.465500,0.422943
498.798080,0.417808
499.130620,0.422796
499.463120,0.428411
499.795580,0.414741
500.128000,0.419619
500.460380,0.417653
500.792720,0.422587
501.125020,0.419863
501.457280,0.430287
501.789500,0.434401
502.121680,0.433904
502.453820,0.430393
502.785920,0.428214
503.117980,0.432287
503.450000,0.433451
503.781980,0.437967
504.113920,0.424846
504.445820,0.422460
504.777680,0.425412
505.109500,0.432212
505.441280,0.435946
505.773020,0.439643
506.104720,0.440886
506.436380,0.443445
506.768000,0.441534
507.099580,0.438444
507.431120,0.432787
507.762620,0.436560
508.094080,0.435734
508.425500,0.441643
508.756880,0.440786
509.088220,0.443422
509.419520,0.439479
509.750780,0.430647
510.082000,0.436101
510.413180,0.444496
510.744320,0.441786
511.075420,0.447296
511.406480,0.442877
511.737500,0.429630
512.068480,0.449718
512.399420,0.440376
512.730320,0.443418
513.061180,0.448620
513.392000,0.445338
513.722780,0.455331
514.053520,0.458553
514.384220,0.453853
514.714880,0.441838
515.045500,0.447797
515.376080,0.447458
515.706620,0.457867
516.037120,0.454412
516.367580,0.463775
516.698000,0.453431
517.028380,0.453327
517.358720,0.451358
517.689020,0.460930
518.019280,0.450577
518.349500,0.465788
518.679680,0.465926
519.009820,0.448887
519.339920,0.464930
519.669980,0.457057
520.000000,0.464086
520.329980,0.458787
520.659920,0.454499
520.989820,0.460268
521.319680,0.463477
521.649500,0.460668
521.979280,0.473382
522.309020,0.463174
522.638720,0.457245
522.968380,0.463806
523.298000,0.462422
523.627580,0.464046
523.957120,0.466494
524.286620,0.472642
524.616080,0.468459
524.945500,0.474419
525.274880,0.473063
525.604220,0.456004
525.933520,0.471698
526.262780,0.467309
526.592000,0.477930
526.921180,0.473337
527.250320,0.477423
527.579420,0.480040
527.908480,0.474151
528.237500,0.480139
528.566480,0.487525
528.895420,0.475111
529.224320,0.473997
529.553180,0.478554
529.882000,0.478832
530.210780,0.471525
530.539520,0.480825
530.868220,0.482528
531.196880,0.483039
531.525500,0.498789
531.854080,0.481707
532.182620,0.482952
532.511120,0.478886
532.839580,0.490018
533.168000,0.493163
533.496380,0.495434
533.824720,0.483625
534.153020,0.489077
534.481280,0.491630
534.809500,0.496922
535.137680,0.487847
535.465820,0.487973
535.793920,0.488156
536.121980,0.496433
536.450000,0.495137
536.777980,0.501466
537.105920,0.489830
537.433820,0.491408
537.761680,0.494694
538.089500,0.504654
538.417280,0.494628
538.745020,0.500000
539.072720,0.501367
539.400380,0.496115
539.728000,0.497514
540.055580,0.503371
540.383120,0.501117
540.710620,0.497024
541.038080,0.497233
541.365500,0.504412
541.692880,0.501090
542.020220,0.501979
542.347520,0.508615
542.674780,0.502117
543.002000,0.504199
543.329180,0.513855
543.656320,0.510197
543.983420,0.506667
544.310480,0.506966
544.637500,0.512453
544.964480,0.503701
545.291420,0.505151
545.618320,0.510956
545.945180,0.509229
546.272000,0.504260
546.598780,0.509997
546.925520,0.512034
547.252220,0.515021
547.578880,0.513522
547.905500,0.518954
548.232080,0.515270
548.558620,0.513179
548.885120,0.515865
549.211580,0.513340
549.538000,0.521077
549.864380,0.518650
550.190720,0.517275
550.517020,0.518579
550.843280,0.515635
551.169500,0.509224
551.495680,0.519054
551.821820,0.518942
552.147920,0.513988
552.473980,0.520250
552.800000,0.516351
553.125980,0.522266
553.451920,0.528865
553.777820,0.521985
554.103680,0.523761
554.429500,0.513559
554.755280,0.526035
555.081020,0.525401
555.406720,0.526583
555.732380,0.518807
556.058000,0.525119
556.383580,0.524820
556.709120,0.531702
557.034620,0.528763
557.360080,0.523316
557.685500,0.523513
558.010880,0.527210
558.336220,0.525835
558.661520,0.522155
558.986780,0.535790
559.312000,0.521368
559.637180,0.526391
559.962320,0.529370
560.287420,0.525388
560.612480,0.526014
560.937500,0.535977
561.262480,0.530792
561.587420,0.536815
561.912320,0.534635
562.237180,0.529238
562.562000,0.538346
562.886780,0.529543
563.211520,0.527943
563.536220,0.525788
563.860880,0.533006
564.185500,0.536210
564.510080,0.538375
564.834620,0.533681
565.159120,0.541729
565.483580,0.533637
565.808000,0.531593
566.132380,0.540843
566.456720,0.541194
566.781020,0.538635
567.105280,0.545180
567.429500,0.540971
567.753680,0.548140
568.077820,0.542327
568.401920,0.551184
568.725980,0.545351
569.050000,0.542205
569.373980,0.535211
569.697920,0.540387
570.021820,0.543446
570.345680,0.540758
570.669500,0.542923
570.993280,0.539313
571.317020,0.542930
571.640720,0.552427
571.964380,0.543430
572.288000,0.540430
572.611580,0.552228
572.935120,0.555930
573.258620,0.540015
573.582080,0.552906
573.905500,0.548771
574.228880,0.557164
574.552220,0.544888
574.875520,0.552122
575.198780,0.547886
575.522000,0.554985
575.845180,0.547994
576.168320,0.553000
576.491420,0.556323
576.814480,0.560579
577.137500,0.554113
577.460480,0.560710
577.783420,0.554126
578.106320,0.564459
578.429180,0.553552
578.752000,0.559917
579.074780,0.562374
579.397520,0.561653
579.720220,0.555341
580.042880,0.567889
580.365500,0.558570
580.688080,0.573270
581.010620,0.570705
581.333120,0.560788
581.655580,0.564436
581.978000,0.567675
582.300380,0.558585
582.622720,0.565920
582.945020,0.564044
583.267280,0.560404
583.589500,0.562440
583.911680,0.561766
584.233820,0.565628
584.555920,0.566026
584.877980,0.565955
585.200000,0.565071
585.521980,0.574606
585.843920,0.569555
586.165820,0.570079
586.487680,0.560638
586.809500,0.567057
587.131280,0.561372
587.453020,0.574405
587.774720,0.571555
588.096380,0.572929
588.418000,0.576529
588.739580,0.573441
589.061120,0.578781
589.382620,0.577364
589.704080,0.576438
590.025500,0.574201
590.346880,0.586003
590.668220,0.576869
590.989520,0.576262
591.310780,0.579398
591.632000,0.572951
591.953180,0.579020
592.274320,0.574939
592.595420,0.570312
592.916480,0.577560
593.237500,0.576395
593.558480,0.581114
593.879420,0.577556
594.200320,0.584516
594.521180,0.582470
594.842000,0.584632
595.162780,0.577457
595.483520,0.583090
595.804220,0.582170
596.124880,0.593392
596.445500,0.581871
596.766080,0.585910
597.086620,0.590764
597.407120,0.580042
597.727580,0.592416
598.048000,0.587675
598.368380,0.584166
598.688720,0.585059
599.009020,0.584926
599.329280,0.585152
599.649500,0.588220
599.969680,0.584669
600.289820,0.590278
600.609920,0.585092
600.929980,0.584180
601.250000,0.594865
601.569980,0.580340
601.889920,0.581930
602.209820,0.585768
602.529680,0.596814
602.849500,0.593562
603.169280,0.590521
603.489020,0.597288
603.808720,0.587493
604.128380,0.592991
604.448000,0.585635
604.767580,0.593575
605.087120,0.591413
605.406620,0.591100
605.726080,0.589107
606.045500,0.587072
606.364880,0.593706
606.684220,0.597087
607.003520,0.587443
607.322780,0.587834
607.642000,0.595060
607.961180,0.592079
608.280320,0.596868
608.599420,0.591831
608.918480,0.601466
609.237500,0.597124
609.556480,0.602841
609.875420,0.589486
610.194320,0.591379
610.513180,0.593371
610.832000,0.593508
611.150780,0.602583
611.469520,0.597888
611.788220,0.605200
612.106880,0.594692
612.425500,0.596529
612.744080,0.603570
613.062620,0.593884
613.381120,0.601767
613.699580,0.600858
614.018000,0.605344
614.336380,0.602714
614.654720,0.596589
614.973020,0.590867
615.291280,0.591881
615.609500,0.610460
615.927680,0.595179
616.245820,0.603278
616.563920,0.599938
616.881980,0.600873
617.200000,0.604977
617.517980,0.600187
617.835920,0.600497
618.153820,0.599005
618.471680,0.600000
618.789500,0.601007
619.107280,0.604382
619.425020,0.604821
619.742720,0.603578
620.060380,0.596365
620.378000,0.609817
620.695580,0.618135
621.013120,0.600945
621.330620,0.614371
621.648080,0.596845
621.965500,0.606336
622.282880,0.603405
622.600220,0.598547
622.917520,0.606805
623.234780,0.607843
623.552000,0.609803
623.869180,0.612039
624.186320,0.608723
624.503420,0.610658
624.820480,0.616400
625.137500,0.614146
625.454480,0.616130
625.771420,0.607818
626.088320,0.611917
626.405180,0.607032
626.722000,0.612923
627.038780,0.604637
627.355520,0.606563
627.672220,0.605288
627.988880,0.607465
628.305500,0.617950
628.622080,0.610905
628.938620,0.606728
629.255120,0.612321
629.571580,0.619369
629.888000,0.610617
630.204380,0.613071
630.520720,0.614869
630.837020,0.615171
631.153280,0.614508
631.469500,0.621286
631.785680,0.616034
632.101820,0.616707
632.417920,0.605067
632.733980,0.615546
633.050000,0.628866
633.365980,0.625370
633.681920,0.615155
633.997820,0.616557
634.313680,0.614863
634.629500,0.614863
634.945280,0.612023
635.261020,0.616085
635.576720,0.624780
635.892380,0.616904
636.208000,0.621150
636.523580,0.614733
636.839120,0.621309
637.154620,0.618551
637.470080,0.609756
637.785500,0.624560
638.100880,0.626701
638.416220,0.629278
638.731520,0.615759
639.046780,0.626566
639.362000,0.622420
639.677180,0.615934
639.992320,0.619961
640.307420,0.619837
640.622480,0.618034
640.937500,0.619417
641.252480,0.629433
641.567420,0.625746
641.882320,0.624165
642.197180,0.638405
642.512000,0.621327
642.826780,0.629404
643.141520,0.629064
643.456220,0.624792
643.770880,0.627971
644.085500,0.623812
644.400080,0.628371
644.714620,0.630992
645.029120,0.624862
645.343580,0.632748
645.658000,0.630308
645.972380,0.631680
646.286720,0.630962
646.601020,0.630501
646.915280,0.627091
647.229500,0.631044
647.543680,0.631317
647.857820,0.628406
648.171920,0.632122
648.485980,0.627843
648.800000,0.625792
649.113980,0.635809
649.427920,0.628849
649.741820,0.622699
650.055680,0.634942
650.369500,0.637612
650.683280,0.635683
650.997020,0.626238
651.310720,0.629884
651.624380,0.633791
651.938000,0.636011
652.251580,0.632062
652.565120,0.628284
652.878620,0.630912
653.192080,0.630899
653.505500,0.629734
653.818880,0.635769
654.132220,0.630590
654.445520,0.634714
654.758780,0.623513
655.072000,0.628940
655.385180,0.618260
655.698320,0.625893
656.011420,0.633133
656.324480,0.622850
656.637500,0.635863
656.950480,0.625661
657.263420,0.635826
657.576320,0.628521
657.889180,0.625774
658.202000,0.635870
658.514780,0.639476
658.827520,0.635054
659.140220,0.634102
659.452880,0.634249
659.765500,0.629139
660.078080,0.622630
660.390620,0.625726
660.703120,0.637641
661.015580,0.635890
661.328000,0.635390
661.640380,0.632495
661.952720,0.630956
662.265020,0.643667
662.577280,0.634860
662.889500,0.630401
663.201680,0.630504
663.513820,0.633966
663.825920,0.630484
664.137980,0.641564
664.450000,0.626598
664.761980,0.634043
665.073920,0.627069
665.385820,0.636780
665.697680,0.633388
666.009500,0.638178
666.321280,0.641484
666.633020,0.635638
666.944720,0.634648
667.256380,0.638291
667.568000,0.630435
667.879580,0.635034
668.191120,0.640453
668.502620,0.630606
668.814080,0.644912
669.125500,0.646254
669.436880,0.636238
669.748220,0.633783
670.059520,0.646008
670.370780,0.645442
670.682000,0.642832
670.993180,0.638478
671.304320,0.627286
671.615420,0.626065
671.926480,0.632363
672.237500,0.635584
672.548480,0.630944
672.859420,0.641530
673.170320,0.640914
673.481180,0.643374
673.792000,0.635052
674.102780,0.633393
674.413520,0.644185
674.724220,0.637750
675.034880,0.646498
675.345500,0.637491
675.656080,0.636661
675.966620,0.630775
676.277120,0.642988
676.587580,0.645803
676.898000,0.643150
677.208380,0.638817
677.518720,0.632020
677.829020,0.632299
678.139280,0.644552
678.449500,0.634237
678.759680,0.641064
679.069820,0.638290
679.379920,0.646171
679.689980,0.634980
680.000000,0.628785
680.309980,0.638456
680.619920,0.640666
680.929820,0.642777
681.239680,0.631093
681.549500,0.632593
681.859280,0.638910
682.169020,0.634465
682.478720,0.649215
682.788380,0.637874
683.098000,0.638369
683.407580,0.648405
683.717120,0.640766
684.026620,0.639684
684.336080,0.645320
684.645500,0.636364
684.954880,0.639592
685.264220,0.634202
685.573520,0.650171
685.882780,0.643652
686.192000,0.641460
686.501180,0.640938
686.810320,0.651806
687.119420,0.650703
687.428480,0.645651
687.737500,0.646585
688.046480,0.647239
688.355420,0.638627
688.664320,0.641163
688.973180,0.641654
689.282000,0.648534
689.590780,0.651457
689.899520,0.647171
690.208220,0.647554
690.516880,0.638793
690.825500,0.635094
691.134080,0.643888
691.442620,0.639863
691.751120,0.640501
692.059580,0.648452
692.368000,0.636880
692.676380,0.645420
692.984720,0.640840
693.293020,0.640198
693.601280,0.647844
693.909500,0.651911
694.217680,0.637471
694.525820,0.635948
694.833920,0.639832
695.141980,0.654069
695.450000,0.638931
695.757980,0.639419
696.065920,0.642330
696.373820,0.640108
696.681680,0.626774
696.989500,0.640679
697.297280,0.634384
697.605020,0.651190
697.912720,0.637202
698.220380,0.635577
698.528000,0.644778
698.835580,0.637693
699.143120,0.638348
699.450620,0.640016
699.758080,0.635686
700.065500,0.644054
700.372880,0.652400
700.680220,0.641803
700.987520,0.644841
701.294780,0.649635
701.602000,0.652932
701.909180,0.647456
702.216320,0.633555
702.523420,0.644436
702.830480,0.641584
703.137500,0.647311
703.444480,0.645759
703.751420,0.645365
704.058320,0.654927
704.365180,0.638801
704.672000,0.649505
704.978780,0.643777
705.285520,0.636150
705.592220,0.639216
705.898880,0.642632
706.205500,0.644366
706.512080,0.646919
706.818620,0.633901
707.125120,0.645769
707.431580,0.647519
707.738000,0.652734
708.044380,0.646469
708.350720,0.648835
708.657020,0.647909
708.963280,0.640916
709.269500,0.636791
709.575680,0.642829
709.881820,0.647799
710.187920,0.650973
710.493980,0.648953
710.800000,0.647216
711.105980,0.640437
711.411920,0.651951
711.717820,0.642885
712.023680,0.638166
712.329500,0.649054
712.635280,0.655039
712.941020,0.637031
713.246720,0.647036
713.552380,0.657771
713.858000,0.657864
714.163580,0.640884
714.469120,0.641657
714.774620,0.651007
715.080080,0.654103
715.385500,0.654676
715.690880,0.644970
715.996220,0.640254
716.301520,0.648617
716.606780,0.638758
716.912000,0.645396
717.217180,0.653631
717.522320,0.652883
717.827420,0.646867
718.132480,0.644721
718.437500,0.650224
718.742480,0.643548
719.047420,0.641586
719.352320,0.648817
719.657180,0.650450
719.962000,0.641439
720.266780,0.645201
720.571520,0.647473
720.876220,0.641571
721.180880,0.639214
721.485500,0.657752
721.790080,0.655626
722.094620,0.654803
722.399120,0.651443
722.703580,0.646807
723.008000,0.647262
723.312380,0.639260
723.616720,0.637909
723.921020,0.644002
724.225280,0.641798
724.529500,0.638354
724.833680,0.645907
725.137820,0.640969
725.441920,0.643335
725.745980,0.638926
726.050000,0.647722
726.353980,0.647138
726.657920,0.632928
726.961820,0.649315
727.265680,0.648174
727.569500,0.641225
727.873280,0.644804
728.177020,0.644404
728.480720,0.640278
728.784380,0.651010
729.088000,0.642487
729.391580,0.653245
729.695120,0.646353
729.998620,0.648184
730.302080,0.641999
730.605500,0.638525
730.908880,0.646252
731.212220,0.649853
731.515520,0.644076
731.818780,0.646602
732.122000,0.649114
732.425180,0.631345
732.728320,0.634606
733.031420,0.640602
733.334480,0.653571
733.637500,0.632056
733.940480,0.639202
734.243420,0.645770
734.546320,0.649896
734.849180,0.632748
735.152000,0.643154
735.454780,0.639463
735.757520,0.649104
736.060220,0.641390
736.362880,0.643382
736.665500,0.634987
736.968080,0.650725
737.270620,0.648884
737.573120,0.641376
737.875580,0.649258
738.178000,0.637997
738.480380,0.638919
738.782720,0.638495
739.085020,0.632159
739.387280,0.631929
739.689500,0.640997
739.991680,0.646266
740.293820,0.637922
740.595920,0.636060
740.897980,0.645963
741.200000,0.642176
741.501980,0.645845
741.803920,0.644707
742.105820,0.639594
742.407680,0.651136
742.709500,0.631250
743.011280,0.646542
743.313020,0.646377
743.614720,0.636100
743.916380,0.644767
744.218000,0.650358
744.519580,0.645531
744.821120,0.650299
745.122620,0.625524
745.424080,0.635817
745.725500,0.645142
746.026880,0.645936
746.328220,0.649815
746.629520,0.639374
746.930780,0.639093
747.232000,0.638872
747.533180,0.635754
747.834320,0.638466
748.135420,0.642635
748.436480,0.640050
748.737500,0.636195
749.038480,0.627978
749.339420,0.642813
749.640320,0.641106
749.941180,0.629606
750.242000,0.639447
750.542780,0.641439
750.843520,0.649584
751.144220,0.637179
751.444880,0.637286
751.745500,0.640909
752.046080,0.659397
752.346620,0.632088
752.647120,0.636839
752.947580,0.638422
753.248000,0.624113
753.548380,0.646064
753.848720,0.630393
754.149020,0.626048
754.449280,0.641497
754.749500,0.637027
755.049680,0.639333
755.349820,0.629753
755.649920,0.645737
755.949980,0.622429
756.250000,0.646943
756.549980,0.636964
756.849920,0.643780
757.149820,0.622089
757.449680,0.633663
757.749500,0.648943
758.049280,0.639590
758.349020,0.642559
758.648720,0.649413
758.948380,0.628866
759.248000,0.632075
759.547580,0.645595
759.847120,0.636802
760.146620,0.635995
760.446080,0.639785
760.745500,0.634266
761.044880,0.630682
761.344220,0.644334
761.643520,0.628531
761.942780,0.644507
762.242000,0.651344
762.541180,0.640141
762.840320,0.627809
763.139420,0.627989
763.438480,0.641832
763.737500,0.631289
764.036480,0.647799
764.335420,0.637262
764.634320,0.625780
764.933180,0.637671
765.232000,0.628730
765.530780,0.637895
765.829520,0.637063
766.128220,0.629088
766.426880,0.641080
766.725500,0.636737
767.024080,0.640604
767.322620,0.641770
767.621120,0.632791
767.919580,0.635495
768.218000,0.636115
768.516380,0.623394
768.814720,0.637860
769.113020,0.636802
769.411280,0.647099
769.709500,0.641407
770.007680,0.627812
770.305820,0.620690
770.603920,0.634771
770.901980,0.631831
771.200000,0.620924
771.497980,0.628016
771.795920,0.628094
772.093820,0.633021
772.391680,0.637442
772.689500,0.625000
772.987280,0.633670
773.285020,0.634997
773.582720,0.633784
773.880380,0.641043
774.178000,0.633265
774.475580,0.637642
774.773120,0.637885
775.070620,0.630156
775.368080,0.631931
775.665500,0.630625
775.962880,0.629753
776.260220,0.643338
776.557520,0.635090
776.854780,0.646383
777.152000,0.628647
777.449180,0.644639
777.746320,0.627016
778.043420,0.628240
778.340480,0.648173
778.637500,0.634212
778.934480,0.634835
779.231420,0.624152
779.528320,0.627255
779.825180,0.615283
780.122000,0.610226
780.418780,0.639535
780.715520,0.634474
781.012220,0.643836
781.308880,0.629479
781.605500,0.626027
781.902080,0.634497
782.198620,0.634997
782.495120,0.643347
782.791580,0.648556
783.088000,0.645963
783.384380,0.627235
783.680720,0.632011
783.977020,0.629043
784.273280,0.632867
784.569500,0.631027
784.865680,0.645341
785.161820,0.636806
785.457920,0.625087
785.753980,0.634334
786.050000,0.635359
786.345980,0.631250
786.641920,0.632200
786.937820,0.626781
787.233680,0.622129
787.529500,0.620666
787.825280,0.650142
788.121020,0.623938
788.416720,0.635850
788.712380,0.636812
789.008000,0.621813
789.303580,0.625442
789.599120,0.632727
789.894620,0.629603
790.190080,0.620740
790.485500,0.634269
790.780880,0.617921
791.076220,0.629149
791.371520,0.625999
791.666780,0.637818
791.962000,0.637766
792.257180,0.628843
792.552320,0.633793
792.847420,0.621543
793.142480,0.621245
793.437500,0.618669
793.732480,0.626920
794.027420,0.625371
794.322320,0.626398
794.617180,0.630758
794.912000,0.629272
795.206780,0.620433
795.501520,0.640304
795.796220,0.623704
796.090880,0.631500
796.385500,0.625937
796.680080,0.626028
796.974620,0.624251
797.269120,0.626798
797.563580,0.622901
797.858000,0.636295
798.152380,0.648879
798.446720,0.629231
798.741020,0.625578
799.035280,0.628106
799.329500,0.625866
799.623680,0.628682
