399.985280,0.351351
400.329500,0.432432
400.673680,0.329114
401.017820,0.352941
401.361920,0.378788
401.705980,0.292683
402.050000,0.298701
402.393980,0.364706
402.737920,0.382022
403.081820,0.350515
403.425680,0.360465
403.769500,0.302083
404.113280,0.298851
404.457020,0.370787
404.800720,0.260870
405.144380,0.363636
405.488000,0.290323
405.831580,0.350515
406.175120,0.319149
406.518620,0.350000
406.862080,0.371134
407.205500,0.322917
407.548880,0.377551
407.892220,0.392157
408.235520,0.329787
408.578780,0.342857
408.922000,0.326923
409.265180,0.393939
409.608320,0.404040
409.951420,0.412371
410.294480,0.352941
410.637500,0.423913
410.980480,0.401961
411.323420,0.357143
411.666320,0.394495
412.009180,0.363636
412.352000,0.346535
412.694780,0.385321
413.037520,0.376147
413.380220,0.396396
413.722880,0.428571
414.065500,0.360360
414.408080,0.380531
414.750620,0.380531
415.093120,0.338843
415.435580,0.462185
415.778000,0.431818
416.120380,0.411765
416.462720,0.396825
416.805020,0.436090
417.147280,0.425373
417.489500,0.457143
417.831680,0.390411
418.173820,0.382979
418.515920,0.412587
418.857980,0.360759
419.200000,0.416667
419.541980,0.378698
419.883920,0.393258
420.225820,0.427746
420.567680,0.385475
420.909500,0.420765
421.251280,0.437500
421.593020,0.418367
421.934720,0.393939
422.276380,0.394872
422.618000,0.411765
422.959580,0.426471
423.301120,0.397260
423.642620,0.360870
423.984080,0.418605
424.325500,0.403587
424.666880,0.400862
425.008220,0.378151
425.349520,0.402542
425.690780,0.411538
426.032000,0.380392
426.373180,0.410788
426.714320,0.406250
427.055420,0.397683
427.396480,0.378277
427.737500,0.426877
428.078480,0.399209
428.419420,0.409639
428.760320,0.402299
429.101180,0.452756
429.442000,0.429119
429.782780,0.396154
430.123520,0.466667
430.464220,0.424354
430.804880,0.448276
431.145500,0.418182
431.486080,0.411985
431.826620,0.422481
432.167120,0.426471
432.507580,0.456522
432.848000,0.395683
433.188380,0.422383
433.528720,0.460377
433.869020,0.428571
434.209280,0.403509
434.549500,0.428571
434.889680,0.427609
435.229820,0.416382
435.569920,0.411765
435.909980,0.414239
436.250000,0.447458
436.589980,0.393189
436.929920,0.450794
437.269820,0.416928
437.609680,0.423077
437.949500,0.445783
438.289280,0.433428
438.629020,0.447674
438.968720,0.447674
439.308380,0.417344
439.648000,0.424658
439.987580,0.417989
440.327120,0.448000
440.666620,0.420779
441.006080,0.437340
441.345500,0.437346
441.684880,0.442584
442.024220,0.429280
442.363520,0.438095
442.702780,0.418182
443.042000,0.427313
443.381180,0.454741
443.720320,0.444924
444.059420,0.428571
444.398480,0.426778
444.737500,0.440574
445.076480,0.438492
445.415420,0.445110
445.754320,0.444906
446.093180,0.440367
446.432000,0.434211
446.770780,0.442125
447.109520,0.465074
447.448220,0.438283
447.786880,0.425760
448.125500,0.431034
448.464080,0.439286
448.802620,0.453901
449.141120,0.442907
449.479580,0.444056
449.818000,0.438898
450.156380,0.434783
450.494720,0.452893
450.833020,0.435315
451.171280,0.445205
451.509500,0.452962
451.847680,0.468803
452.185820,0.450947
452.523920,0.448454
452.861980,0.458685
453.200000,0.428571
453.537980,0.443697
453.875920,0.436975
454.213820,0.433219
454.551680,0.443709
454.889500,0.438449
455.227280,0.416370
455.565020,0.432161
455.902720,0.464226
456.240380,0.430948
456.578000,0.458188
456.915580,0.452504
457.253120,0.429276
457.590620,0.435140
457.928080,0.446128
458.265500,0.445946
458.602880,0.441558
458.940220,0.451777
459.277520,0.432000
459.614780,0.451718
459.952000,0.437888
460.289180,0.447785
460.626320,0.447244
460.963420,0.453958
461.300480,0.451070
461.637500,0.451464
461.974480,0.463303
462.311420,0.430700
462.648320,0.427526
462.985180,0.437590
463.322000,0.446429
463.658780,0.436464
463.995520,0.431912
464.332220,0.439058
464.668880,0.444892
465.005500,0.442359
465.342080,0.443022
465.678620,0.435424
466.015120,0.454075
466.351580,0.455120
466.688000,0.455542
467.024380,0.458080
467.360720,0.438636
467.697020,0.452164
468.033280,0.446667
468.369500,0.452539
468.705680,0.441939
469.041820,0.452083
469.377920,0.443601
469.713980,0.435633
470.050000,0.434783
470.385980,0.431507
470.721920,0.438786
471.057820,0.450292
471.393680,0.433115
471.729500,0.431881
472.065280,0.428444
472.401020,0.436170
472.736720,0.447644
473.072380,0.449731
473.408000,0.437772
473.743580,0.430796
474.079120,0.436693
474.414620,0.439355
474.750080,0.438568
475.085500,0.439145
475.420880,0.429642
475.756220,0.438267
476.091520,0.435635
476.426780,0.427994
476.762000,0.434433
477.097180,0.434400
477.432320,0.429725
477.767420,0.425654
478.102480,0.436220
478.437500,0.438424
478.772480,0.431048
479.107420,0.442636
479.442320,0.434053
479.777180,0.438345
480.112000,0.422958
480.446780,0.424006
480.781520,0.442029
481.116220,0.440582
481.450880,0.417642
481.785500,0.431171
482.120080,0.423197
482.454620,0.429681
482.789120,0.438694
483.123580,0.439252
483.458000,0.419304
483.792380,0.433706
484.126720,0.427799
484.461020,0.409836
484.795280,0.422513
485.129500,0.438815
485.463680,0.428682
485.797820,0.423795
486.131920,0.423106
486.465980,0.422394
486.800000,0.431298
487.133980,0.424471
487.467920,0.423106
487.801820,0.427155
488.135680,0.429113
488.469500,0.412254
488.803280,0.426449
489.137020,0.417582
489.470720,0.432493
489.804380,0.426875
490.138000,0.428783
490.471580,0.431835
490.805120,0.422445
491.138620,0.415068
491.472080,0.415548
491.805500,0.417015
492.138880,0.419041
492.472220,0.415917
492.805520,0.428771
493.138780,0.421089
493.472000,0.420736
493.805180,0.432469
494.138320,0.420280
494.471420,0.413411
494.804480,0.415912
495.137500,0.409499
495.470480,0.411727
495.803420,0.405542
496.136320,0.414787
496.469180,0.404543
496.802000,0.413203
497.134780,0.415403
497.467520,0.422018
497.800220,0.402712
498.132880,0.416814
498.465500,0.420046
498.798080,0.406393
499.130620,0.406513
499.463120,0.412128
499.795580,0.401540
500.128000,0.404360
500.460380,0.406351
500.792720,0.409332
501.125020,0.399895
501.457280,0.412010
501.789500,0.409091
502.121680,0.408502
502.453820,0.408465
502.785920,0.408204
503.117980,0.402355
503.450000,0.412356
503.781980,0.402093
504.113920,0.396396
504.445820,0.397667
504.777680,0.398588
505.109500,0.399038
505.441280,0.403442
505.773020,0.393612
506.104720,0.393782
506.436380,0.401325
506.768000,0.393358
507.099580,0.385355
507.431120,0.396253
507.762620,0.406015
508.094080,0.396992
508.425500,0.397759
508.756880,0.395976
509.088220,0.388224
509.419520,0.392924
509.750780,0.391753
510.082000,0.387127
510.413180,0.392446
510.744320,0.387943
511.075420,0.383135
511.406480,0.390221
511.737500,0.383796
512.068480,0.383929
512.399420,0.381221
512.730320,0.376443
513.061180,0.391532
513.392000,0.382868
513.722780,0.384246
514.053520,0.383805
514.384220,0.381066
514.714880,0.376257
515.045500,0.376437
515.376080,0.380630
515.706620,0.372625
516.037120,0.372549
516.367580,0.373583
516.698000,0.372059
517.028380,0.373386
517.358720,0.373827
517.689020,0.373393
518.019280,0.374812
518.349500,0.370502
518.679680,0.376073
519.009820,0.367409
519.339920,0.376754
519.669980,0.364139
520.000000,0.369842
520.329980,0.370658
520.659920,0.363497
520.989820,0.373065
521.319680,0.368827
521.649500,0.361954
521.979280,0.368998
522.309020,0.360996
522.638720,0.358935
522.968380,0.363495
523.298000,0.355950
523.627580,0.352819
523.957120,0.361039
524.286620,0.361647
524.616080,0.357291
524.945500,0.359173
525.274880,0.354541
525.604220,0.359213
525.933520,0.352201
526.262780,0.347187
526.592000,0.352613
526.921180,0.348908
527.250320,0.339422
527.579420,0.353209
527.908480,0.347612
528.237500,0.354022
528.566480,0.350798
528.895420,0.346476
529.224320,0.348687
529.553180,0.346988
529.882000,0.346959
530.210780,0.349903
530.539520,0.336050
530.868220,0.337961
531.196880,0.338270
531.525500,0.343341
531.854080,0.342871
532.182620,0.339561
532.511120,0.341067
532.839580,0.347550
533.168000,0.336828
533.496380,0.340639
533.824720,0.334231
534.153020,0.335265
534.481280,0.330837
534.809500,0.334213
535.137680,0.326823
535.465820,0.335052
535.793920,0.329526
536.121980,0.333613
536.450000,0.333615
536.777980,0.336406
537.105920,0.336654
537.433820,0.331833
537.761680,0.331837
538.089500,0.330231
538.417280,0.326701
538.745020,0.333597
539.072720,0.326825
539.400380,0.332168
539.728000,0.325430
540.055580,0.325843
540.383120,0.320179
540.710620,0.320312
541.038080,0.322390
541.365500,0.323529
541.692880,0.319767
542.020220,0.320259
542.347520,0.328069
542.674780,0.320748
543.002000,0.315605
543.329180,0.320940
543.656320,0.315752
543.983420,0.314188
544.310480,0.314305
544.637500,0.317980
544.964480,0.311575
545.291420,0.312064
545.618320,0.315073
545.945180,0.309492
546.272000,0.303080
546.598780,0.308096
546.925520,0.312892
547.252220,0.307692
547.578880,0.307918
547.905500,0.301307
548.232080,0.303444
548.558620,0.300683
548.885120,0.301603
549.211580,0.297653
549.538000,0.305123
549.864380,0.301286
550.190720,0.296093
550.517020,0.295958
550.843280,0.301629
551.169500,0.298346
551.495680,0.301248
551.821820,0.302090
552.147920,0.291152
552.473980,0.292394
552.800000,0.292021
553.125980,0.296660
553.451920,0.292966
553.777820,0.291472
554.103680,0.292214
554.429500,0.288249
554.755280,0.286716
555.081020,0.281751
555.406720,0.284118
555.732380,0.278889
556.058000,0.286830
556.383580,0.288257
556.709120,0.282908
557.034620,0.282811
557.360080,0.283247
557.685500,0.280429
558.010880,0.274177
558.336220,0.276626
558.661520,0.276143
558.986780,0.279235
559.312000,0.273860
559.637180,0.267504
559.962320,0.276611
560.287420,0.270099
560.612480,0.275565
560.937500,0.270925
561.262480,0.270528
561.587420,0.269496
561.912320,0.270081
562.237180,0.263138
562.562000,0.263374
562.886780,0.271275
563.211520,0.265648
563.536220,0.262709
563.860880,0.262920
564.185500,0.263415
564.510080,0.262227
564.834620,0.260886
565.159120,0.260526
565.483580,0.258457
565.808000,0.262959
566.132380,0.257740
566.456720,0.264172
566.781020,0.260690
567.105280,0.257467
567.429500,0.251138
567.753680,0.258535
568.077820,0.247004
568.401920,0.252865
568.725980,0.250854
569.050000,0.254373
569.373980,0.249334
569.697920,0.244975
570.021820,0.247940
570.345680,0.249904
570.669500,0.247997
570.993280,0.251384
571.317020,0.246986
571.640720,0.246388
571.964380,0.244246
572.288000,0.247033
572.611580,0.245975
572.935120,0.241302
573.258620,0.238220
573.582080,0.240686
573.905500,0.244229
574.228880,0.245360
574.552220,0.240381
574.875520,0.234922
575.198780,0.235634
575.522000,0.236437
575.845180,0.231017
576.168320,0.234998
576.491420,0.244549
576.814480,0.233635
577.137500,0.237374
577.460480,0.234505
577.783420,0.232226
578.106320,0.232194
578.429180,0.231531
578.752000,0.226815
579.074780,0.228254
579.397520,0.232085
579.720220,0.231982
580.042880,0.228279
580.365500,0.225678
580.688080,0.229308
581.010620,0.228147
581.333120,0.229793
581.655580,0.224109
581.978000,0.221816
582.300380,0.226874
582.622720,0.217535
582.945020,0.221391
583.267280,0.221752
583.589500,0.219583
583.911680,0.220705
584.233820,0.220334
584.555920,0.219351
584.877980,0.217023
585.200000,0.215470
585.521980,0.219339
585.843920,0.213545
586.165820,0.215722
586.487680,0.212760
586.809500,0.210321
587.131280,0.213842
587.453020,0.215476
587.774720,0.211118
588.096380,0.215286
588.418000,0.216564
588.739580,0.215292
589.061120,0.212478
589.382620,0.213181
589.704080,0.209537
590.025500,0.208333
590.346880,0.209668
590.668220,0.206665
590.989520,0.207709
591.310780,0.209334
591.632000,0.209290
591.953180,0.207584
592.274320,0.203112
592.595420,0.205819
592.916480,0.202662
593.237500,0.203180
593.558480,0.201238
593.879420,0.199353
594.200320,0.201179
594.521180,0.205578
594.842000,0.206609
595.162780,0.200321
595.483520,0.199681
595.804220,0.197100
596.124880,0.203837
596.445500,0.198847
596.766080,0.203818
597.086620,0.197983
597.407120,0.199579
597.727580,0.195439
598.048000,0.193335
598.368380,0.194897
598.688720,0.193185
599.009020,0.191614
599.329280,0.191325
599.649500,0.191759
599.969680,0.188835
600.289820,0.194444
600.609920,0.189420
600.929980,0.185997
601.250000,0.191622
601.569980,0.189036
601.889920,0.187116
602.209820,0.183983
602.529680,0.188135
602.849500,0.184124
603.169280,0.188482
603.489020,0.184334
603.808720,0.184037
604.128380,0.184603
604.448000,0.176796
604.767580,0.179888
605.087120,0.183934
605.406620,0.187517
605.726080,0.177360
606.045500,0.176094
606.364880,0.179189
606.684220,0.183038
607.003520,0.178899
607.322780,0.177658
607.642000,0.176910
607.961180,0.175484
608.280320,0.176914
608.599420,0.172364
608.918480,0.175073
609.237500,0.174296
609.556480,0.176384
609.875420,0.174247
610.194320,0.171243
610.513180,0.173424
610.832000,0.174509
611.150780,0.173926
611.469520,0.171342
611.788220,0.171705
612.106880,0.169481
612.425500,0.171437
612.744080,0.169591
613.062620,0.164526
613.381120,0.164229
613.699580,0.164010
614.018000,0.168612
614.336380,0.169031
614.654720,0.165581
614.973020,0.163838
615.291280,0.163619
615.609500,0.166086
615.927680,0.162546
616.245820,0.162647
616.563920,0.166304
616.881980,0.166199
617.200000,0.164230
617.517980,0.162103
617.835920,0.162162
618.153820,0.160398
618.471680,0.159690
618.789500,0.156073
619.107280,0.160250
619.425020,0.157945
619.742720,0.155053
620.060380,0.158258
620.378000,0.159534
620.695580,0.156769
621.013120,0.157480
621.330620,0.158770
621.648080,0.155836
621.965500,0.155583
622.282880,0.157629
622.600220,0.159507
622.917520,0.154694
623.234780,0.156863
623.552000,0.152769
623.869180,0.152852
624.186320,0.153773
624.503420,0.153918
624.820480,0.153943
625.137500,0.158194
625.454480,0.151922
625.771420,0.151955
626.088320,0.152900
626.405180,0.150280
626.722000,0.151506
627.038780,0.149123
627.355520,0.151562
627.672220,0.151166
627.988880,0.150233
628.305500,0.152384
628.622080,0.152726
628.938620,0.148624
629.255120,0.153703
629.571580,0.145572
629.888000,0.146978
630.204380,0.146671
630.520720,0.143815
630.837020,0.146161
631.153280,0.144784
631.469500,0.148272
631.785680,0.145570
632.101820,0.147467
632.417920,0.145156
632.733980,0.143157
633.050000,0.148575
633.365980,0.141968
633.681920,0.146181
633.997820,0.140167
634.313680,0.145680
634.629500,0.141846
634.945280,0.142229
635.261020,0.141767
635.576720,0.145625
635.892380,0.146094
636.208000,0.140906
636.523580,0.143233
636.839120,0.143312
637.154620,0.148406
637.470080,0.142898
637.785500,0.145662
638.100880,0.143643
638.416220,0.142364
638.731520,0.139255
639.046780,0.139819
639.362000,0.141342
639.677180,0.141919
639.992320,0.140682
640.307420,0.142175
640.622480,0.140017
640.937500,0.141193
641.252480,0.138788
641.567420,0.142086
641.882320,0.140033
642.197180,0.140932
642.512000,0.137140
642.826780,0.135090
643.141520,0.140872
643.456220,0.138074
643.770880,0.137922
644.085500,0.136389
644.400080,0.133708
644.714620,0.133779
645.029120,0.138889
645.343580,0.136039
645.658000,0.134888
645.972380,0.135654
646.286720,0.134096
646.601020,0.136175
646.915280,0.132438
647.229500,0.134341
647.543680,0.138083
647.857820,0.135425
648.171920,0.136191
648.485980,0.137572
648.800000,0.130890
649.113980,0.133869
649.427920,0.133148
649.741820,0.133278
650.055680,0.133571
650.369500,0.134809
650.683280,0.139290
650.997020,0.135039
651.310720,0.134562
651.624380,0.129396
651.938000,0.132687
652.251580,0.131923
652.565120,0.131638
652.878620,0.130912
653.192080,0.129494
653.505500,0.127069
653.818880,0.130509
654.132220,0.133295
654.445520,0.133863
654.758780,0.131161
655.072000,0.132665
655.385180,0.129244
655.698320,0.127751
656.011420,0.130123
656.324480,0.132614
656.637500,0.130939
656.950480,0.131239
657.263420,0.130358
657.576320,0.127186
657.889180,0.133589
658.202000,0.129831
658.514780,0.134266
658.827520,0.128151
659.140220,0.130357
659.452880,0.129870
659.765500,0.132450
660.078080,0.128498
660.390620,0.125878
660.703120,0.135044
661.015580,0.130675
661.328000,0.130353
661.640380,0.130165
661.952720,0.127998
662.265020,0.130750
662.577280,0.130407
662.889500,0.129612
663.201680,0.130185
663.513820,0.126407
663.825920,0.129363
664.137980,0.133807
664.450000,0.128836
664.761980,0.129296
665.073920,0.128205
665.385820,0.125000
665.697680,0.123967
666.009500,0.133023
666.321280,0.128562
666.633020,0.130984
666.944720,0.133805
667.256380,0.128533
667.568000,0.127717
667.879580,0.130952
668.191120,0.126374
668.502620,0.129408
668.814080,0.131228
669.125500,0.126582
669.436880,0.132434
669.748220,0.127726
670.059520,0.129902
670.370780,0.130828
670.682000,0.128850
670.993180,0.131078
671.304320,0.130802
671.615420,0.122514
671.926480,0.129879
672.237500,0.125402
672.548480,0.127750
672.859420,0.129736
673.170320,0.131665
673.481180,0.124909
673.792000,0.127660
674.102780,0.131777
674.413520,0.130149
674.724220,0.128131
675.034880,0.129446
675.345500,0.123268
675.656080,0.127042
675.966620,0.132048
676.277120,0.127060
676.587580,0.131811
676.898000,0.131019
677.208380,0.126063
677.518720,0.128009
677.829020,0.131559
678.139280,0.128243
678.449500,0.127367
678.759680,0.130011
679.069820,0.127881
679.379920,0.132026
679.689980,0.131823
680.000000,0.129346
680.309980,0.130661
680.619920,0.126846
680.929820,0.132139
681.239680,0.128877
681.549500,0.133704
681.859280,0.129574
682.169020,0.133159
682.478720,0.132012
682.788380,0.134736
683.098000,0.132012
683.407580,0.129831
683.717120,0.126126
684.026620,0.135542
684.336080,0.134142
684.645500,0.127198
684.954880,0.131847
685.264220,0.132503
685.573520,0.136277
685.882780,0.132720
686.192000,0.132430
686.501180,0.131669
686.810320,0.133359
687.119420,0.136070
687.428480,0.131789
687.737500,0.133922
688.046480,0.136503
688.355420,0.130894
688.664320,0.131217
688.973180,0.131700
689.282000,0.128086
689.590780,0.135736
689.899520,0.134068
690.208220,0.136850
690.516880,0.136693
690.825500,0.135849
691.134080,0.133637
691.442620,0.134527
691.751120,0.132727
692.059580,0.135269
692.368000,0.132526
692.676380,0.134351
692.984720,0.133206
693.293020,0.135638
693.601280,0.139641
693.909500,0.134695
694.217680,0.132902
694.525820,0.136710
694.833920,0.139260
695.141980,0.134979
695.450000,0.136260
695.757980,0.132544
696.065920,0.137864
696.373820,0.137798
696.681680,0.139624
696.989500,0.141258
697.297280,0.135745
697.605020,0.134921
697.912720,0.137202
698.220380,0.133018
698.528000,0.141614
698.835580,0.138285
699.143120,0.141076
699.450620,0.139618
699.758080,0.135686
700.065500,0.143256
700.372880,0.140800
700.680220,0.138412
700.987520,0.138492
701.294780,0.140714
701.602000,0.136688
701.909180,0.141097
702.216320,0.140790
702.523420,0.139305
702.830480,0.140990
703.137500,0.145362
703.444480,0.144379
703.751420,0.140828
704.058320,0.143649
704.365180,0.143139
704.672000,0.139802
704.978780,0.136169
705.285520,0.138498
705.592220,0.144314
705.898880,0.144602
706.205500,0.144366
706.512080,0.142575
706.818620,0.140093
707.125120,0.142308
707.431580,0.145369
707.738000,0.146875
708.044380,0.143960
708.350720,0.142912
708.657020,0.146932
708.963280,0.145186
709.269500,0.145597
709.575680,0.148527
709.881820,0.147406
710.187920,0.147082
710.493980,0.147789
710.800000,0.152555
711.105980,0.147214
711.411920,0.145842
711.717820,0.146589
712.023680,0.144578
712.329500,0.148659
712.635280,0.153488
712.941020,0.149208
713.246720,0.147036
713.552380,0.153846
713.858000,0.145053
714.163580,0.149961
714.469120,0.147714
714.774620,0.148046
715.080080,0.150373
715.385500,0.151079
715.690880,0.151085
715.996220,0.150951
716.301520,0.155731
716.606780,0.152516
716.912000,0.149435
717.217180,0.149641
717.522320,0.150298
717.827420,0.154597
718.132480,0.151746
718.437500,0.155728
718.742480,0.153226
719.047420,0.148867
719.352320,0.152345
719.657180,0.158217
719.962000,0.152605
720.266780,0.155796
720.571520,0.158244
720.876220,0.156301
721.180880,0.156355
721.485500,0.160050
721.790080,0.150743
722.094620,0.159091
722.399120,0.157691
722.703580,0.158594
723.008000,0.159552
723.312380,0.159277
723.616720,0.161496
723.921020,0.162841
724.225280,0.156632
724.529500,0.158932
724.833680,0.165480
725.137820,0.159471
725.441920,0.158716
725.745980,0.161969
726.050000,0.158322
726.353980,0.155025
726.657920,0.164193
726.961820,0.160731
727.265680,0.164586
727.569500,0.162249
727.873280,0.154734
728.177020,0.159374
728.480720,0.157870
728.784380,0.171442
729.088000,0.166745
729.391580,0.162956
729.695120,0.167466
729.998620,0.163480
730.302080,0.163383
730.605500,0.165939
730.908880,0.163155
731.212220,0.166014
731.515520,0.165285
731.818780,0.162136
732.122000,0.168307
732.425180,0.166092
732.728320,0.167080
733.031420,0.166917
733.334480,0.167347
733.637500,0.159778
733.940480,0.167349
734.243420,0.176351
734.546320,0.168050
734.849180,0.165289
735.152000,0.168568
735.454780,0.169938
735.757520,0.169125
736.060220,0.174829
736.362880,0.166492
736.665500,0.167102
736.968080,0.172488
737.270620,0.175830
737.573120,0.170852
737.875580,0.178120
738.178000,0.170931
738.480380,0.169189
738.782720,0.171756
739.085020,0.174559
739.387280,0.174612
739.689500,0.172707
739.991680,0.177428
740.293820,0.173577
740.595920,0.176962
740.897980,0.181254
741.200000,0.178351
741.501980,0.175931
741.803920,0.177928
742.105820,0.181613
742.407680,0.175306
742.709500,0.181818
743.011280,0.178781
743.313020,0.179710
743.614720,0.173535
743.916380,0.175581
744.218000,0.184368
744.519580,0.186594
744.821120,0.180838
745.122620,0.183942
745.424080,0.178486
745.725500,0.185878
746.026880,0.182882
746.328220,0.184340
746.629520,0.175798
746.930780,0.180760
747.232000,0.183936
747.533180,0.181208
747.834320,0.186245
748.135420,0.185208
748.436480,0.191516
748.737500,0.184064
749.038480,0.183873
749.339420,0.187928
749.640320,0.186675
749.941180,0.193004
750.242000,0.188442
750.542780,0.187965
750.843520,0.197950
751.144220,0.188462
751.444880,0.195942
751.745500,0.188312
752.046080,0.191790
752.346620,0.188144
752.647120,0.190072
752.947580,0.192755
753.248000,0.189555
753.548380,0.195185
753.848720,0.193175
754.149020,0.186331
754.449280,0.196980
754.749500,0.193099
755.049680,0.198000
755.349820,0.190127
755.649920,0.196299
755.949980,0.199071
756.250000,0.194609
756.549980,0.198680
756.849920,0.199184
757.149820,0.198270
757.449680,0.201980
757.749500,0.193592
758.049280,0.195904
758.349020,0.196106
758.648720,0.205659
758.948380,0.194502
759.248000,0.198787
759.547580,0.200403
759.847120,0.203308
760.146620,0.202977
760.446080,0.204301
760.745500,0.200000
761.044880,0.203835
761.344220,0.203136
761.643520,0.204802
761.942780,0.211337
762.242000,0.204385
762.541180,0.202817
762.840320,0.202949
763.139420,0.198312
763.438480,0.202324
763.737500,0.206754
764.036480,0.206848
764.335420,0.196895
764.634320,0.205821
764.933180,0.213014
765.232000,0.212353
765.530780,0.209123
765.829520,0.206294
766.128220,0.210160
766.426880,0.203980
766.725500,0.210418
767.024080,0.211248
767.322620,0.211618
767.621120,0.210705
767.919580,0.206143
768.218000,0.209986
768.516380,0.212306
768.814720,0.210562
769.113020,0.217092
769.411280,0.221685
769.709500,0.212449
770.007680,0.213361
770.305820,0.211629
770.603920,0.216307
770.901980,0.219262
771.200000,0.216712
771.497980,0.223190
771.795920,0.212709
772.093820,0.221925
772.391680,0.216875
772.689500,0.210135
772.987280,0.221549
773.285020,0.223513
773.582720,0.222297
773.880380,0.221688
774.178000,0.216769
774.475580,0.225050
774.773120,0.218876
775.070620,0.225152
775.368080,0.223781
775.665500,0.219610
775.962880,0.222815
776.260220,0.221400
776.557520,0.226818
776.854780,0.226504
777.152000,0.224138
777.449180,0.228591
777.746320,0.215054
778.043420,0.230559
778.340480,0.228687
778.637500,0.227181
778.934480,0.228648
779.231420,0.225237
779.528320,0.233801
779.825180,0.233202
780.122000,0.227756
780.418780,0.239398
780.715520,0.240107
781.012220,0.245205
781.308880,0.233266
781.605500,0.229452
781.902080,0.236140
782.198620,0.237867
782.495120,0.244170
782.791580,0.235213
783.088000,0.238785
783.384380,0.242779
783.680720,0.238714
783.977020,0.231934
784.273280,0.239161
784.569500,0.241789
784.865680,0.242698
785.161820,0.237500
785.457920,0.232848
785.753980,0.233775
786.050000,0.238260
786.345980,0.237500
786.641920,0.235947
786.937820,0.249288
787.233680,0.241475
787.529500,0.236477
787.825280,0.250708
788.121020,0.239377
788.416720,0.242061
788.712380,0.244711
789.008000,0.239377
789.303580,0.245936
789.599120,0.245818
789.894620,0.250542
790.190080,0.251632
790.485500,0.250540
790.780880,0.245878
791.076220,0.239538
791.371520,0.246187
791.666780,0.248000
791.962000,0.245408
792.257180,0.242313
792.552320,0.253082
792.847420,0.247453
793.142480,0.255678
793.437500,0.248191
793.732480,0.249451
794.027420,0.253709
794.322320,0.256525
794.617180,0.254086
794.912000,0.251857
795.206780,0.254288
795.501520,0.259316
795.796220,0.257037
796.090880,0.258478
796.385500,0.254873
796.680080,0.252805
796.974620,0.253743
797.269120,0.258138
797.563580,0.258015
797.858000,0.260440
798.152380,0.262181
798.446720,0.256154
798.741020,0.258089
799.035280,0.261646
799.329500,0.268668
799.623680,0.268992
