399.985280,0.405405
400.329500,0.364865
400.673680,0.392405
401.017820,0.441176
401.361920,0.333333
401.705980,0.292683
402.050000,0.285714
402.393980,0.364706
402.737920,0.382022
403.081820,0.340206
403.425680,0.383721
403.769500,0.291667
404.113280,0.310345
404.457020,0.337079
404.800720,0.304348
405.144380,0.363636
405.488000,0.333333
405.831580,0.360825
406.175120,0.414894
406.518620,0.350000
406.862080,0.381443
407.205500,0.270833
407.548880,0.336735
407.892220,0.313725
408.235520,0.414894
408.578780,0.400000
408.922000,0.336538
409.265180,0.383838
409.608320,0.373737
409.951420,0.422680
410.294480,0.401961
410.637500,0.413043
410.980480,0.382353
411.323420,0.346939
411.666320,0.394495
412.009180,0.390909
412.352000,0.346535
412.694780,0.403670
413.037520,0.357798
413.380220,0.387387
413.722880,0.464286
414.065500,0.459459
414.408080,0.389381
414.750620,0.380531
415.093120,0.421488
415.435580,0.436975
415.778000,0.424242
416.120380,0.378151
416.462720,0.373016
416.805020,0.390977
417.147280,0.402985
417.489500,0.414286
417.831680,0.369863
418.173820,0.397163
418.515920,0.419580
418.857980,0.392405
419.200000,0.416667
419.541980,0.437870
419.883920,0.410112
420.225820,0.410405
420.567680,0.407821
420.909500,0.426230
421.251280,0.411458
421.593020,0.423469
421.934720,0.419192
422.276380,0.394872
422.618000,0.426471
422.959580,0.406863
423.301120,0.420091
423.642620,0.413043
423.984080,0.413953
424.325500,0.417040
424.666880,0.400862
425.008220,0.415966
425.349520,0.427966
425.690780,0.392308
426.032000,0.411765
426.373180,0.452282
426.714320,0.398437
427.055420,0.393822
427.396480,0.419476
427.737500,0.407115
428.078480,0.422925
428.419420,0.421687
428.760320,0.413793
429.101180,0.440945
429.442000,0.421456
429.782780,0.457692
430.123520,0.419608
430.464220,0.413284
430.804880,0.444444
431.145500,0.396364
431.486080,0.430712
431.826620,0.449612
432.167120,0.433824
432.507580,0.445652
432.848000,0.442446
433.188380,0.447653
433.528720,0.430189
433.869020,0.460714
434.209280,0.438596
434.549500,0.425087
434.889680,0.441077
435.229820,0.416382
435.569920,0.415225
435.909980,0.414239
436.250000,0.454237
436.589980,0.402477
436.929920,0.447619
437.269820,0.407524
437.609680,0.426036
437.949500,0.418675
438.289280,0.433428
438.629020,0.459302
438.968720,0.447674
439.308380,0.406504
439.648000,0.432877
439.987580,0.431217
440.327120,0.453333
440.666620,0.420779
441.006080,0.432225
441.345500,0.444717
441.684880,0.421053
442.024220,0.416873
442.363520,0.438095
442.702780,0.431818
443.042000,0.431718
443.381180,0.452586
443.720320,0.442765
444.059420,0.441176
444.398480,0.441423
444.737500,0.446721
445.076480,0.434524
445.415420,0.449102
445.754320,0.436590
446.093180,0.444037
446.432000,0.441729
446.770780,0.447818
447.109520,0.439338
447.448220,0.422182
447.786880,0.449016
448.125500,0.443103
448.464080,0.435714
448.802620,0.436170
449.141120,0.451557
449.479580,0.437063
449.818000,0.447504
450.156380,0.436455
450.494720,0.441322
450.833020,0.437063
451.171280,0.453767
451.509500,0.442509
451.847680,0.438449
452.185820,0.438898
452.523920,0.448454
452.861980,0.448567
453.200000,0.430233
453.537980,0.435294
453.875920,0.445378
454.213820,0.433219
454.551680,0.433775
454.889500,0.440135
455.227280,0.432384
455.565020,0.447236
455.902720,0.450915
456.240380,0.434276
456.578000,0.444251
456.915580,0.450777
457.253120,0.430921
457.590620,0.444992
457.928080,0.444444
458.265500,0.454392
458.602880,0.435065
458.940220,0.445008
459.277520,0.430400
459.614780,0.440262
459.952000,0.428571
460.289180,0.454114
460.626320,0.461417
460.963420,0.444265
461.300480,0.467890
461.637500,0.436055
461.974480,0.449541
462.311420,0.438152
462.648320,0.428990
462.985180,0.421808
463.322000,0.427083
463.658780,0.404696
463.995520,0.437414
464.332220,0.445983
464.668880,0.446237
465.005500,0.436997
465.342080,0.427657
465.678620,0.426814
466.015120,0.439845
466.351580,0.450063
466.688000,0.448234
467.024380,0.441069
467.360720,0.428409
467.697020,0.443052
468.033280,0.438889
468.369500,0.439294
468.705680,0.452086
469.041820,0.437500
469.377920,0.439262
469.713980,0.434604
470.050000,0.438647
470.385980,0.435421
470.721920,0.431929
471.057820,0.444444
471.393680,0.422825
471.729500,0.434662
472.065280,0.446333
472.401020,0.428191
472.736720,0.429319
473.072380,0.429084
473.408000,0.426458
473.743580,0.435121
474.079120,0.434970
474.414620,0.438507
474.750080,0.425549
475.085500,0.427632
475.420880,0.433805
475.756220,0.430090
476.091520,0.436488
476.426780,0.431230
476.762000,0.417538
477.097180,0.428000
477.432320,0.432956
477.767420,0.421569
478.102480,0.421260
478.437500,0.436782
478.772480,0.422380
479.107420,0.422295
479.442320,0.431655
479.777180,0.423230
480.112000,0.415254
480.446780,0.406859
480.781520,0.423510
481.116220,0.426839
481.450880,0.409836
481.785500,0.420095
482.120080,0.418495
482.454620,0.424242
482.789120,0.410828
483.123580,0.422118
483.458000,0.416930
483.792380,0.422524
484.126720,0.413900
484.461020,0.411397
484.795280,0.420971
485.129500,0.419330
485.463680,0.414729
485.797820,0.414463
486.131920,0.424637
486.465980,0.409266
486.800000,0.420611
487.133980,0.406344
487.467920,0.423106
487.801820,0.411899
488.135680,0.414708
488.469500,0.406959
488.803280,0.405646
489.137020,0.406593
489.470720,0.411721
489.804380,0.404603
490.138000,0.416914
490.471580,0.416360
490.805120,0.404575
491.138620,0.406539
491.472080,0.414841
491.805500,0.401674
492.138880,0.410702
492.472220,0.415225
492.805520,0.409916
493.138780,0.408684
493.472000,0.402676
493.805180,0.415416
494.138320,0.396264
494.471420,0.397135
494.804480,0.402329
495.137500,0.400513
495.470480,0.407903
495.803420,0.401763
496.136320,0.405388
496.469180,0.396562
496.802000,0.398533
497.134780,0.405700
497.467520,0.408563
497.800220,0.402712
498.132880,0.397413
498.465500,0.398610
498.798080,0.386986
499.130620,0.403706
499.463120,0.397529
499.795580,0.394939
500.128000,0.393460
500.460380,0.397740
500.792720,0.387063
501.125020,0.387283
501.457280,0.388512
501.789500,0.391012
502.121680,0.397097
502.453820,0.382968
502.785920,0.391696
503.117980,0.387144
503.450000,0.394776
503.781980,0.389636
504.113920,0.372214
504.445820,0.380651
504.777680,0.384471
505.109500,0.381731
505.441280,0.390535
505.773020,0.379051
506.104720,0.383420
506.436380,0.381921
506.768000,0.388213
507.099580,0.374371
507.431120,0.377986
507.762620,0.381579
508.094080,0.373747
508.425500,0.380486
508.756880,0.377229
509.088220,0.376725
509.419520,0.379423
509.750780,0.371134
510.082000,0.375933
510.413180,0.364809
510.744320,0.373217
511.075420,0.366636
511.406480,0.377527
511.737500,0.369907
512.068480,0.363722
512.399420,0.364789
512.730320,0.354273
513.061180,0.368221
513.392000,0.364884
513.722780,0.369837
514.053520,0.361284
514.384220,0.363939
514.714880,0.366683
515.045500,0.357759
515.376080,0.364165
515.706620,0.359961
516.037120,0.360784
516.367580,0.353869
516.698000,0.352451
517.028380,0.356008
517.358720,0.356049
517.689020,0.353610
518.019280,0.355745
518.349500,0.354790
518.679680,0.350833
519.009820,0.351721
519.339920,0.361222
519.669980,0.347062
520.000000,0.356597
520.329980,0.351477
520.659920,0.351227
520.989820,0.353457
521.319680,0.347222
521.649500,0.350643
521.979280,0.347599
522.309020,0.337137
522.638720,0.334869
522.968380,0.346949
523.298000,0.334551
523.627580,0.331092
523.957120,0.337662
524.286620,0.330902
524.616080,0.341779
524.945500,0.342119
525.274880,0.341201
525.604220,0.337474
525.933520,0.342243
526.262780,0.337050
526.592000,0.335363
526.921180,0.333672
527.250320,0.334855
527.579420,0.335018
527.908480,0.329887
528.237500,0.330685
528.566480,0.338323
528.895420,0.337605
529.224320,0.329866
529.553180,0.331084
529.882000,0.331873
530.210780,0.323842
530.539520,0.332694
530.868220,0.326951
531.196880,0.318204
531.525500,0.332203
531.854080,0.322702
532.182620,0.319477
532.511120,0.319258
532.839580,0.327586
533.168000,0.323610
533.496380,0.325114
533.824720,0.316734
534.153020,0.319661
534.481280,0.319383
534.809500,0.314424
535.137680,0.320747
535.465820,0.312715
535.793920,0.311760
536.121980,0.317247
536.450000,0.317970
536.777980,0.314202
537.105920,0.313823
537.433820,0.309738
537.761680,0.312653
538.089500,0.316471
538.417280,0.307998
538.745020,0.303090
539.072720,0.302226
539.400380,0.306915
539.728000,0.307075
540.055580,0.301873
540.383120,0.304170
540.710620,0.304687
541.038080,0.308373
541.365500,0.302574
541.692880,0.299782
542.020220,0.302987
542.347520,0.302943
542.674780,0.294989
543.002000,0.296711
543.329180,0.304104
543.656320,0.299930
543.983420,0.296068
544.310480,0.298675
544.637500,0.299556
544.964480,0.298452
545.291420,0.292456
545.618320,0.297477
545.945180,0.290376
546.272000,0.292923
546.598780,0.290724
546.925520,0.295087
547.252220,0.288544
547.578880,0.287390
547.905500,0.292484
548.232080,0.286550
548.558620,0.285389
548.885120,0.286883
549.211580,0.281581
549.538000,0.284047
549.864380,0.281350
550.190720,0.279948
550.517020,0.279009
550.843280,0.280782
551.169500,0.276399
551.495680,0.278581
551.821820,0.277596
552.147920,0.274886
552.473980,0.278894
552.800000,0.273708
553.125980,0.273739
553.451920,0.277704
553.777820,0.270153
554.103680,0.272666
554.429500,0.270171
554.755280,0.270360
555.081020,0.266377
555.406720,0.267525
555.732380,0.260928
556.058000,0.264087
556.383580,0.265320
556.709120,0.264645
557.034620,0.269377
557.360080,0.260104
557.685500,0.261757
558.010880,0.264471
558.336220,0.259051
558.661520,0.259482
558.986780,0.266478
559.312000,0.256766
559.637180,0.256373
559.962320,0.263439
560.287420,0.256347
560.612480,0.257266
560.937500,0.255874
561.262480,0.252933
561.587420,0.247733
561.912320,0.246500
562.237180,0.245744
562.562000,0.252899
562.886780,0.248606
563.211520,0.248137
563.536220,0.245269
563.860880,0.244059
564.185500,0.245028
564.510080,0.248307
564.834620,0.245255
565.159120,0.245489
565.483580,0.242493
565.808000,0.240257
566.132380,0.241701
566.456720,0.240741
566.781020,0.241185
567.105280,0.238941
567.429500,0.238240
567.753680,0.237821
568.077820,0.235408
568.401920,0.243697
568.725980,0.240607
569.050000,0.238403
569.373980,0.237153
569.697920,0.237012
570.021820,0.234831
570.345680,0.228090
570.669500,0.235406
570.993280,0.231451
571.317020,0.226891
571.640720,0.231197
571.964380,0.230883
572.288000,0.231083
572.611580,0.225384
572.935120,0.231949
573.258620,0.226253
573.582080,0.225037
573.905500,0.221519
574.228880,0.225687
574.552220,0.226090
574.875520,0.225614
575.198780,0.221901
575.522000,0.220308
575.845180,0.216332
576.168320,0.218469
576.491420,0.227834
576.814480,0.220976
577.137500,0.223665
577.460480,0.216383
577.783420,0.220436
578.106320,0.215100
578.429180,0.218098
578.752000,0.213616
579.074780,0.217127
579.397520,0.215300
579.720220,0.217825
580.042880,0.214734
580.365500,0.214428
580.688080,0.213026
581.010620,0.213635
581.333120,0.207415
581.655580,0.212787
581.978000,0.210176
582.300380,0.211295
582.622720,0.212261
582.945020,0.210988
583.267280,0.209704
583.589500,0.209952
583.911680,0.208003
584.233820,0.207428
584.555920,0.207375
584.877980,0.208543
585.200000,0.205648
585.521980,0.202966
585.843920,0.204088
586.165820,0.202011
586.487680,0.202227
586.809500,0.201020
587.131280,0.202899
587.453020,0.200893
587.774720,0.199586
588.096380,0.194282
588.418000,0.199590
588.739580,0.201782
589.061120,0.198102
589.382620,0.198567
589.704080,0.194951
590.025500,0.194349
590.346880,0.191119
590.668220,0.195743
590.989520,0.195507
591.310780,0.194698
591.632000,0.196995
591.953180,0.192361
592.274320,0.191646
592.595420,0.186692
592.916480,0.192611
593.237500,0.191593
593.558480,0.186979
593.879420,0.187483
594.200320,0.187249
594.521180,0.187251
594.842000,0.193176
595.162780,0.187233
595.483520,0.187982
595.804220,0.190924
596.124880,0.187850
596.445500,0.187058
596.766080,0.189567
597.086620,0.184979
597.407120,0.182464
597.727580,0.186688
598.048000,0.186194
598.368380,0.180431
598.688720,0.181127
599.009020,0.181263
599.329280,0.179351
599.649500,0.180930
599.969680,0.176549
600.289820,0.180823
600.609920,0.177932
600.929980,0.175575
601.250000,0.176757
601.569980,0.173373
601.889920,0.175621
602.209820,0.173160
602.529680,0.175776
602.849500,0.176487
603.169280,0.170570
603.489020,0.171326
603.808720,0.168678
604.128380,0.171634
604.448000,0.171271
604.767580,0.170112
605.087120,0.169806
605.406620,0.171005
605.726080,0.173082
606.045500,0.167456
606.364880,0.169266
606.684220,0.168190
607.003520,0.167431
607.322780,0.168562
607.642000,0.167145
607.961180,0.167100
608.280320,0.164153
608.599420,0.161066
608.918480,0.165689
609.237500,0.163146
609.556480,0.168097
609.875420,0.165387
610.194320,0.165929
610.513180,0.166913
610.832000,0.163788
611.150780,0.161610
611.469520,0.166516
611.788220,0.159613
612.106880,0.157117
612.425500,0.159562
612.744080,0.161896
613.062620,0.160550
613.381120,0.161487
613.699580,0.157879
614.018000,0.159091
614.336380,0.156076
614.654720,0.160620
614.973020,0.157976
615.291280,0.156492
615.609500,0.154358
615.927680,0.154821
616.245820,0.154917
616.563920,0.154492
616.881980,0.155909
617.200000,0.152100
617.517980,0.149969
617.835920,0.150357
618.153820,0.150451
618.471680,0.151938
618.789500,0.152926
619.107280,0.154304
619.425020,0.147161
619.742720,0.146893
620.060380,0.152930
620.378000,0.151668
620.695580,0.152937
621.013120,0.154331
621.330620,0.151553
621.648080,0.146688
621.965500,0.150878
622.282880,0.148487
622.600220,0.151611
622.917520,0.145873
623.234780,0.146255
623.552000,0.148631
623.869180,0.149070
624.186320,0.149316
624.503420,0.147335
624.820480,0.147031
625.137500,0.145564
625.454480,0.146608
625.771420,0.144704
626.088320,0.145334
626.405180,0.145613
626.722000,0.145232
627.038780,0.147243
627.355520,0.145000
627.672220,0.144012
627.988880,0.140902
628.305500,0.143035
628.622080,0.144362
628.938620,0.147706
629.255120,0.146235
629.571580,0.138829
629.888000,0.138386
630.204380,0.142375
630.520720,0.143510
630.837020,0.139994
631.153280,0.140887
631.469500,0.144633
631.785680,0.142556
632.101820,0.140832
632.417920,0.138897
632.733980,0.141957
633.050000,0.142207
633.365980,0.140782
633.681920,0.137828
633.997820,0.139271
634.313680,0.142436
634.629500,0.140372
634.945280,0.135777
635.261020,0.138245
635.576720,0.141515
635.892380,0.136799
636.208000,0.140616
636.523580,0.140018
636.839120,0.136364
637.154620,0.137681
637.470080,0.136872
637.785500,0.141559
638.100880,0.139589
638.416220,0.139200
638.731520,0.133811
639.046780,0.139528
639.362000,0.135321
639.677180,0.136779
639.992320,0.133916
640.307420,0.137117
640.622480,0.134416
640.937500,0.136200
641.252480,0.136275
641.567420,0.136118
641.882320,0.133073
642.197180,0.136440
642.512000,0.134901
642.826780,0.133703
643.141520,0.135871
643.456220,0.133647
643.770880,0.134328
644.085500,0.133874
644.400080,0.136798
644.714620,0.136009
645.029120,0.131188
645.343580,0.134120
645.658000,0.132667
645.972380,0.134283
646.286720,0.134914
646.601020,0.134791
646.915280,0.134631
647.229500,0.130769
647.543680,0.130351
647.857820,0.134049
648.171920,0.134292
648.485980,0.132365
648.800000,0.133370
649.113980,0.132206
649.427920,0.129542
649.741820,0.129431
650.055680,0.133845
650.369500,0.134249
650.683280,0.134295
650.997020,0.131463
651.310720,0.130710
651.624380,0.128571
651.938000,0.131856
652.251580,0.133315
652.565120,0.128563
652.878620,0.131757
653.192080,0.133708
653.505500,0.131557
653.818880,0.132499
654.132220,0.131017
654.445520,0.131027
654.758780,0.128045
655.072000,0.128080
655.385180,0.130385
655.698320,0.132038
656.011420,0.129837
656.324480,0.132614
656.637500,0.128042
656.950480,0.126835
657.263420,0.127697
657.576320,0.125704
657.889180,0.127986
658.202000,0.133454
658.514780,0.130991
658.827520,0.133854
659.140220,0.133653
659.452880,0.130776
659.765500,0.130945
660.078080,0.130003
660.390620,0.128323
660.703120,0.129239
661.015580,0.129755
661.328000,0.130982
661.640380,0.135135
661.952720,0.128620
662.265020,0.130750
662.577280,0.128181
662.889500,0.127089
663.201680,0.130823
663.513820,0.126729
663.825920,0.128722
664.137980,0.128959
664.450000,0.131394
664.761980,0.128969
665.073920,0.128854
665.385820,0.130236
665.697680,0.127273
666.009500,0.127369
666.321280,0.134195
666.633020,0.133976
666.944720,0.128413
667.256380,0.124832
667.568000,0.130095
667.879580,0.130612
668.191120,0.129464
668.502620,0.129750
668.814080,0.126667
669.125500,0.130003
669.436880,0.130014
669.748220,0.131880
670.059520,0.134454
670.370780,0.132568
670.682000,0.129912
670.993180,0.132488
671.304320,0.131153
671.615420,0.129261
671.926480,0.129524
672.237500,0.125402
672.548480,0.127395
672.859420,0.130450
673.170320,0.126587
673.481180,0.129978
673.792000,0.131626
674.102780,0.128546
674.413520,0.132337
674.724220,0.132849
675.034880,0.131646
675.345500,0.128738
675.656080,0.131760
675.966620,0.133503
676.277120,0.134383
676.587580,0.131075
676.898000,0.129153
677.208380,0.132717
677.518720,0.129468
677.829020,0.135625
678.139280,0.129355
678.449500,0.135537
678.759680,0.137505
679.069820,0.131970
679.379920,0.130894
679.689980,0.131452
680.000000,0.127850
680.309980,0.129547
680.619920,0.127982
680.929820,0.129899
681.239680,0.132201
681.549500,0.141852
681.859280,0.137789
682.169020,0.134651
682.478720,0.139117
682.788380,0.132890
683.098000,0.135004
683.407580,0.136961
683.717120,0.137012
684.026620,0.132530
684.336080,0.132626
684.645500,0.130939
684.954880,0.135625
685.264220,0.136655
685.573520,0.141226
685.882780,0.141542
686.192000,0.137321
686.501180,0.135074
686.810320,0.136434
687.119420,0.137590
687.428480,0.134827
687.737500,0.138143
688.046480,0.137653
688.355420,0.138061
688.664320,0.140015
688.973180,0.138208
689.282000,0.141204
689.590780,0.140721
689.899520,0.140144
690.208220,0.142584
690.516880,0.142421
690.825500,0.140755
691.134080,0.136674
691.442620,0.139101
691.751120,0.145620
692.059580,0.139473
692.368000,0.143885
692.676380,0.145038
692.984720,0.145802
693.293020,0.138298
693.601280,0.140023
693.909500,0.139992
694.217680,0.138995
694.525820,0.142041
694.833920,0.139260
695.141980,0.143078
695.450000,0.138168
695.757980,0.142857
696.065920,0.144078
696.373820,0.143572
696.681680,0.142309
696.989500,0.146662
697.297280,0.140023
697.605020,0.149603
697.912720,0.142967
698.220380,0.143644
698.528000,0.148734
698.835580,0.144607
699.143120,0.146921
699.450620,0.148369
699.758080,0.143529
700.065500,0.148444
700.372880,0.152400
700.680220,0.146789
700.987520,0.149603
701.294780,0.144363
701.602000,0.145404
701.909180,0.147854
702.216320,0.144310
702.523420,0.148777
702.830480,0.151683
703.137500,0.146532
703.444480,0.151085
703.751420,0.149901
704.058320,0.153937
704.365180,0.150631
704.672000,0.152871
704.978780,0.144752
705.285520,0.150626
705.592220,0.148235
705.898880,0.154058
706.205500,0.151408
706.512080,0.148499
706.818620,0.151703
707.125120,0.151154
707.431580,0.154357
707.738000,0.156641
708.044380,0.150135
708.350720,0.151318
708.657020,0.157874
708.963280,0.149845
709.269500,0.155382
709.575680,0.154028
709.881820,0.151730
710.187920,0.152529
710.493980,0.153220
710.800000,0.157132
711.105980,0.155120
711.411920,0.152937
711.717820,0.153996
712.023680,0.153517
712.329500,0.152997
712.635280,0.159302
712.941020,0.159644
713.246720,0.157312
713.552380,0.159733
713.858000,0.160032
714.163580,0.156275
714.469120,0.153576
714.774620,0.161469
715.080080,0.155084
715.385500,0.159073
715.690880,0.159763
715.996220,0.161648
716.301520,0.161265
716.606780,0.159198
716.912000,0.163166
717.217180,0.162410
717.522320,0.165805
717.827420,0.163548
718.132480,0.162585
718.437500,0.161843
718.742480,0.164919
719.047420,0.163835
719.352320,0.169780
719.657180,0.168438
719.962000,0.168734
720.266780,0.159950
720.571520,0.168186
720.876220,0.165712
721.180880,0.159699
721.485500,0.166736
721.790080,0.167728
722.094620,0.168525
722.399120,0.168893
722.703580,0.171024
723.008000,0.172919
723.312380,0.172191
723.616720,0.166171
723.921020,0.170204
724.225280,0.166667
724.529500,0.169877
724.833680,0.181050
725.137820,0.162115
725.441920,0.168524
725.745980,0.169128
726.050000,0.172756
726.353980,0.168544
726.657920,0.170040
726.961820,0.170776
727.265680,0.168285
727.569500,0.170932
727.873280,0.168591
728.177020,0.175956
728.480720,0.171759
728.784380,0.176139
729.088000,0.176166
729.391580,0.175746
729.695120,0.176583
729.998620,0.177342
730.302080,0.180202
730.605500,0.174187
730.908880,0.172464
731.212220,0.171890
731.515520,0.176987
731.818780,0.175243
732.122000,0.176673
732.425180,0.173484
732.728320,0.177987
733.031420,0.175940
733.334480,0.175000
733.637500,0.175907
733.940480,0.179120
734.243420,0.181957
734.546320,0.183091
734.849180,0.181302
735.152000,0.182054
735.454780,0.184401
735.757520,0.177555
736.060220,0.180621
736.362880,0.181197
736.665500,0.184856
736.968080,0.190220
737.270620,0.181818
737.573120,0.184498
737.875580,0.190764
738.178000,0.189439
738.480380,0.185405
738.782720,0.184842
739.085020,0.183370
739.387280,0.189024
739.689500,0.187995
739.991680,0.188097
740.293820,0.185185
740.595920,0.191987
740.897980,0.194805
741.200000,0.187886
741.501980,0.195415
741.803920,0.192005
742.105820,0.187253
742.407680,0.188701
742.709500,0.186932
743.011280,0.188746
743.313020,0.198841
743.614720,0.190946
743.916380,0.186628
744.218000,0.193914
744.519580,0.199275
744.821120,0.195808
745.122620,0.192331
745.424080,0.195312
745.725500,0.198552
746.026880,0.197660
746.328220,0.193588
746.629520,0.186635
746.930780,0.193627
747.232000,0.192520
747.533180,0.201952
747.834320,0.198418
748.135420,0.193909
748.436480,0.199002
748.737500,0.195182
749.038480,0.201588
749.339420,0.204729
749.640320,0.200503
749.941180,0.199875
750.242000,0.199749
750.542780,0.202233
750.843520,0.208840
751.144220,0.201923
751.444880,0.204185
751.745500,0.201299
752.046080,0.207184
752.346620,0.197165
752.647120,0.201176
752.947580,0.206339
753.248000,0.202450
753.548380,0.201692
753.848720,0.207985
754.149020,0.199871
754.449280,0.206829
754.749500,0.198407
755.049680,0.205333
755.349820,0.206137
755.649920,0.218771
755.949980,0.209688
756.250000,0.211703
756.549980,0.203300
756.849920,0.213460
757.149820,0.206254
757.449680,0.213201
757.749500,0.214724
758.049280,0.212969
758.349020,0.214882
758.648720,0.217391
758.948380,0.214433
759.248000,0.216307
759.547580,0.213181
759.847120,0.219159
760.146620,0.218539
760.446080,0.213710
760.745500,0.213287
761.044880,0.219460
761.344220,0.215966
761.643520,0.221045
761.942780,0.222533
762.242000,0.221358
762.541180,0.215493
762.840320,0.217697
763.139420,0.218003
763.438480,0.220096
763.737500,0.214335
764.036480,0.216632
764.335420,0.211715
764.634320,0.215523
764.933180,0.223973
765.232000,0.215822
765.530780,0.223158
765.829520,0.227972
766.128220,0.230341
766.426880,0.223881
766.725500,0.220014
767.024080,0.223594
767.322620,0.230290
767.621120,0.223577
767.919580,0.218430
768.218000,0.229138
768.516380,0.225828
768.814720,0.224280
769.113020,0.234321
769.411280,0.224448
769.709500,0.223275
770.007680,0.224949
770.305820,0.228533
770.603920,0.223046
770.901980,0.225410
771.200000,0.233016
771.497980,0.228552
771.795920,0.230100
772.093820,0.231952
772.391680,0.234015
772.689500,0.228378
772.987280,0.241751
773.285020,0.235817
773.582720,0.235811
773.880380,0.242279
774.178000,0.233810
774.475580,0.239116
774.773120,0.228246
775.070620,0.232590
775.368080,0.236473
775.665500,0.235057
775.962880,0.242161
776.260220,0.246299
776.557520,0.237492
776.854780,0.247465
777.152000,0.230769
777.449180,0.240054
777.746320,0.223118
778.043420,0.235334
778.340480,0.240189
778.637500,0.244760
778.934480,0.241426
779.231420,0.242877
779.528320,0.239145
779.825180,0.239130
780.122000,0.241700
780.418780,0.257866
780.715520,0.243461
781.012220,0.248630
781.308880,0.254226
781.605500,0.250685
781.902080,0.245038
782.198620,0.244703
782.495120,0.246228
782.791580,0.249656
783.088000,0.250518
783.384380,0.257909
783.680720,0.250342
783.977020,0.250516
784.273280,0.247552
784.569500,0.251572
784.865680,0.248261
785.161820,0.255556
785.457920,0.248787
785.753980,0.251221
786.050000,0.252762
786.345980,0.258333
786.641920,0.260930
786.937820,0.261396
787.233680,0.248434
787.529500,0.255895
787.825280,0.257082
788.121020,0.255666
788.416720,0.255469
788.712380,0.261636
789.008000,0.252125
789.303580,0.260071
789.599120,0.264000
789.894620,0.259928
790.190080,0.254532
790.485500,0.267099
790.780880,0.263799
791.076220,0.267677
791.371520,0.257081
791.666780,0.274909
791.962000,0.263042
792.257180,0.264275
792.552320,0.265410
792.847420,0.270742
793.142480,0.262271
793.437500,0.272069
793.732480,0.265545
794.027420,0.263353
794.322320,0.268456
794.617180,0.265230
794.912000,0.268202
795.206780,0.263236
795.501520,0.270722
795.796220,0.265185
796.090880,0.272042
796.385500,0.269115
796.680080,0.267016
796.974620,0.270210
797.269120,0.266465
797.563580,0.270229
797.858000,0.270311
798.152380,0.270688
798.446720,0.274615
798.741020,0.278891
799.035280,0.273292
799.329500,0.275597
799.623680,0.279070
