399.985280,0.351351
400.329500,0.459459
400.673680,0.291139
401.017820,0.397059
401.361920,0.393939
401.705980,0.378049
402.050000,0.337662
402.393980,0.423529
402.737920,0.404494
403.081820,0.402062
403.425680,0.383721
403.769500,0.291667
404.113280,0.367816
404.457020,0.449438
404.800720,0.391304
405.144380,0.404040
405.488000,0.322581
405.831580,0.391753
406.175120,0.372340
406.518620,0.410000
406.862080,0.391753
407.205500,0.364583
407.548880,0.346939
407.892220,0.401961
408.235520,0.393617
408.578780,0.400000
408.922000,0.413462
409.265180,0.434343
409.608320,0.404040
409.951420,0.536082
410.294480,0.441176
410.637500,0.369565
410.980480,0.401961
411.323420,0.418367
411.666320,0.357798
412.009180,0.400000
412.352000,0.326733
412.694780,0.403670
413.037520,0.385321
413.380220,0.459459
413.722880,0.419643
414.065500,0.450450
414.408080,0.442478
414.750620,0.398230
415.093120,0.363636
415.435580,0.436975
415.778000,0.416667
416.120380,0.403361
416.462720,0.380952
416.805020,0.421053
417.147280,0.417910
417.489500,0.435714
417.831680,0.390411
418.173820,0.439716
418.515920,0.475524
418.857980,0.398734
419.200000,0.423077
419.541980,0.455621
419.883920,0.398876
420.225820,0.445087
420.567680,0.435754
420.909500,0.404372
421.251280,0.437500
421.593020,0.418367
421.934720,0.424242
422.276380,0.456410
422.618000,0.450980
422.959580,0.441176
423.301120,0.474886
423.642620,0.439130
423.984080,0.437209
424.325500,0.434978
424.666880,0.418103
425.008220,0.420168
425.349520,0.444915
425.690780,0.423077
426.032000,0.411765
426.373180,0.431535
426.714320,0.425781
427.055420,0.409266
427.396480,0.426966
427.737500,0.415020
428.078480,0.434783
428.419420,0.429719
428.760320,0.432950
429.101180,0.464567
429.442000,0.452107
429.782780,0.446154
430.123520,0.447059
430.464220,0.431734
430.804880,0.475096
431.145500,0.425455
431.486080,0.445693
431.826620,0.457364
432.167120,0.433824
432.507580,0.442029
432.848000,0.435252
433.188380,0.458484
433.528720,0.452830
433.869020,0.439286
434.209280,0.400000
434.549500,0.449477
434.889680,0.427609
435.229820,0.436860
435.569920,0.411765
435.909980,0.414239
436.250000,0.450847
436.589980,0.402477
436.929920,0.463492
437.269820,0.429467
437.609680,0.426036
437.949500,0.418675
438.289280,0.413598
438.629020,0.444767
438.968720,0.430233
439.308380,0.436314
439.648000,0.454795
439.987580,0.433862
440.327120,0.440000
440.666620,0.457143
441.006080,0.439898
441.345500,0.442260
441.684880,0.435407
442.024220,0.426799
442.363520,0.442857
442.702780,0.434091
443.042000,0.444934
443.381180,0.431034
443.720320,0.462203
444.059420,0.434874
444.398480,0.435146
444.737500,0.436475
445.076480,0.414683
445.415420,0.443114
445.754320,0.438669
446.093180,0.433028
446.432000,0.456767
446.770780,0.440228
447.109520,0.443015
447.448220,0.440072
447.786880,0.441860
448.125500,0.446552
448.464080,0.430357
448.802620,0.445035
449.141120,0.425606
449.479580,0.431818
449.818000,0.440620
450.156380,0.434783
450.494720,0.433058
450.833020,0.435315
451.171280,0.445205
451.509500,0.444251
451.847680,0.433390
452.185820,0.437177
452.523920,0.441581
452.861980,0.441821
453.200000,0.435216
453.537980,0.421849
453.875920,0.420168
454.213820,0.441781
454.551680,0.425497
454.889500,0.418212
455.227280,0.411032
455.565020,0.450586
455.902720,0.462562
456.240380,0.424293
456.578000,0.454704
456.915580,0.428325
457.253120,0.425987
457.590620,0.438424
457.928080,0.422559
458.265500,0.430743
458.602880,0.433442
458.940220,0.426396
459.277520,0.425600
459.614780,0.446809
459.952000,0.423913
460.289180,0.425633
460.626320,0.429921
460.963420,0.423263
461.300480,0.418960
461.637500,0.428351
461.974480,0.441896
462.311420,0.420268
462.648320,0.409956
462.985180,0.416069
463.322000,0.438988
463.658780,0.414365
463.995520,0.426410
464.332220,0.418283
464.668880,0.423387
465.005500,0.427614
465.342080,0.419974
465.678620,0.419434
466.015120,0.428202
466.351580,0.431100
466.688000,0.422655
467.024380,0.419198
467.360720,0.428409
467.697020,0.430524
468.033280,0.416667
468.369500,0.421634
468.705680,0.427283
469.041820,0.410417
469.377920,0.418655
469.713980,0.420185
470.050000,0.413527
470.385980,0.419765
470.721920,0.415279
471.057820,0.420078
471.393680,0.415341
471.729500,0.419833
472.065280,0.413238
472.401020,0.421099
472.736720,0.427574
473.072380,0.405745
473.408000,0.409051
473.743580,0.402249
474.079120,0.422050
474.414620,0.409669
474.750080,0.410903
475.085500,0.407895
475.420880,0.402998
475.756220,0.406378
476.091520,0.410912
476.426780,0.410194
476.762000,0.392599
477.097180,0.407200
477.432320,0.411147
477.767420,0.397059
478.102480,0.403937
478.437500,0.404762
478.772480,0.402679
479.107420,0.399512
479.442320,0.409273
479.777180,0.400955
480.112000,0.399846
480.446780,0.392829
480.781520,0.400161
481.116220,0.412288
481.450880,0.392662
481.785500,0.402690
482.120080,0.416144
482.454620,0.394716
482.789120,0.402070
483.123580,0.394081
483.458000,0.393987
483.792380,0.400160
484.126720,0.391506
484.461020,0.391881
484.795280,0.391673
485.129500,0.399065
485.463680,0.393798
485.797820,0.387247
486.131920,0.388676
486.465980,0.397683
486.800000,0.393130
487.133980,0.387462
487.467920,0.397093
487.801820,0.385965
488.135680,0.388173
488.469500,0.382753
488.803280,0.390788
489.137020,0.380220
489.470720,0.390208
489.804380,0.390497
490.138000,0.393917
490.471580,0.389831
490.805120,0.385990
491.138620,0.382374
491.472080,0.381625
491.805500,0.372385
492.138880,0.384295
492.472220,0.383391
492.805520,0.379888
493.138780,0.374225
493.472000,0.380602
493.805180,0.381310
494.138320,0.382255
494.471420,0.377604
494.804480,0.378396
495.137500,0.385109
495.470480,0.385596
495.803420,0.379093
496.136320,0.381579
496.469180,0.369552
496.802000,0.364914
497.134780,0.368102
497.467520,0.377370
497.800220,0.367925
498.132880,0.360376
498.465500,0.363268
498.798080,0.366438
499.130620,0.359349
499.463120,0.371701
499.795580,0.359186
500.128000,0.361308
500.460380,0.361141
500.792720,0.357900
501.125020,0.360483
501.457280,0.366580
501.789500,0.356921
502.121680,0.369622
502.453820,0.353391
502.785920,0.364682
503.117980,0.360157
503.450000,0.368157
503.781980,0.355755
504.113920,0.348981
504.445820,0.350510
504.777680,0.355765
505.109500,0.355769
505.441280,0.354207
505.773020,0.351808
506.104720,0.354687
506.436380,0.351633
506.768000,0.348924
507.099580,0.340961
507.431120,0.352693
507.762620,0.346335
508.094080,0.345032
508.425500,0.348739
508.756880,0.345679
509.088220,0.352346
509.419520,0.346369
509.750780,0.347704
510.082000,0.337220
510.413180,0.340857
510.744320,0.337782
511.075420,0.343721
511.406480,0.342266
511.737500,0.336574
512.068480,0.339756
512.399420,0.335211
512.730320,0.326559
513.061180,0.333968
513.392000,0.334122
513.722780,0.338617
514.053520,0.335889
514.384220,0.332540
514.714880,0.336525
515.045500,0.334770
515.376080,0.329298
515.706620,0.329761
516.037120,0.333333
516.367580,0.318876
516.698000,0.329902
517.028380,0.325223
517.358720,0.328395
517.689020,0.323937
518.019280,0.322629
518.349500,0.318297
518.679680,0.326098
519.009820,0.325405
519.339920,0.322645
519.669980,0.315922
520.000000,0.321447
520.329980,0.319336
520.659920,0.314417
520.989820,0.308050
521.319680,0.320988
521.649500,0.316195
521.979280,0.316284
522.309020,0.311203
522.638720,0.311828
522.968380,0.311272
523.298000,0.308455
523.627580,0.308329
523.957120,0.311169
524.286620,0.310578
524.616080,0.310238
524.945500,0.308010
525.274880,0.309903
525.604220,0.302277
525.933520,0.301887
526.262780,0.299037
526.592000,0.304414
526.921180,0.305231
527.250320,0.295282
527.579420,0.304699
527.908480,0.301329
528.237500,0.299901
528.566480,0.297904
528.895420,0.296205
529.224320,0.298167
529.553180,0.297349
529.882000,0.307056
530.210780,0.292471
530.539520,0.296261
530.868220,0.295357
531.196880,0.284281
531.525500,0.296368
531.854080,0.287054
532.182620,0.284447
532.511120,0.286775
532.839580,0.294011
533.168000,0.283956
533.496380,0.286301
533.824720,0.283535
534.153020,0.282657
534.481280,0.285463
534.809500,0.287159
535.137680,0.284288
535.465820,0.277921
535.793920,0.278765
536.121980,0.275703
536.450000,0.280338
536.777980,0.277755
537.105920,0.280614
537.433820,0.274959
537.761680,0.278776
538.089500,0.288547
538.417280,0.278949
538.745020,0.276149
539.072720,0.274112
539.400380,0.271950
539.728000,0.278011
540.055580,0.267416
540.383120,0.267684
540.710620,0.271577
541.038080,0.271118
541.365500,0.270956
541.692880,0.267442
542.020220,0.263764
542.347520,0.271716
542.674780,0.261821
543.002000,0.259972
543.329180,0.267625
543.656320,0.269339
543.983420,0.263590
544.310480,0.260279
544.637500,0.261344
544.964480,0.264132
545.291420,0.258558
545.618320,0.255976
545.945180,0.257416
546.272000,0.252621
546.598780,0.256309
546.925520,0.252226
547.252220,0.259492
547.578880,0.252851
547.905500,0.254575
548.232080,0.254711
548.558620,0.253173
548.885120,0.253844
549.211580,0.253616
549.538000,0.249351
549.864380,0.254662
550.190720,0.247982
550.517020,0.254237
550.843280,0.253094
551.169500,0.241412
551.495680,0.244744
551.821820,0.249184
552.147920,0.239427
552.473980,0.245966
552.800000,0.241988
553.125980,0.240013
553.451920,0.241208
553.777820,0.239840
554.103680,0.242669
554.429500,0.236358
554.755280,0.237984
555.081020,0.236631
555.406720,0.233999
555.732380,0.232125
556.058000,0.232179
556.383580,0.234166
556.709120,0.233632
557.034620,0.233896
557.360080,0.230397
557.685500,0.230290
558.010880,0.230156
558.336220,0.225308
558.661520,0.232542
558.986780,0.230333
559.312000,0.227920
559.637180,0.225135
559.962320,0.222499
560.287420,0.225670
560.612480,0.225691
560.937500,0.224302
561.262480,0.223607
561.587420,0.221618
561.912320,0.215549
562.237180,0.222058
562.562000,0.220352
562.886780,0.219249
563.211520,0.217213
563.536220,0.219295
563.860880,0.218031
564.185500,0.215760
564.510080,0.215952
564.834620,0.217715
565.159120,0.211278
565.483580,0.211707
565.808000,0.211880
566.132380,0.209996
566.456720,0.208617
566.781020,0.208177
567.105280,0.207940
567.429500,0.210546
567.753680,0.207135
568.077820,0.207963
568.401920,0.210084
568.725980,0.205693
569.050000,0.208745
569.373980,0.202512
569.697920,0.204399
570.021820,0.206367
570.345680,0.202449
570.669500,0.204502
570.993280,0.205242
571.317020,0.202046
571.640720,0.203779
571.964380,0.202301
572.288000,0.204377
572.611580,0.201797
572.935120,0.201272
573.258620,0.203067
573.582080,0.203055
573.905500,0.194341
574.228880,0.196733
574.552220,0.198608
574.875520,0.198064
575.198780,0.195519
575.522000,0.193548
575.845180,0.191619
576.168320,0.192598
576.491420,0.194041
576.814480,0.194213
577.137500,0.195527
577.460480,0.195723
577.783420,0.190068
578.106320,0.194444
578.429180,0.188052
578.752000,0.186523
579.074780,0.190155
579.397520,0.187540
579.720220,0.188224
580.042880,0.187314
580.365500,0.185639
580.688080,0.188942
581.010620,0.183260
581.333120,0.186373
581.655580,0.184149
581.978000,0.188227
582.300380,0.187277
582.622720,0.183586
582.945020,0.185306
583.267280,0.185607
583.589500,0.182665
583.911680,0.181327
584.233820,0.181933
584.555920,0.182792
584.877980,0.177450
585.200000,0.176489
585.521980,0.178560
585.843920,0.179378
586.165820,0.177940
586.487680,0.176648
586.809500,0.177618
587.131280,0.176575
587.453020,0.174107
587.774720,0.176523
588.096380,0.178821
588.418000,0.175007
588.739580,0.174475
589.061120,0.176251
589.382620,0.172493
589.704080,0.173072
590.025500,0.173801
590.346880,0.171445
590.668220,0.174741
590.989520,0.169717
591.310780,0.172604
591.632000,0.170492
591.953180,0.172710
592.274320,0.170625
592.595420,0.167834
592.916480,0.168704
593.237500,0.171113
593.558480,0.167070
593.879420,0.169409
594.200320,0.169301
594.521180,0.166003
594.842000,0.170070
595.162780,0.166400
595.483520,0.161393
595.804220,0.165951
596.124880,0.165201
596.445500,0.162169
596.766080,0.167249
597.086620,0.162951
597.407120,0.160348
597.727580,0.160170
598.048000,0.164771
598.368380,0.161231
598.688720,0.158060
599.009020,0.162686
599.329280,0.156466
599.649500,0.161912
599.969680,0.155983
600.289820,0.156517
600.609920,0.156826
600.929980,0.156601
601.250000,0.157838
601.569980,0.157170
601.889920,0.156108
602.209820,0.156926
602.529680,0.158748
602.849500,0.154937
603.169280,0.156517
603.489020,0.156933
603.808720,0.155513
604.128380,0.155077
604.448000,0.155249
604.767580,0.155028
605.087120,0.153463
605.406620,0.155332
605.726080,0.154548
606.045500,0.147673
606.364880,0.153388
606.684220,0.155625
607.003520,0.150516
607.322780,0.148380
607.642000,0.150201
607.961180,0.151778
608.280320,0.153712
608.599420,0.144554
608.918480,0.148387
609.237500,0.151408
609.556480,0.151228
609.875420,0.152097
610.194320,0.147623
610.513180,0.149157
610.832000,0.150089
611.150780,0.145990
611.469520,0.146606
611.788220,0.143894
612.106880,0.145959
612.425500,0.146772
612.744080,0.145891
613.062620,0.146789
613.381120,0.147776
613.699580,0.144697
614.018000,0.141892
614.336380,0.141579
614.654720,0.140155
614.973020,0.137920
615.291280,0.140068
615.609500,0.141046
615.927680,0.143078
616.245820,0.143476
616.563920,0.143301
616.881980,0.142813
617.200000,0.140280
617.517980,0.139079
617.835920,0.136999
618.153820,0.140504
618.471680,0.137364
618.789500,0.137508
619.107280,0.140532
619.425020,0.142404
619.742720,0.137476
620.060380,0.139455
620.378000,0.140340
620.695580,0.135696
621.013120,0.138898
621.330620,0.137433
621.648080,0.139117
621.965500,0.135194
622.282880,0.139975
622.600220,0.141188
622.917520,0.137366
623.234780,0.138862
623.552000,0.136537
623.869180,0.138040
624.186320,0.134670
624.503420,0.138558
624.820480,0.137606
625.137500,0.135144
625.454480,0.134417
625.771420,0.136507
626.088320,0.134931
626.405180,0.139079
626.722000,0.138645
627.038780,0.136591
627.355520,0.138437
627.672220,0.134992
627.988880,0.134992
628.305500,0.137426
628.622080,0.139405
628.938620,0.135168
629.255120,0.138146
629.571580,0.137297
629.888000,0.136852
630.204380,0.134397
630.520720,0.134065
630.837020,0.135985
631.153280,0.134592
631.469500,0.135840
631.785680,0.135925
632.101820,0.134801
632.417920,0.133830
632.733980,0.131753
633.050000,0.138872
633.365980,0.134558
633.681920,0.134248
633.997820,0.133293
634.313680,0.131820
634.629500,0.134769
634.945280,0.132551
635.261020,0.136190
635.576720,0.136524
635.892380,0.133604
636.208000,0.135096
636.523580,0.135633
636.839120,0.130573
637.154620,0.131594
637.470080,0.130560
637.785500,0.136870
638.100880,0.132349
638.416220,0.134311
638.731520,0.133238
639.046780,0.129916
639.362000,0.131307
639.677180,0.132210
639.992320,0.134198
640.307420,0.133745
640.622480,0.130496
640.937500,0.131207
641.252480,0.132365
641.567420,0.130151
641.882320,0.132517
642.197180,0.133633
642.512000,0.132942
642.826780,0.131207
643.141520,0.130592
643.456220,0.129496
643.770880,0.132117
644.085500,0.129681
644.400080,0.131461
644.714620,0.133501
645.029120,0.132563
645.343580,0.134120
645.658000,0.133777
645.972380,0.135106
646.286720,0.131916
646.601020,0.132577
646.915280,0.135454
647.229500,0.130495
647.543680,0.135598
647.857820,0.131021
648.171920,0.131308
648.485980,0.134557
648.800000,0.133095
649.113980,0.131652
649.427920,0.136477
649.741820,0.133278
650.055680,0.133571
650.369500,0.132848
650.683280,0.132630
650.997020,0.132288
651.310720,0.133737
651.624380,0.130769
651.938000,0.131025
652.251580,0.132480
652.565120,0.134153
652.878620,0.134572
653.192080,0.131461
653.505500,0.137167
653.818880,0.131931
654.132220,0.133580
654.445520,0.134430
654.758780,0.135977
655.072000,0.135244
655.385180,0.131241
655.698320,0.130895
656.011420,0.130983
656.324480,0.132906
656.637500,0.133256
656.950480,0.130652
657.263420,0.133314
657.576320,0.133116
657.889180,0.135358
658.202000,0.128623
658.514780,0.133075
658.827520,0.137455
659.140220,0.134252
659.452880,0.135307
659.765500,0.128537
660.078080,0.134216
660.390620,0.133211
660.703120,0.135655
661.015580,0.133742
661.328000,0.135705
661.640380,0.135446
661.952720,0.134849
662.265020,0.133270
662.577280,0.137087
662.889500,0.136235
663.201680,0.138162
663.513820,0.131875
663.825920,0.133525
664.137980,0.137039
664.450000,0.131074
664.761980,0.134861
665.073920,0.135670
665.385820,0.135471
665.697680,0.135207
666.009500,0.135351
666.321280,0.135520
666.633020,0.139295
666.944720,0.135153
667.256380,0.139637
667.568000,0.133492
667.879580,0.136054
668.191120,0.135646
668.502620,0.138309
668.814080,0.140351
669.125500,0.136846
669.436880,0.136238
669.748220,0.138456
670.059520,0.135154
670.370780,0.138135
670.682000,0.138407
670.993180,0.142354
671.304320,0.134318
671.615420,0.136719
671.926480,0.140170
672.237500,0.137906
672.548480,0.140525
672.859420,0.141887
673.170320,0.145448
673.481180,0.138306
673.792000,0.142806
674.102780,0.137163
674.413520,0.133431
674.724220,0.140109
675.034880,0.143014
675.345500,0.144055
675.656080,0.140472
675.966620,0.142597
676.277120,0.144636
676.587580,0.146171
676.898000,0.141471
677.208380,0.144917
677.518720,0.139679
677.829020,0.143016
678.139280,0.139362
678.449500,0.142963
678.759680,0.141626
679.069820,0.143866
679.379920,0.143719
679.689980,0.148533
680.000000,0.140187
680.309980,0.137713
680.619920,0.144642
680.929820,0.147443
681.239680,0.143279
681.549500,0.143704
681.859280,0.145631
682.169020,0.146960
682.478720,0.149215
682.788380,0.148394
683.098000,0.146597
683.407580,0.144841
683.717120,0.145270
684.026620,0.148343
684.336080,0.145131
684.645500,0.145155
684.954880,0.146959
685.264220,0.149868
685.573520,0.153407
685.882780,0.152666
686.192000,0.149737
686.501180,0.150965
686.810320,0.152191
687.119420,0.150513
687.428480,0.151538
687.737500,0.152341
688.046480,0.146089
688.355420,0.152395
688.664320,0.146519
688.973180,0.151608
689.282000,0.153549
689.590780,0.152607
689.899520,0.147740
690.208220,0.156728
690.516880,0.157694
690.825500,0.153585
691.134080,0.150342
691.442620,0.153201
691.751120,0.153204
692.059580,0.157050
692.368000,0.151079
692.676380,0.154580
692.984720,0.157634
693.293020,0.156535
693.601280,0.154903
693.909500,0.149451
694.217680,0.153846
694.525820,0.156131
694.833920,0.156429
695.141980,0.158504
695.450000,0.157252
695.757980,0.156226
696.065920,0.160000
696.373820,0.157044
696.681680,0.158036
696.989500,0.160170
697.297280,0.159082
697.605020,0.161508
697.912720,0.159877
698.220380,0.156238
698.528000,0.164161
698.835580,0.162386
699.143120,0.160171
699.450620,0.160302
699.758080,0.162353
700.065500,0.162011
700.372880,0.162000
700.680220,0.163542
700.987520,0.165476
701.294780,0.165450
701.602000,0.167987
701.909180,0.168919
702.216320,0.159562
702.523420,0.164562
702.830480,0.165545
703.137500,0.161341
703.444480,0.173964
703.751420,0.163314
704.058320,0.164622
704.365180,0.167192
704.672000,0.171485
704.978780,0.165041
705.285520,0.166275
705.592220,0.165882
705.898880,0.168243
706.205500,0.167058
706.512080,0.170221
706.818620,0.171053
707.125120,0.170000
707.431580,0.165299
707.738000,0.168359
708.044380,0.172906
708.350720,0.170424
708.657020,0.173114
708.963280,0.176630
709.269500,0.175342
709.575680,0.176424
709.881820,0.173742
710.187920,0.173541
710.493980,0.174554
710.800000,0.174294
711.105980,0.168675
711.411920,0.172251
711.717820,0.175439
712.023680,0.173727
712.329500,0.179416
712.635280,0.181395
712.941020,0.173174
713.246720,0.172332
713.552380,0.175824
713.858000,0.172645
714.163580,0.174033
714.469120,0.175459
714.774620,0.179629
715.080080,0.182175
715.385500,0.183453
715.690880,0.177909
715.996220,0.179873
716.301520,0.179447
716.606780,0.181211
716.912000,0.186995
717.217180,0.190742
717.522320,0.182107
717.827420,0.185924
718.132480,0.180650
718.437500,0.184264
718.742480,0.183468
719.047420,0.184061
719.352320,0.186800
719.657180,0.185609
719.962000,0.183623
720.266780,0.181554
720.571520,0.188484
720.876220,0.185352
721.180880,0.185619
721.485500,0.185541
721.790080,0.188110
722.094620,0.189537
722.399120,0.190435
722.703580,0.188598
723.008000,0.185425
723.312380,0.191132
723.616720,0.189970
723.921020,0.190992
724.225280,0.188918
724.529500,0.186077
724.833680,0.190836
725.137820,0.195595
725.441920,0.187249
725.745980,0.198210
726.050000,0.189445
726.353980,0.189725
726.657920,0.187135
726.961820,0.198630
727.265680,0.193712
727.569500,0.196527
727.873280,0.192148
728.177020,0.199447
728.480720,0.206019
728.784380,0.200094
729.088000,0.195007
729.391580,0.199905
729.695120,0.200096
729.998620,0.197419
730.302080,0.202307
730.605500,0.195051
730.908880,0.197942
731.212220,0.204212
731.515520,0.200390
731.818780,0.198544
732.122000,0.196850
732.425180,0.203549
732.728320,0.199306
733.031420,0.198496
733.334480,0.203571
733.637500,0.198085
733.940480,0.205732
734.243420,0.204893
734.546320,0.204876
734.849180,0.206612
735.152000,0.203320
735.454780,0.200930
735.757520,0.207587
736.060220,0.204318
736.362880,0.211134
736.665500,0.204178
736.968080,0.212789
737.270620,0.209036
737.573120,0.207969
737.875580,0.215503
738.178000,0.209581
738.480380,0.204324
738.782720,0.211014
739.085020,0.209251
739.387280,0.207871
739.689500,0.210646
739.991680,0.211117
740.293820,0.211166
740.595920,0.215915
740.897980,0.216827
741.200000,0.213685
741.501980,0.210888
741.803920,0.208896
742.105820,0.213762
742.407680,0.212580
742.709500,0.209659
743.011280,0.217468
743.313020,0.214493
743.614720,0.212420
743.916380,0.210465
744.218000,0.217184
744.519580,0.219203
744.821120,0.220958
745.122620,0.215698
745.424080,0.207933
745.725500,0.216657
746.026880,0.220443
746.328220,0.217633
746.629520,0.216135
746.930780,0.218750
747.232000,0.218884
747.533180,0.223917
747.834320,0.225198
748.135420,0.226849
748.436480,0.227074
748.737500,0.219271
749.038480,0.218082
749.339420,0.225264
749.640320,0.233187
749.941180,0.226733
750.242000,0.224246
750.542780,0.230149
750.843520,0.235106
751.144220,0.228846
751.444880,0.227013
751.745500,0.229221
752.046080,0.232842
752.346620,0.220361
752.647120,0.234487
752.947580,0.239974
753.248000,0.230819
753.548380,0.236174
753.848720,0.245332
754.149020,0.221792
754.449280,0.237689
754.749500,0.240212
755.049680,0.230667
755.349820,0.238826
755.649920,0.235955
755.949980,0.230922
756.250000,0.236686
756.549980,0.229703
756.849920,0.237933
757.149820,0.236194
757.449680,0.241584
757.749500,0.241990
758.049280,0.238225
758.349020,0.243394
758.648720,0.243616
758.948380,0.243986
759.248000,0.237871
759.547580,0.237391
759.847120,0.236389
760.146620,0.248309
760.446080,0.244624
760.745500,0.240559
761.044880,0.241477
761.344220,0.237349
761.643520,0.240819
761.942780,0.241428
762.242000,0.246110
762.541180,0.245070
762.840320,0.248596
763.139420,0.244726
763.438480,0.246070
763.737500,0.238456
764.036480,0.248078
764.335420,0.242061
764.634320,0.246015
764.933180,0.242466
765.232000,0.245663
765.530780,0.249123
765.829520,0.253147
766.128220,0.254001
766.426880,0.250178
766.725500,0.248801
767.024080,0.257888
767.322620,0.253804
767.621120,0.244580
767.919580,0.254608
768.218000,0.253762
768.516380,0.252197
768.814720,0.256516
769.113020,0.257064
769.411280,0.261740
769.709500,0.267930
770.007680,0.251534
770.305820,0.267072
770.603920,0.258760
770.901980,0.264344
771.200000,0.259511
771.497980,0.254692
771.795920,0.258194
772.093820,0.252005
772.391680,0.264338
772.689500,0.259459
772.987280,0.259933
773.285020,0.265892
773.582720,0.258784
773.880380,0.271105
774.178000,0.271302
774.475580,0.271266
774.773120,0.261044
775.070620,0.271805
775.368080,0.269873
775.665500,0.263936
775.962880,0.272181
776.260220,0.266487
776.557520,0.263509
776.854780,0.266396
777.152000,0.260610
777.449180,0.266352
777.746320,0.262769
778.043420,0.272851
778.340480,0.267253
778.637500,0.275862
778.934480,0.272360
779.231420,0.264586
779.528320,0.264529
779.825180,0.272069
780.122000,0.274900
780.418780,0.279754
780.715520,0.266264
781.012220,0.276027
781.308880,0.281271
781.605500,0.276712
781.902080,0.278576
782.198620,0.280930
782.495120,0.281207
782.791580,0.284732
783.088000,0.276743
783.384380,0.278542
783.680720,0.281806
783.977020,0.278734
784.273280,0.291608
784.569500,0.287911
784.865680,0.285118
785.161820,0.281944
785.457920,0.286209
785.753980,0.280530
786.050000,0.273481
786.345980,0.283333
786.641920,0.281749
786.937820,0.287749
787.233680,0.286013
787.529500,0.283634
787.825280,0.293909
788.121020,0.287535
788.416720,0.294284
788.712380,0.289845
789.008000,0.283286
789.303580,0.284099
789.599120,0.290909
789.894620,0.288809
790.190080,0.290065
790.485500,0.292297
790.780880,0.290323
791.076220,0.297258
791.371520,0.288308
791.666780,0.300364
791.962000,0.298310
792.257180,0.300146
792.552320,0.295867
792.847420,0.298399
793.142480,0.302564
793.437500,0.295948
793.732480,0.306511
794.027420,0.293027
794.322320,0.299031
794.617180,0.299406
794.912000,0.301634
795.206780,0.296048
795.501520,0.308745
795.796220,0.294074
796.090880,0.309721
796.385500,0.304348
796.680080,0.303665
796.974620,0.299401
797.269120,0.305072
797.563580,0.301527
797.858000,0.309036
798.152380,0.310131
798.446720,0.302308
798.741020,0.305855
799.035280,0.303571
799.329500,0.300231
799.623680,0.314729
