399.985280,0.391892
400.329500,0.378378
400.673680,0.455696
401.017820,0.426471
401.361920,0.378788
401.705980,0.414634
402.050000,0.363636
402.393980,0.447059
402.737920,0.415730
403.081820,0.371134
403.425680,0.418605
403.769500,0.354167
404.113280,0.402299
404.457020,0.382022
404.800720,0.347826
405.144380,0.424242
405.488000,0.333333
405.831580,0.422680
406.175120,0.393617
406.518620,0.440000
406.862080,0.381443
407.205500,0.427083
407.548880,0.418367
407.892220,0.382353
408.235520,0.393617
408.578780,0.409524
408.922000,0.384615
409.265180,0.444444
409.608320,0.414141
409.951420,0.443299
410.294480,0.470588
410.637500,0.380435
410.980480,0.421569
411.323420,0.397959
411.666320,0.449541
412.009180,0.436364
412.352000,0.366337
412.694780,0.458716
413.037520,0.394495
413.380220,0.414414
413.722880,0.419643
414.065500,0.405405
414.408080,0.398230
414.750620,0.433628
415.093120,0.396694
415.435580,0.428571
415.778000,0.424242
416.120380,0.428571
416.462720,0.396825
416.805020,0.443609
417.147280,0.432836
417.489500,0.485714
417.831680,0.452055
418.173820,0.439716
418.515920,0.412587
418.857980,0.449367
419.200000,0.455128
419.541980,0.420118
419.883920,0.410112
420.225820,0.445087
420.567680,0.407821
420.909500,0.442623
421.251280,0.416667
421.593020,0.454082
421.934720,0.388889
422.276380,0.420513
422.618000,0.416667
422.959580,0.460784
423.301120,0.438356
423.642620,0.391304
423.984080,0.423256
424.325500,0.439462
424.666880,0.452586
425.008220,0.424370
425.349520,0.453390
425.690780,0.403846
426.032000,0.454902
426.373180,0.443983
426.714320,0.445312
427.055420,0.420849
427.396480,0.423221
427.737500,0.383399
428.078480,0.466403
428.419420,0.433735
428.760320,0.413793
429.101180,0.444882
429.442000,0.455939
429.782780,0.442308
430.123520,0.431373
430.464220,0.428044
430.804880,0.467433
431.145500,0.425455
431.486080,0.430712
431.826620,0.445736
432.167120,0.408088
432.507580,0.442029
432.848000,0.424460
433.188380,0.422383
433.528720,0.456604
433.869020,0.425000
434.209280,0.428070
434.549500,0.445993
434.889680,0.454545
435.229820,0.443686
435.569920,0.401384
435.909980,0.423948
436.250000,0.433898
436.589980,0.421053
436.929920,0.434921
437.269820,0.432602
437.609680,0.446746
437.949500,0.427711
438.289280,0.430595
438.629020,0.433140
438.968720,0.427326
439.308380,0.422764
439.648000,0.441096
439.987580,0.436508
440.327120,0.434667
440.666620,0.438961
441.006080,0.447570
441.345500,0.425061
441.684880,0.433014
442.024220,0.446650
442.363520,0.440476
442.702780,0.415909
443.042000,0.449339
443.381180,0.443966
443.720320,0.438445
444.059420,0.436975
444.398480,0.435146
444.737500,0.438525
445.076480,0.416667
445.415420,0.431138
445.754320,0.419958
446.093180,0.416514
446.432000,0.443609
446.770780,0.444023
447.109520,0.441176
447.448220,0.429338
447.786880,0.434705
448.125500,0.429310
448.464080,0.412500
448.802620,0.429078
449.141120,0.435986
449.479580,0.419580
449.818000,0.440620
450.156380,0.428094
450.494720,0.414876
450.833020,0.423077
451.171280,0.421233
451.509500,0.440767
451.847680,0.421585
452.185820,0.418244
452.523920,0.429553
452.861980,0.443508
453.200000,0.425249
453.537980,0.401681
453.875920,0.425210
454.213820,0.417808
454.551680,0.402318
454.889500,0.433390
455.227280,0.412811
455.565020,0.422111
455.902720,0.420965
456.240380,0.412646
456.578000,0.428571
456.915580,0.412781
457.253120,0.393092
457.590620,0.428571
457.928080,0.422559
458.265500,0.415541
458.602880,0.396104
458.940220,0.419628
459.277520,0.419200
459.614780,0.425532
459.952000,0.385093
460.289180,0.417722
460.626320,0.415748
460.963420,0.415186
461.300480,0.411315
461.637500,0.408320
461.974480,0.409786
462.311420,0.423249
462.648320,0.402635
462.985180,0.388809
463.322000,0.422619
463.658780,0.404696
463.995520,0.401651
464.332220,0.416898
464.668880,0.401882
465.005500,0.416890
465.342080,0.403329
465.678620,0.409594
466.015120,0.398448
466.351580,0.400759
466.688000,0.412911
467.024380,0.400972
467.360720,0.390909
467.697020,0.406606
468.033280,0.396667
468.369500,0.406181
468.705680,0.410372
469.041820,0.410417
469.377920,0.405640
469.713980,0.396498
470.050000,0.395169
470.385980,0.397260
470.721920,0.396670
471.057820,0.406433
471.393680,0.392891
471.729500,0.409639
472.065280,0.402504
472.401020,0.391844
472.736720,0.392670
473.072380,0.392280
473.408000,0.383812
473.743580,0.389273
474.079120,0.402239
474.414620,0.386768
474.750080,0.382425
475.085500,0.390625
475.420880,0.391341
475.756220,0.382666
476.091520,0.392157
476.426780,0.376214
476.762000,0.374899
477.097180,0.387200
477.432320,0.387722
477.767420,0.391340
478.102480,0.377953
478.437500,0.386700
478.772480,0.382191
479.107420,0.380797
479.442320,0.377298
479.777180,0.373906
480.112000,0.366718
480.446780,0.362432
480.781520,0.371981
481.116220,0.385610
481.450880,0.369243
481.785500,0.372627
482.120080,0.380878
482.454620,0.379176
482.789120,0.370223
483.123580,0.374611
483.458000,0.367089
483.792380,0.379393
484.126720,0.372973
484.461020,0.372365
484.795280,0.367001
485.129500,0.371785
485.463680,0.368217
485.797820,0.373250
486.131920,0.360367
486.465980,0.364479
486.800000,0.364885
487.133980,0.347432
487.467920,0.364193
487.801820,0.363082
488.135680,0.361638
488.469500,0.355522
488.803280,0.363299
489.137020,0.352381
489.470720,0.361276
489.804380,0.358575
490.138000,0.359792
490.471580,0.355932
490.805120,0.360257
491.138620,0.351812
491.472080,0.350530
491.805500,0.343794
492.138880,0.352328
492.472220,0.348097
492.805520,0.353352
493.138780,0.354238
493.472000,0.343144
493.805180,0.351978
494.138320,0.340227
494.471420,0.345703
494.804480,0.359638
495.137500,0.344031
495.470480,0.349904
495.803420,0.346348
496.136320,0.349624
496.469180,0.344997
496.802000,0.345966
497.134780,0.347483
497.467520,0.346177
497.800220,0.336085
498.132880,0.342740
498.465500,0.333720
498.798080,0.341895
499.130620,0.334643
499.463120,0.338574
499.795580,0.332233
500.128000,0.340054
500.460380,0.338536
500.792720,0.335101
501.125020,0.324750
501.457280,0.331593
501.789500,0.333678
502.121680,0.333852
502.453820,0.330954
502.785920,0.330165
503.117980,0.329735
503.450000,0.321447
503.781980,0.329846
504.113920,0.319583
504.445820,0.324259
504.777680,0.320471
505.109500,0.330288
505.441280,0.331262
505.773020,0.320338
506.104720,0.317004
506.436380,0.321817
506.768000,0.318054
507.099580,0.311670
507.431120,0.317564
507.762620,0.317669
508.094080,0.311759
508.425500,0.317460
508.756880,0.315501
509.088220,0.310948
509.419520,0.324488
509.750780,0.320056
510.082000,0.314366
510.413180,0.314602
510.744320,0.309250
511.075420,0.306599
511.406480,0.308416
511.737500,0.297222
512.068480,0.308271
512.399420,0.304695
512.730320,0.297921
513.061180,0.303996
513.392000,0.297208
513.722780,0.306436
514.053520,0.302827
514.384220,0.296860
514.714880,0.300622
515.045500,0.293103
515.376080,0.297337
515.706620,0.297613
516.037120,0.299020
516.367580,0.286841
516.698000,0.283333
517.028380,0.294439
517.358720,0.291358
517.689020,0.294758
518.019280,0.287506
518.349500,0.293969
518.679680,0.293791
519.009820,0.292004
519.339920,0.289579
519.669980,0.283777
520.000000,0.285787
520.329980,0.283567
520.659920,0.287832
520.989820,0.291538
521.319680,0.288066
521.649500,0.284833
521.979280,0.287056
522.309020,0.281639
522.638720,0.281106
522.968380,0.282316
523.298000,0.271399
523.627580,0.270047
523.957120,0.273766
524.286620,0.279833
524.616080,0.277146
524.945500,0.273902
525.274880,0.269882
525.604220,0.279503
525.933520,0.277254
526.262780,0.263051
526.592000,0.265348
526.921180,0.267141
527.250320,0.268392
527.579420,0.275897
527.908480,0.265879
528.237500,0.265641
528.566480,0.269461
528.895420,0.267620
529.224320,0.270431
529.553180,0.259759
529.882000,0.269586
530.210780,0.265927
530.539520,0.254075
530.868220,0.259454
531.196880,0.258958
531.525500,0.266344
531.854080,0.260319
532.182620,0.257356
532.511120,0.260325
532.839580,0.264973
533.168000,0.254330
533.496380,0.260731
533.824720,0.255720
534.153020,0.255907
534.481280,0.258150
534.809500,0.250660
535.137680,0.251302
535.465820,0.246993
535.793920,0.245770
536.121980,0.248426
536.450000,0.246934
536.777980,0.247591
537.105920,0.251557
537.433820,0.243453
537.761680,0.246531
538.089500,0.248887
538.417280,0.247911
538.745020,0.242868
539.072720,0.239360
539.400380,0.246309
539.728000,0.244359
540.055580,0.243446
540.383120,0.239762
540.710620,0.241815
541.038080,0.235706
541.365500,0.241176
541.692880,0.235828
542.020220,0.237855
542.347520,0.239052
542.674780,0.239591
543.002000,0.233030
543.329180,0.238513
543.656320,0.239100
543.983420,0.233162
544.310480,0.236833
544.637500,0.234050
544.964480,0.232167
545.291420,0.234962
545.618320,0.232072
545.945180,0.225775
546.272000,0.229685
546.598780,0.229105
546.925520,0.228816
547.252220,0.223176
547.578880,0.228087
547.905500,0.223856
548.232080,0.225146
548.558620,0.221608
548.885120,0.224730
549.211580,0.215365
549.538000,0.222438
549.864380,0.223473
550.190720,0.219890
550.517020,0.218057
550.843280,0.223779
551.169500,0.216603
551.495680,0.213535
551.821820,0.219791
552.147920,0.216656
552.473980,0.216003
552.800000,0.212230
553.125980,0.212508
553.451920,0.214665
553.777820,0.218188
554.103680,0.211662
554.429500,0.211918
554.755280,0.210280
555.081020,0.203877
555.406720,0.215036
555.732380,0.203660
556.058000,0.206382
556.383580,0.207806
556.709120,0.203653
557.034620,0.206683
557.360080,0.203454
557.685500,0.206777
558.010880,0.203466
558.336220,0.202460
558.661520,0.200638
558.986780,0.201630
559.312000,0.197650
559.637180,0.198564
559.962320,0.203631
560.287420,0.205219
560.612480,0.193757
560.937500,0.196035
561.262480,0.196848
561.587420,0.194777
561.912320,0.195652
562.237180,0.194301
562.562000,0.197905
562.886780,0.193608
563.211520,0.192996
563.536220,0.195176
563.860880,0.189363
564.185500,0.193246
564.510080,0.189616
564.834620,0.187570
565.159120,0.189850
565.483580,0.185861
565.808000,0.190314
566.132380,0.186125
566.456720,0.188587
566.781020,0.190173
567.105280,0.187902
567.429500,0.188543
567.753680,0.184887
568.077820,0.183224
568.401920,0.186402
568.725980,0.185199
569.050000,0.180228
569.373980,0.182337
569.697920,0.180129
570.021820,0.178277
570.345680,0.182166
570.669500,0.179321
570.993280,0.180509
571.317020,0.180124
571.640720,0.178955
571.964380,0.180030
572.288000,0.176929
572.611580,0.178585
572.935120,0.173962
573.258620,0.178010
573.582080,0.171759
573.905500,0.171258
574.228880,0.177803
574.552220,0.171491
574.875520,0.174237
575.198780,0.176726
575.522000,0.177053
575.845180,0.168696
576.168320,0.177506
576.491420,0.174419
576.814480,0.169620
577.137500,0.170635
577.460480,0.170714
577.783420,0.172919
578.106320,0.175214
578.429180,0.172146
578.752000,0.171240
579.074780,0.167903
579.397520,0.168496
579.720220,0.168919
580.042880,0.168153
580.365500,0.168762
580.688080,0.169607
581.010620,0.166723
581.333120,0.169005
581.655580,0.166833
581.978000,0.168274
582.300380,0.164882
582.622720,0.166447
582.945020,0.165800
583.267280,0.165418
583.589500,0.162761
583.911680,0.163226
584.233820,0.162417
584.555920,0.164198
584.877980,0.163631
585.200000,0.160528
585.521980,0.165585
585.843920,0.160159
586.165820,0.161792
586.487680,0.156786
586.809500,0.159316
587.131280,0.155871
587.453020,0.165476
587.774720,0.159965
588.096380,0.156651
588.418000,0.155107
588.739580,0.159816
589.061120,0.158137
589.382620,0.156160
589.704080,0.155680
590.025500,0.154966
590.346880,0.156268
590.668220,0.155139
590.989520,0.154742
591.310780,0.153549
591.632000,0.154918
591.953180,0.154996
592.274320,0.152880
592.595420,0.156519
592.916480,0.154578
593.237500,0.151711
593.558480,0.154964
593.879420,0.151335
594.200320,0.155371
594.521180,0.154847
594.842000,0.150994
595.162780,0.153045
595.483520,0.151821
595.804220,0.145811
596.124880,0.150013
596.445500,0.148284
596.766080,0.153267
597.086620,0.147558
597.407120,0.146393
597.727580,0.149032
598.048000,0.150489
598.368380,0.146765
598.688720,0.148886
599.009020,0.148089
599.329280,0.149548
599.649500,0.143951
599.969680,0.147169
600.289820,0.147970
600.609920,0.145605
600.929980,0.143773
601.250000,0.147027
601.569980,0.147178
601.889920,0.145950
602.209820,0.146374
602.529680,0.146114
602.849500,0.141844
603.169280,0.147699
603.489020,0.143925
603.808720,0.144268
604.128380,0.141280
604.448000,0.140055
604.767580,0.142179
605.087120,0.139335
605.406620,0.138819
605.726080,0.142857
606.045500,0.138479
606.364880,0.140629
606.684220,0.142490
607.003520,0.138188
607.322780,0.141273
607.642000,0.141011
607.961180,0.135299
608.280320,0.141821
608.599420,0.138470
608.918480,0.139296
609.237500,0.137031
609.556480,0.140870
609.875420,0.137330
610.194320,0.140242
610.513180,0.142054
610.832000,0.139964
611.150780,0.137879
611.469520,0.139970
611.788220,0.141475
612.106880,0.136309
612.425500,0.135505
612.744080,0.141274
613.062620,0.137615
613.381120,0.138026
613.699580,0.134273
614.018000,0.132985
614.336380,0.133868
614.654720,0.136124
614.973020,0.132675
615.291280,0.135730
615.609500,0.139144
615.927680,0.132262
616.245820,0.132962
616.563920,0.138328
616.881980,0.140942
617.200000,0.137170
617.517980,0.135034
617.835920,0.132029
618.153820,0.130867
618.471680,0.132713
618.789500,0.134361
619.107280,0.136150
619.425020,0.137330
619.742720,0.134652
620.060380,0.134754
620.378000,0.133417
620.695580,0.136335
621.013120,0.134173
621.330620,0.135864
621.648080,0.133754
621.965500,0.133940
622.282880,0.130832
622.600220,0.131712
622.917520,0.135791
623.234780,0.132112
623.552000,0.130808
623.869180,0.134888
624.186320,0.134989
624.503420,0.131034
624.820480,0.135093
625.137500,0.131355
625.454480,0.135042
625.771420,0.133354
626.088320,0.132409
626.405180,0.132234
626.722000,0.131430
627.038780,0.133459
627.355520,0.134063
627.672220,0.136547
627.988880,0.131882
628.305500,0.133998
628.622080,0.134139
628.938620,0.132722
629.255120,0.132545
629.571580,0.132087
629.888000,0.134397
630.204380,0.134397
630.520720,0.135283
630.837020,0.133210
631.153280,0.132494
631.469500,0.136143
631.785680,0.132911
632.101820,0.132992
632.417920,0.133830
632.733980,0.132953
633.050000,0.131898
633.365980,0.135744
633.681920,0.131862
633.997820,0.134190
634.313680,0.131820
634.629500,0.133294
634.945280,0.134897
635.261020,0.131787
635.576720,0.133881
635.892380,0.129538
636.208000,0.137130
636.523580,0.137094
636.839120,0.134627
637.154620,0.131594
637.470080,0.130560
637.785500,0.134525
638.100880,0.133217
638.416220,0.134311
638.731520,0.136676
639.046780,0.134285
639.362000,0.138761
639.677180,0.139349
639.992320,0.133916
640.307420,0.134588
640.622480,0.134976
640.937500,0.132316
641.252480,0.135437
641.567420,0.135550
641.882320,0.135857
642.197180,0.134475
642.512000,0.133221
642.826780,0.133426
643.141520,0.136982
643.456220,0.134754
643.770880,0.134605
644.085500,0.136110
644.400080,0.137360
644.714620,0.135173
645.029120,0.132838
645.343580,0.132748
645.658000,0.140161
645.972380,0.138120
646.286720,0.137095
646.601020,0.137005
646.915280,0.135180
647.229500,0.134890
647.543680,0.139464
647.857820,0.140105
648.171920,0.142973
648.485980,0.138668
648.800000,0.138606
649.113980,0.135255
649.427920,0.136755
649.741820,0.137675
650.055680,0.136862
650.369500,0.138453
650.683280,0.138457
650.997020,0.140814
651.310720,0.140341
651.624380,0.137088
651.938000,0.137950
652.251580,0.135820
652.565120,0.138345
652.878620,0.139358
653.192080,0.142135
653.505500,0.137167
653.818880,0.141314
654.132220,0.140416
654.445520,0.137550
654.758780,0.138244
655.072000,0.139255
655.385180,0.138944
655.698320,0.140612
656.011420,0.139868
656.324480,0.139901
656.637500,0.139340
656.950480,0.140341
657.263420,0.141295
657.576320,0.139638
657.889180,0.142436
658.202000,0.140399
658.514780,0.140816
658.827520,0.143157
659.140220,0.138747
659.452880,0.142555
659.765500,0.143889
660.078080,0.139031
660.390620,0.141766
660.703120,0.142683
661.015580,0.144172
661.328000,0.145466
661.640380,0.145076
661.952720,0.141389
662.265020,0.140832
662.577280,0.148537
662.889500,0.143803
663.201680,0.148692
663.513820,0.143133
663.825920,0.144412
664.137980,0.146412
664.450000,0.143862
664.761980,0.144681
665.073920,0.143784
665.385820,0.146270
665.697680,0.146116
666.009500,0.145660
666.321280,0.147117
666.633020,0.149601
666.944720,0.148972
667.256380,0.147712
667.568000,0.148777
667.879580,0.147959
668.191120,0.149382
668.502620,0.151660
668.814080,0.150175
669.125500,0.148135
669.436880,0.147649
669.748220,0.145725
670.059520,0.154412
670.370780,0.148573
670.682000,0.148673
670.993180,0.151868
671.304320,0.151195
671.615420,0.152344
671.926480,0.151171
672.237500,0.148982
672.548480,0.150816
672.859420,0.153681
673.170320,0.154878
673.481180,0.153512
673.792000,0.152182
674.102780,0.151167
674.413520,0.152023
674.724220,0.149183
675.034880,0.151815
675.345500,0.153902
675.656080,0.158984
675.966620,0.156057
676.277120,0.156353
676.587580,0.158321
676.898000,0.151549
677.208380,0.155638
677.518720,0.156090
677.829020,0.154841
678.139280,0.157895
678.449500,0.151875
678.759680,0.160360
679.069820,0.157621
679.379920,0.160694
679.689980,0.156703
680.000000,0.154766
680.309980,0.157758
680.619920,0.162438
680.929820,0.158268
681.239680,0.155465
681.549500,0.160741
681.859280,0.162435
682.169020,0.161134
682.478720,0.162678
682.788380,0.158730
683.098000,0.163052
683.407580,0.166229
683.717120,0.166667
684.026620,0.165663
684.336080,0.159530
684.645500,0.160868
684.954880,0.160559
685.264220,0.164213
685.573520,0.169775
685.882780,0.167626
686.192000,0.164033
686.501180,0.160424
686.810320,0.169869
687.119420,0.166097
687.428480,0.166350
687.737500,0.169225
688.046480,0.164494
688.355420,0.167861
688.664320,0.173680
688.973180,0.171899
689.282000,0.171682
689.590780,0.169862
689.899520,0.163312
690.208220,0.170107
690.516880,0.174112
690.825500,0.172453
691.134080,0.167426
691.442620,0.173399
691.751120,0.174061
692.059580,0.177684
692.368000,0.172662
692.676380,0.173282
692.984720,0.169466
693.293020,0.173632
693.601280,0.170927
693.909500,0.171018
694.217680,0.170982
694.525820,0.174791
694.833920,0.174742
695.141980,0.179715
695.450000,0.180534
695.757980,0.176471
696.065920,0.177864
696.373820,0.179754
696.681680,0.172996
696.989500,0.180239
697.297280,0.173862
697.605020,0.180556
697.912720,0.180630
698.220380,0.176309
698.528000,0.181962
698.835580,0.186883
699.143120,0.181216
699.450620,0.184566
699.758080,0.177647
700.065500,0.182761
700.372880,0.182400
700.680220,0.184284
700.987520,0.180952
701.294780,0.186942
701.602000,0.181458
701.909180,0.190382
702.216320,0.178725
702.523420,0.186267
702.830480,0.183366
703.137500,0.185503
703.444480,0.185799
703.751420,0.188166
704.058320,0.189553
704.365180,0.189274
704.672000,0.190891
704.978780,0.182599
705.285520,0.191706
705.592220,0.182353
705.898880,0.191095
706.205500,0.190923
706.512080,0.191153
706.818620,0.196207
707.125120,0.194615
707.431580,0.190309
707.738000,0.193359
708.044380,0.193362
708.350720,0.188002
708.657020,0.189918
708.963280,0.197593
709.269500,0.193738
709.575680,0.195678
709.881820,0.195755
710.187920,0.194553
710.493980,0.195888
710.800000,0.195271
711.105980,0.192395
711.411920,0.195901
711.717820,0.196101
712.023680,0.191994
712.329500,0.203470
712.635280,0.199612
712.941020,0.198299
713.246720,0.201976
713.552380,0.197802
713.858000,0.198660
714.163580,0.207182
714.469120,0.202814
714.774620,0.199763
715.080080,0.197880
715.385500,0.204237
715.690880,0.202367
715.996220,0.202060
716.301520,0.204743
716.606780,0.202830
716.912000,0.210016
717.217180,0.205108
717.522320,0.202783
717.827420,0.209927
718.132480,0.206343
718.437500,0.207501
718.742480,0.205242
719.047420,0.212783
719.352320,0.210876
719.657180,0.204415
719.962000,0.212159
720.266780,0.208558
720.571520,0.208782
720.876220,0.210720
721.180880,0.207358
721.485500,0.212704
721.790080,0.208493
722.094620,0.213979
722.399120,0.215855
722.703580,0.214745
723.008000,0.215610
723.312380,0.217822
723.616720,0.210370
723.921020,0.215245
724.225280,0.212042
724.529500,0.208844
724.833680,0.220641
725.137820,0.219824
725.441920,0.211770
725.745980,0.225056
726.050000,0.223726
726.353980,0.219919
726.657920,0.217274
726.961820,0.215982
727.265680,0.224226
727.569500,0.218921
727.873280,0.221247
728.177020,0.222939
728.480720,0.226852
728.784380,0.225928
729.088000,0.222798
729.391580,0.224064
729.695120,0.224568
729.998620,0.228967
730.302080,0.222970
730.605500,0.225619
730.908880,0.218520
731.212220,0.224290
731.515520,0.220380
731.818780,0.219417
732.122000,0.224902
732.425180,0.222770
732.728320,0.226574
733.031420,0.221554
733.334480,0.231122
733.637500,0.226310
733.940480,0.235415
734.243420,0.230377
734.546320,0.237033
734.849180,0.229855
735.152000,0.230809
735.454780,0.223140
735.757520,0.227608
736.060220,0.233281
736.362880,0.229517
736.665500,0.228198
736.968080,0.236432
737.270620,0.244965
737.573120,0.235808
737.875580,0.237493
738.178000,0.236255
738.480380,0.234595
738.782720,0.236096
739.085020,0.232379
739.387280,0.233370
739.689500,0.241223
739.991680,0.240876
740.293820,0.241570
740.595920,0.235949
740.897980,0.246189
741.200000,0.244532
741.501980,0.246991
741.803920,0.239865
742.105820,0.239707
742.407680,0.248690
742.709500,0.237500
743.011280,0.245018
743.313020,0.242319
743.614720,0.248984
743.916380,0.241279
744.218000,0.247017
744.519580,0.252415
744.821120,0.248503
745.122620,0.242061
745.424080,0.246394
745.725500,0.246832
746.026880,0.242611
746.328220,0.252158
746.629520,0.246237
746.930780,0.246324
747.232000,0.249540
747.533180,0.253813
747.834320,0.253804
748.135420,0.250466
748.436480,0.249532
748.737500,0.252007
749.038480,0.251680
749.339420,0.254512
749.640320,0.259585
749.941180,0.245472
750.242000,0.254397
750.542780,0.256203
750.843520,0.268418
751.144220,0.258974
751.444880,0.260621
751.745500,0.262987
752.046080,0.266196
752.346620,0.251933
752.647120,0.251470
752.947580,0.251617
753.248000,0.258543
753.548380,0.254392
753.848720,0.262717
754.149020,0.257253
754.449280,0.262640
754.749500,0.263437
755.049680,0.268667
755.349820,0.259506
755.649920,0.270324
755.949980,0.262774
756.250000,0.273504
756.549980,0.261386
756.849920,0.269884
757.149820,0.258816
757.449680,0.272607
757.749500,0.271984
758.049280,0.262799
758.349020,0.264951
758.648720,0.273292
758.948380,0.272165
759.248000,0.271563
759.547580,0.262273
759.847120,0.266023
760.146620,0.271989
760.446080,0.274866
760.745500,0.272727
761.044880,0.273437
761.344220,0.272986
761.643520,0.277542
761.942780,0.277117
762.242000,0.285007
762.541180,0.276761
762.840320,0.275983
763.139420,0.282700
763.438480,0.273411
763.737500,0.283942
764.036480,0.279525
764.335420,0.281581
764.634320,0.278586
764.933180,0.282877
765.232000,0.282443
765.530780,0.282105
765.829520,0.288811
766.128220,0.276270
766.426880,0.287846
766.725500,0.283071
767.024080,0.280521
767.322620,0.280775
767.621120,0.278455
767.919580,0.287372
768.218000,0.288646
768.516380,0.280595
768.814720,0.276406
769.113020,0.282564
769.411280,0.288674
769.709500,0.292963
770.007680,0.292434
770.305820,0.287356
770.603920,0.285040
770.901980,0.302596
771.200000,0.288723
771.497980,0.290885
771.795920,0.292308
772.093820,0.288102
772.391680,0.297297
772.689500,0.294595
772.987280,0.296296
773.285020,0.293917
773.582720,0.280405
773.880380,0.302677
774.178000,0.293797
774.475580,0.301407
774.773120,0.291165
775.070620,0.291413
775.368080,0.295925
775.665500,0.286098
775.962880,0.291528
776.260220,0.306864
776.557520,0.306871
776.854780,0.297498
777.152000,0.293103
777.449180,0.304788
777.746320,0.296371
778.043420,0.302865
778.340480,0.297700
778.637500,0.300879
778.934480,0.297243
779.231420,0.299864
779.528320,0.310621
779.825180,0.300395
780.122000,0.302789
780.418780,0.311902
780.715520,0.310530
781.012220,0.304795
781.308880,0.315754
781.605500,0.308904
781.902080,0.306639
782.198620,0.311005
782.495120,0.310014
782.791580,0.314993
783.088000,0.311939
783.384380,0.323246
783.680720,0.317373
783.977020,0.316586
784.273280,0.318182
784.569500,0.324249
784.865680,0.310848
785.161820,0.319444
785.457920,0.309771
785.753980,0.322401
786.050000,0.309392
786.345980,0.303472
786.641920,0.311589
786.937820,0.319088
787.233680,0.314544
787.529500,0.316921
787.825280,0.323654
788.121020,0.320113
788.416720,0.322512
788.712380,0.320874
789.008000,0.318697
789.303580,0.321555
789.599120,0.318545
789.894620,0.316245
790.190080,0.319072
790.485500,0.325414
790.780880,0.329032
791.076220,0.321789
791.371520,0.324619
791.666780,0.336000
791.962000,0.324761
792.257180,0.326501
792.552320,0.334300
792.847420,0.336245
793.142480,0.347253
793.437500,0.321274
793.732480,0.332846
794.027420,0.328635
794.322320,0.332588
794.617180,0.328380
794.912000,0.323923
795.206780,0.329605
795.501520,0.340684
795.796220,0.332593
796.090880,0.336096
796.385500,0.337331
796.680080,0.329843
796.974620,0.336826
797.269120,0.330810
797.563580,0.342748
797.858000,0.338648
798.152380,0.335654
798.446720,0.340769
798.741020,0.336672
799.035280,0.343168
799.329500,0.331024
799.623680,0.341860
