399.985280,0.364865
400.329500,0.391892
400.673680,0.430380
401.017820,0.426471
401.361920,0.393939
401.705980,0.341463
402.050000,0.376623
402.393980,0.352941
402.737920,0.382022
403.081820,0.350515
403.425680,0.372093
403.769500,0.375000
404.113280,0.390805
404.457020,0.426966
404.800720,0.391304
405.144380,0.363636
405.488000,0.397849
405.831580,0.402062
406.175120,0.372340
406.518620,0.370000
406.862080,0.381443
407.205500,0.437500
407.548880,0.428571
407.892220,0.372549
408.235520,0.404255
408.578780,0.428571
408.922000,0.413462
409.265180,0.434343
409.608320,0.363636
409.951420,0.432990
410.294480,0.431373
410.637500,0.402174
410.980480,0.431373
411.323420,0.408163
411.666320,0.440367
412.009180,0.390909
412.352000,0.336634
412.694780,0.394495
413.037520,0.385321
413.380220,0.378378
413.722880,0.410714
414.065500,0.423423
414.408080,0.407080
414.750620,0.380531
415.093120,0.404959
415.435580,0.445378
415.778000,0.386364
416.120380,0.428571
416.462720,0.404762
416.805020,0.436090
417.147280,0.402985
417.489500,0.435714
417.831680,0.424658
418.173820,0.375887
418.515920,0.405594
418.857980,0.405063
419.200000,0.384615
419.541980,0.378698
419.883920,0.376404
420.225820,0.416185
420.567680,0.391061
420.909500,0.409836
421.251280,0.401042
421.593020,0.387755
421.934720,0.368687
422.276380,0.374359
422.618000,0.382353
422.959580,0.406863
423.301120,0.424658
423.642620,0.373913
423.984080,0.372093
424.325500,0.394619
424.666880,0.405172
425.008220,0.399160
425.349520,0.372881
425.690780,0.373077
426.032000,0.396078
426.373180,0.377593
426.714320,0.390625
427.055420,0.362934
427.396480,0.382022
427.737500,0.391304
428.078480,0.367589
428.419420,0.337349
428.760320,0.386973
429.101180,0.393701
429.442000,0.379310
429.782780,0.373077
430.123520,0.388235
430.464220,0.332103
430.804880,0.394636
431.145500,0.327273
431.486080,0.389513
431.826620,0.383721
432.167120,0.352941
432.507580,0.384058
432.848000,0.395683
433.188380,0.371841
433.528720,0.373585
433.869020,0.385714
434.209280,0.350877
434.549500,0.379791
434.889680,0.370370
435.229820,0.378840
435.569920,0.332180
435.909980,0.349515
436.250000,0.379661
436.589980,0.325077
436.929920,0.390476
437.269820,0.357367
437.609680,0.369822
437.949500,0.379518
438.289280,0.356941
438.629020,0.377907
438.968720,0.369186
439.308380,0.333333
439.648000,0.356164
439.987580,0.328042
440.327120,0.360000
440.666620,0.350649
441.006080,0.358056
441.345500,0.368550
441.684880,0.334928
442.024220,0.344913
442.363520,0.354762
442.702780,0.336364
443.042000,0.348018
443.381180,0.344828
443.720320,0.343413
444.059420,0.315126
444.398480,0.332636
444.737500,0.340164
445.076480,0.345238
445.415420,0.341317
445.754320,0.338877
446.093180,0.333945
446.432000,0.347744
446.770780,0.335863
447.109520,0.345588
447.448220,0.357782
447.786880,0.338104
448.125500,0.329310
448.464080,0.323214
448.802620,0.319149
449.141120,0.337370
449.479580,0.330420
449.818000,0.339071
450.156380,0.324415
450.494720,0.309091
450.833020,0.347902
451.171280,0.318493
451.509500,0.334495
451.847680,0.332209
452.185820,0.340792
452.523920,0.333333
452.861980,0.317032
453.200000,0.312292
453.537980,0.309244
453.875920,0.315966
454.213820,0.323630
454.551680,0.306291
454.889500,0.318718
455.227280,0.307829
455.565020,0.316583
455.902720,0.322795
456.240380,0.282862
456.578000,0.327526
456.915580,0.317789
457.253120,0.300987
457.590620,0.305419
457.928080,0.324916
458.265500,0.315878
458.602880,0.319805
458.940220,0.316413
459.277520,0.305600
459.614780,0.324059
459.952000,0.287267
460.289180,0.314873
460.626320,0.307087
460.963420,0.297254
461.300480,0.298165
461.637500,0.311248
461.974480,0.302752
462.311420,0.295082
462.648320,0.285505
462.985180,0.291248
463.322000,0.290179
463.658780,0.291436
463.995520,0.294360
464.332220,0.286704
464.668880,0.280914
465.005500,0.296247
465.342080,0.293214
465.678620,0.287823
466.015120,0.294955
466.351580,0.285714
466.688000,0.287454
467.024380,0.295261
467.360720,0.289773
467.697020,0.294989
468.033280,0.290000
468.369500,0.289183
468.705680,0.288613
469.041820,0.270833
469.377920,0.279826
469.713980,0.278064
470.050000,0.285990
470.385980,0.273973
470.721920,0.277179
471.057820,0.289474
471.393680,0.270346
471.729500,0.269694
472.065280,0.281753
472.401020,0.270390
472.736720,0.279232
473.072380,0.263914
473.408000,0.267189
473.743580,0.263841
474.079120,0.266150
474.414620,0.267176
474.750080,0.270952
475.085500,0.267270
475.420880,0.271440
475.756220,0.266558
476.091520,0.266837
476.426780,0.257282
476.762000,0.255028
477.097180,0.256000
477.432320,0.271405
477.767420,0.266340
478.102480,0.261417
478.437500,0.250411
478.772480,0.250591
479.107420,0.257933
479.442320,0.251799
479.777180,0.260143
480.112000,0.247304
480.446780,0.243180
480.781520,0.247182
481.116220,0.249798
481.450880,0.248244
481.785500,0.253165
482.120080,0.259404
482.454620,0.243978
482.789120,0.250000
483.123580,0.250000
483.458000,0.247627
483.792380,0.250000
484.126720,0.244788
484.461020,0.245902
484.795280,0.240555
485.129500,0.244739
485.463680,0.241860
485.797820,0.247278
486.131920,0.241775
486.465980,0.237838
486.800000,0.246565
487.133980,0.234894
487.467920,0.234889
487.801820,0.239512
488.135680,0.242608
488.469500,0.236762
488.803280,0.235513
489.137020,0.230037
489.470720,0.235905
489.804380,0.233853
490.138000,0.235163
490.471580,0.235814
490.805120,0.225161
491.138620,0.225302
491.472080,0.232509
491.805500,0.228033
492.138880,0.230716
492.472220,0.224221
492.805520,0.229749
493.138780,0.229497
493.472000,0.222074
493.805180,0.219645
494.138320,0.223482
494.471420,0.222656
494.804480,0.217982
495.137500,0.224005
495.470480,0.217973
495.803420,0.222922
496.136320,0.223058
496.469180,0.221608
496.802000,0.219438
497.134780,0.218921
497.467520,0.222630
497.800220,0.206958
498.132880,0.218695
498.465500,0.220162
498.798080,0.214041
499.130620,0.221224
499.463120,0.217294
499.795580,0.210121
500.128000,0.217439
500.460380,0.208288
500.792720,0.207847
501.125020,0.209143
501.457280,0.209399
501.789500,0.207128
502.121680,0.214101
502.453820,0.211117
502.785920,0.205603
503.117980,0.211973
503.450000,0.209442
503.781980,0.200797
504.113920,0.197724
504.445820,0.198833
504.777680,0.200000
505.109500,0.196154
505.441280,0.202677
505.773020,0.195867
506.104720,0.196891
506.436380,0.201609
506.768000,0.199252
507.099580,0.194508
507.431120,0.198126
507.762620,0.197838
508.094080,0.195077
508.425500,0.199346
508.756880,0.187929
509.088220,0.198252
509.419520,0.194600
509.750780,0.193065
510.082000,0.190765
510.413180,0.188392
510.744320,0.192821
511.075420,0.186068
511.406480,0.188528
511.737500,0.192130
512.068480,0.186090
512.399420,0.186385
512.730320,0.187067
513.061180,0.186013
513.392000,0.184098
513.722780,0.184438
514.053520,0.189267
514.384220,0.190771
514.714880,0.182863
515.045500,0.181034
515.376080,0.186441
515.706620,0.178763
516.037120,0.176471
516.367580,0.180877
516.698000,0.181863
517.028380,0.180735
517.358720,0.176790
517.689020,0.177547
518.019280,0.177120
518.349500,0.175874
518.679680,0.176678
519.009820,0.179656
519.339920,0.178858
519.669980,0.175289
520.000000,0.176261
520.329980,0.173665
520.659920,0.175869
520.989820,0.175439
521.319680,0.173868
521.649500,0.167095
521.979280,0.173800
522.309020,0.174274
522.638720,0.172555
522.968380,0.174767
523.298000,0.171190
523.627580,0.170202
523.957120,0.171429
524.286620,0.169359
524.616080,0.172182
524.945500,0.171576
525.274880,0.172396
525.604220,0.166149
525.933520,0.170335
526.262780,0.168272
526.592000,0.169457
526.921180,0.166582
527.250320,0.167935
527.579420,0.165740
527.908480,0.168882
528.237500,0.170804
528.566480,0.170659
528.895420,0.170527
529.224320,0.162457
529.553180,0.165783
529.882000,0.171776
530.210780,0.164093
530.539520,0.166347
530.868220,0.160364
531.196880,0.162446
531.525500,0.159806
531.854080,0.160413
532.182620,0.160206
532.511120,0.161485
532.839580,0.164247
533.168000,0.160893
533.496380,0.164384
533.824720,0.160162
534.153020,0.163620
534.481280,0.157709
534.809500,0.163588
535.137680,0.153646
535.465820,0.155498
535.793920,0.153130
536.121980,0.159883
536.450000,0.151797
536.777980,0.157939
537.105920,0.161063
537.433820,0.158756
537.761680,0.159184
538.089500,0.154998
538.417280,0.152407
538.745020,0.154913
539.072720,0.150722
539.400380,0.155789
539.728000,0.154876
540.055580,0.153558
540.383120,0.154877
540.710620,0.151042
541.038080,0.155293
541.365500,0.151838
541.692880,0.152253
542.020220,0.150054
542.347520,0.152190
542.674780,0.150670
543.002000,0.148705
543.329180,0.154683
543.656320,0.154360
543.983420,0.144274
544.310480,0.147808
544.637500,0.151825
544.964480,0.149058
545.291420,0.149884
545.618320,0.154050
545.945180,0.148978
546.272000,0.146461
546.598780,0.145198
546.925520,0.147049
547.252220,0.146253
547.578880,0.148257
547.905500,0.150980
548.232080,0.149123
548.558620,0.146437
548.885120,0.145568
549.211580,0.148184
549.538000,0.147536
549.864380,0.144695
550.190720,0.147239
550.517020,0.149935
550.843280,0.144625
551.169500,0.146310
551.495680,0.150460
551.821820,0.142717
552.147920,0.147040
552.473980,0.140599
552.800000,0.143231
553.125980,0.145383
553.451920,0.142999
553.777820,0.143904
554.103680,0.145265
554.429500,0.139605
554.755280,0.144192
555.081020,0.142045
555.406720,0.141212
555.732380,0.137580
556.058000,0.142566
556.383580,0.141048
556.709120,0.144728
557.034620,0.141922
557.360080,0.139551
557.685500,0.144191
558.010880,0.138995
558.336220,0.140598
558.661520,0.140021
558.986780,0.144578
559.312000,0.142450
559.637180,0.140395
559.962320,0.143467
560.287420,0.142102
560.612480,0.139577
560.937500,0.140235
561.262480,0.142229
561.587420,0.142184
561.912320,0.145542
562.237180,0.145448
562.562000,0.144781
562.886780,0.143069
563.211520,0.138972
563.536220,0.139147
563.860880,0.141079
564.185500,0.139962
564.510080,0.138450
564.834620,0.136584
565.159120,0.136466
565.483580,0.141011
565.808000,0.135452
566.132380,0.140619
566.456720,0.142479
566.781020,0.142911
567.105280,0.139509
567.429500,0.142640
567.753680,0.137323
568.077820,0.138384
568.401920,0.137128
568.725980,0.137381
569.050000,0.139544
569.373980,0.138942
569.697920,0.136519
570.021820,0.138951
570.345680,0.141217
570.669500,0.140404
570.993280,0.138058
571.317020,0.139569
571.640720,0.140422
571.964380,0.136600
572.288000,0.137240
572.611580,0.139274
572.935120,0.139918
573.258620,0.142857
573.582080,0.141580
573.905500,0.141847
574.228880,0.144024
574.552220,0.139978
574.875520,0.141474
575.198780,0.139140
575.522000,0.139663
575.845180,0.141476
576.168320,0.143011
576.491420,0.141715
576.814480,0.138879
577.137500,0.139250
577.460480,0.140631
577.783420,0.141836
578.106320,0.142094
578.429180,0.140332
578.752000,0.139632
579.074780,0.142616
579.397520,0.143964
579.720220,0.139640
580.042880,0.144698
580.365500,0.139312
580.688080,0.143826
581.010620,0.148161
581.333120,0.146961
581.655580,0.147186
581.978000,0.142002
582.300380,0.144758
582.622720,0.144693
582.945020,0.145319
583.267280,0.142950
583.589500,0.142857
583.911680,0.145125
584.233820,0.143217
584.555920,0.147179
584.877980,0.145415
585.200000,0.144874
585.521980,0.142725
585.843920,0.145516
586.165820,0.143815
586.487680,0.141438
586.809500,0.143114
587.131280,0.139604
587.453020,0.145833
587.774720,0.144589
588.096380,0.147608
588.418000,0.143986
588.739580,0.148606
589.061120,0.145773
589.382620,0.144986
589.704080,0.146143
590.025500,0.151256
590.346880,0.147274
590.668220,0.148698
590.989520,0.141986
591.310780,0.148854
591.632000,0.150000
591.953180,0.149184
592.274320,0.145236
592.595420,0.148168
592.916480,0.148601
593.237500,0.150094
593.558480,0.146624
593.879420,0.148907
594.200320,0.152156
594.521180,0.148738
594.842000,0.151531
595.162780,0.151709
595.483520,0.148631
595.804220,0.152256
596.124880,0.151612
596.445500,0.148808
596.766080,0.152191
597.086620,0.150743
597.407120,0.151395
597.727580,0.153805
598.048000,0.153928
598.368380,0.153603
598.688720,0.152031
599.009020,0.154989
599.329280,0.154071
599.649500,0.150819
599.969680,0.152511
600.289820,0.153579
600.609920,0.154956
600.929980,0.152592
601.250000,0.153514
601.569980,0.160951
601.889920,0.154771
602.209820,0.152868
602.529680,0.159022
602.849500,0.153301
603.169280,0.155966
603.489020,0.161915
603.808720,0.153867
604.128380,0.151766
604.448000,0.156354
604.767580,0.156145
605.087120,0.156787
605.406620,0.160369
605.726080,0.158540
606.045500,0.157147
606.364880,0.159342
606.684220,0.162479
607.003520,0.157683
607.322780,0.156339
607.642000,0.157955
607.961180,0.158138
608.280320,0.161253
608.599420,0.157010
608.918480,0.162170
609.237500,0.160505
609.556480,0.160994
609.875420,0.162729
610.194320,0.160614
610.513180,0.162474
610.832000,0.163192
611.150780,0.162211
611.469520,0.165008
611.788220,0.165961
612.106880,0.160133
612.425500,0.163216
612.744080,0.167128
613.062620,0.159939
613.381120,0.165448
613.699580,0.165543
614.018000,0.168919
614.336380,0.165022
614.654720,0.165891
614.973020,0.164455
615.291280,0.168888
615.609500,0.170206
615.927680,0.169345
616.245820,0.162028
616.563920,0.166926
616.881980,0.169005
617.200000,0.168585
617.517980,0.167393
617.835920,0.170861
618.153820,0.171899
618.471680,0.173333
618.789500,0.173065
619.107280,0.171205
619.425020,0.173168
619.742720,0.167294
620.060380,0.165465
620.378000,0.173694
620.695580,0.172733
621.013120,0.171339
621.330620,0.174459
621.648080,0.171293
621.965500,0.176600
622.282880,0.171185
622.600220,0.175300
622.917520,0.176118
623.234780,0.175506
623.552000,0.174093
623.869180,0.175544
624.186320,0.174785
624.503420,0.177429
624.820480,0.179705
625.137500,0.176823
625.454480,0.182244
625.771420,0.183480
626.088320,0.179067
626.405180,0.183572
626.722000,0.179423
627.038780,0.179198
627.355520,0.180000
627.672220,0.180715
627.988880,0.183826
628.305500,0.184793
628.622080,0.186803
628.938620,0.186850
629.255120,0.190106
629.571580,0.183880
629.888000,0.183185
630.204380,0.184106
630.520720,0.189214
630.837020,0.193031
631.153280,0.187350
631.469500,0.186173
631.785680,0.184750
632.101820,0.188179
632.417920,0.191654
632.733980,0.189676
633.050000,0.196483
633.365980,0.190575
633.681920,0.193914
633.997820,0.195158
634.313680,0.196992
634.629500,0.193158
634.945280,0.193842
635.261020,0.192545
635.576720,0.194656
635.892380,0.194598
636.208000,0.194654
636.523580,0.197311
636.839120,0.196294
637.154620,0.197391
637.470080,0.198852
637.785500,0.201348
638.100880,0.202143
638.416220,0.203049
638.731520,0.197994
639.046780,0.199243
639.362000,0.196101
639.677180,0.199600
639.992320,0.203270
640.307420,0.200618
640.622480,0.198824
640.937500,0.205270
641.252480,0.204412
641.567420,0.201762
641.882320,0.202951
642.197180,0.205222
642.512000,0.205430
642.826780,0.203883
643.141520,0.209225
643.456220,0.209463
643.770880,0.207850
644.085500,0.209614
644.400080,0.205618
644.714620,0.209309
645.029120,0.213696
645.343580,0.209545
645.658000,0.213988
645.972380,0.215401
646.286720,0.210957
646.601020,0.210628
646.915280,0.214423
647.229500,0.214835
647.543680,0.212096
647.857820,0.212497
648.171920,0.210526
648.485980,0.212113
648.800000,0.210526
649.113980,0.217295
649.427920,0.213037
649.741820,0.211597
650.055680,0.217773
650.369500,0.220291
650.683280,0.219478
650.997020,0.219472
651.310720,0.216566
651.624380,0.218407
651.938000,0.218560
652.251580,0.220985
652.565120,0.219676
652.878620,0.217624
653.192080,0.220787
653.505500,0.219355
653.818880,0.224623
654.132220,0.227001
654.445520,0.224901
654.758780,0.224079
655.072000,0.223496
655.385180,0.225392
655.698320,0.227208
656.011420,0.222987
656.324480,0.231711
656.637500,0.225956
656.950480,0.225191
657.263420,0.228200
657.576320,0.224429
657.889180,0.225302
658.202000,0.230676
658.514780,0.229533
658.827520,0.228691
659.140220,0.227450
659.452880,0.230746
659.765500,0.233594
660.078080,0.226903
660.390620,0.228842
660.703120,0.233731
661.015580,0.236810
661.328000,0.236776
661.640380,0.234545
661.952720,0.240424
662.265020,0.240391
662.577280,0.235687
662.889500,0.235888
663.201680,0.239311
663.513820,0.240913
663.825920,0.237912
664.137980,0.244021
664.450000,0.237852
664.761980,0.237316
665.073920,0.238234
665.385820,0.241165
665.697680,0.242975
666.009500,0.241437
666.321280,0.244201
666.633020,0.243351
666.944720,0.243006
667.256380,0.244616
667.568000,0.240489
667.879580,0.247279
668.191120,0.247596
668.502620,0.241356
668.814080,0.250175
669.125500,0.246664
669.436880,0.248271
669.748220,0.247490
670.059520,0.251401
670.370780,0.252958
670.682000,0.250973
670.993180,0.247357
671.304320,0.252461
671.615420,0.250000
671.926480,0.254436
672.237500,0.251876
672.548480,0.252661
672.859420,0.257327
673.170320,0.257526
673.481180,0.262853
673.792000,0.253516
674.102780,0.257451
674.413520,0.252279
674.724220,0.257713
675.034880,0.261093
675.345500,0.257841
675.656080,0.255172
675.966620,0.262641
676.277120,0.260710
676.587580,0.262887
676.898000,0.261292
677.208380,0.260998
677.518720,0.260759
677.829020,0.266075
678.139280,0.263529
678.449500,0.266246
678.759680,0.265643
679.069820,0.265056
679.379920,0.264806
679.689980,0.264389
680.000000,0.266916
680.309980,0.268374
680.619920,0.271488
680.929820,0.264278
681.239680,0.269941
681.549500,0.270370
681.859280,0.269231
682.169020,0.271913
682.478720,0.272251
682.788380,0.273164
683.098000,0.274869
683.407580,0.269794
683.717120,0.278529
684.026620,0.278238
684.336080,0.273967
684.645500,0.272353
684.954880,0.270495
685.264220,0.281993
685.573520,0.282071
685.882780,0.278097
686.192000,0.278029
686.501180,0.277715
686.810320,0.278632
687.119420,0.282402
687.428480,0.282567
687.737500,0.287030
688.046480,0.285660
688.355420,0.284798
688.664320,0.286151
688.973180,0.281776
689.282000,0.290123
689.590780,0.289110
689.899520,0.278769
690.208220,0.292049
690.516880,0.289805
690.825500,0.284528
691.134080,0.280562
691.442620,0.287348
691.751120,0.290102
692.059580,0.290791
692.368000,0.284741
692.676380,0.295420
692.984720,0.288931
693.293020,0.291033
693.601280,0.293018
693.909500,0.286795
694.217680,0.292079
694.525820,0.296268
694.833920,0.294926
695.141980,0.293482
695.450000,0.297328
695.757980,0.296409
696.065920,0.299029
696.373820,0.305235
696.681680,0.297277
696.989500,0.301428
697.297280,0.296772
697.605020,0.306349
697.912720,0.297463
698.220380,0.299882
698.528000,0.301820
698.835580,0.302252
699.143120,0.296960
699.450620,0.300716
699.758080,0.302745
700.065500,0.309657
700.372880,0.313600
700.680220,0.303550
700.987520,0.312302
701.294780,0.314680
701.602000,0.307845
701.909180,0.311208
702.216320,0.309347
702.523420,0.310971
702.830480,0.314059
703.137500,0.309431
703.444480,0.315187
703.751420,0.310454
704.058320,0.305896
704.365180,0.315457
704.672000,0.316436
704.978780,0.311354
705.285520,0.316119
705.592220,0.309020
705.898880,0.314421
706.205500,0.316510
706.512080,0.317536
706.818620,0.314241
707.125120,0.317692
707.431580,0.314576
707.738000,0.323828
708.044380,0.317638
708.350720,0.321360
708.657020,0.327472
708.963280,0.316770
709.269500,0.319374
709.575680,0.324951
709.881820,0.323899
710.187920,0.324514
710.493980,0.319240
710.800000,0.322273
711.105980,0.321536
711.411920,0.321246
711.717820,0.322807
712.023680,0.319471
712.329500,0.330836
712.635280,0.329845
712.941020,0.325474
713.246720,0.328854
713.552380,0.333987
713.858000,0.329129
714.163580,0.329124
714.469120,0.326690
714.774620,0.339124
715.080080,0.332941
715.385500,0.340128
715.690880,0.333728
715.996220,0.334390
716.301520,0.334783
716.606780,0.342767
716.912000,0.339257
717.217180,0.334796
717.522320,0.341551
717.827420,0.334825
718.132480,0.338017
718.437500,0.344884
718.742480,0.343548
719.047420,0.335356
719.352320,0.344956
719.657180,0.343418
719.962000,0.339950
720.266780,0.341919
720.571520,0.338857
720.876220,0.341244
721.180880,0.339883
721.485500,0.340159
721.790080,0.343524
722.094620,0.351630
722.399120,0.348557
722.703580,0.341620
723.008000,0.344976
723.312380,0.344813
723.616720,0.335742
723.921020,0.349502
724.225280,0.352967
724.529500,0.343257
724.833680,0.355872
725.137820,0.359471
725.441920,0.353544
725.745980,0.355257
726.050000,0.353180
726.353980,0.347454
726.657920,0.354926
726.961820,0.354795
727.265680,0.358299
727.569500,0.353748
727.873280,0.355196
728.177020,0.355596
728.480720,0.356944
728.784380,0.362612
729.088000,0.360339
729.391580,0.356703
729.695120,0.363244
729.998620,0.365201
730.302080,0.356079
730.605500,0.360990
730.908880,0.364527
731.212220,0.363369
731.515520,0.362750
731.818780,0.364078
732.122000,0.366634
732.425180,0.358797
732.728320,0.364403
733.031420,0.361905
733.334480,0.365816
733.637500,0.357863
733.940480,0.358240
734.243420,0.366972
734.546320,0.372925
734.849180,0.361570
735.152000,0.368776
735.454780,0.366736
735.757520,0.371444
736.060220,0.365982
736.362880,0.369748
736.665500,0.366580
736.968080,0.377217
737.270620,0.377790
737.573120,0.371725
737.875580,0.371633
738.178000,0.371257
738.480380,0.374595
738.782720,0.372410
739.085020,0.375551
739.387280,0.366962
739.689500,0.374292
739.991680,0.375070
740.293820,0.374240
740.595920,0.372844
740.897980,0.380011
741.200000,0.382501
741.501980,0.382235
741.803920,0.380068
742.105820,0.375635
742.407680,0.380897
742.709500,0.382955
743.011280,0.381008
743.313020,0.386087
743.614720,0.376088
743.916380,0.380233
744.218000,0.384248
744.519580,0.392512
744.821120,0.391018
745.122620,0.393050
745.424080,0.382812
745.725500,0.385033
746.026880,0.392241
746.328220,0.387176
746.629520,0.387718
746.930780,0.382966
747.232000,0.386266
747.533180,0.389872
747.834320,0.394400
748.135420,0.377253
748.436480,0.381784
748.737500,0.387894
749.038480,0.384850
749.339420,0.395769
749.640320,0.397234
749.941180,0.392879
750.242000,0.394472
750.542780,0.393921
750.843520,0.398463
751.144220,0.396795
751.444880,0.399493
751.745500,0.387013
752.046080,0.415010
752.346620,0.389820
752.647120,0.400392
752.947580,0.397154
753.248000,0.396518
753.548380,0.399480
753.848720,0.399871
754.149020,0.384268
754.449280,0.397899
754.749500,0.403451
755.049680,0.396667
755.349820,0.395597
755.649920,0.399868
755.949980,0.412077
756.250000,0.406312
756.549980,0.392739
756.849920,0.405167
757.149820,0.394544
757.449680,0.401980
757.749500,0.411725
758.049280,0.414334
758.349020,0.399861
758.648720,0.416149
758.948380,0.404124
759.248000,0.409030
759.547580,0.406859
759.847120,0.406616
760.146620,0.414073
760.446080,0.415323
760.745500,0.413287
761.044880,0.416903
761.344220,0.414113
761.643520,0.419492
761.942780,0.419874
762.242000,0.417256
762.541180,0.420423
762.840320,0.415730
763.139420,0.413502
763.438480,0.409433
763.737500,0.425913
764.036480,0.412299
764.335420,0.407198
764.634320,0.415107
764.933180,0.419178
765.232000,0.408050
765.530780,0.421754
765.829520,0.428671
766.128220,0.434238
766.426880,0.431414
766.725500,0.423578
767.024080,0.418381
767.322620,0.420470
767.621120,0.424119
767.919580,0.421160
768.218000,0.425445
768.516380,0.428668
768.814720,0.423182
769.113020,0.431427
769.411280,0.441298
769.709500,0.432341
770.007680,0.433538
770.305820,0.432725
770.603920,0.419137
770.901980,0.426913
771.200000,0.438859
771.497980,0.424263
771.795920,0.422074
772.093820,0.423797
772.391680,0.433092
772.689500,0.429054
772.987280,0.432997
773.285020,0.434723
773.582720,0.446622
773.880380,0.435141
774.178000,0.436264
774.475580,0.433356
774.773120,0.435743
775.070620,0.441515
775.368080,0.436206
775.665500,0.436535
775.962880,0.441628
776.260220,0.442799
776.557520,0.448299
776.854780,0.442867
777.152000,0.431034
777.449180,0.439649
777.746320,0.432796
778.043420,0.440655
778.340480,0.442490
778.637500,0.442867
778.934480,0.441829
779.231420,0.452510
779.528320,0.436874
779.825180,0.430171
780.122000,0.438911
780.418780,0.450068
780.715520,0.450704
781.012220,0.460274
781.308880,0.450304
781.605500,0.457534
781.902080,0.446954
782.198620,0.455229
782.495120,0.450617
782.791580,0.462861
783.088000,0.453416
783.384380,0.450481
783.680720,0.447332
783.977020,0.450791
784.273280,0.458042
784.569500,0.468903
784.865680,0.450626
785.161820,0.446528
785.457920,0.455301
785.753980,0.464061
786.050000,0.451657
786.345980,0.457639
786.641920,0.452464
786.937820,0.460114
787.233680,0.452331
787.529500,0.452843
787.825280,0.463173
788.121020,0.464589
788.416720,0.446013
788.712380,0.454161
789.008000,0.453258
789.303580,0.466431
789.599120,0.474909
789.894620,0.470036
790.190080,0.467005
790.485500,0.457883
790.780880,0.458065
791.076220,0.465368
791.371520,0.468410
791.666780,0.474909
791.962000,0.472447
792.257180,0.464129
792.552320,0.467730
792.847420,0.458515
793.142480,0.478388
793.437500,0.460926
793.732480,0.463058
794.027420,0.471068
794.322320,0.475764
794.617180,0.469539
794.912000,0.464339
795.206780,0.464579
795.501520,0.472243
795.796220,0.457778
796.090880,0.470234
796.385500,0.472264
796.680080,0.466717
796.974620,0.478293
797.269120,0.472369
797.563580,0.475573
797.858000,0.470008
798.152380,0.484919
798.446720,0.485385
798.741020,0.476888
799.035280,0.477484
799.329500,0.478060
799.623680,0.488372
