399.985280,0.378378
400.329500,0.378378
400.673680,0.392405
401.017820,0.397059
401.361920,0.469697
401.705980,0.365854
402.050000,0.363636
402.393980,0.400000
402.737920,0.382022
403.081820,0.360825
403.425680,0.441860
403.769500,0.322917
404.113280,0.402299
404.457020,0.438202
404.800720,0.369565
405.144380,0.373737
405.488000,0.387097
405.831580,0.422680
406.175120,0.404255
406.518620,0.370000
406.862080,0.391753
407.205500,0.354167
407.548880,0.438776
407.892220,0.382353
408.235520,0.382979
408.578780,0.371429
408.922000,0.336538
409.265180,0.383838
409.608320,0.414141
409.951420,0.463918
410.294480,0.490196
410.637500,0.423913
410.980480,0.382353
411.323420,0.387755
411.666320,0.348624
412.009180,0.427273
412.352000,0.356436
412.694780,0.385321
413.037520,0.357798
413.380220,0.396396
413.722880,0.428571
414.065500,0.387387
414.408080,0.424779
414.750620,0.345133
415.093120,0.355372
415.435580,0.403361
415.778000,0.393939
416.120380,0.403361
416.462720,0.412698
416.805020,0.390977
417.147280,0.388060
417.489500,0.385714
417.831680,0.363014
418.173820,0.368794
418.515920,0.405594
418.857980,0.367089
419.200000,0.410256
419.541980,0.402367
419.883920,0.382022
420.225820,0.404624
420.567680,0.379888
420.909500,0.371585
421.251280,0.369792
421.593020,0.397959
421.934720,0.373737
422.276380,0.384615
422.618000,0.397059
422.959580,0.406863
423.301120,0.401826
423.642620,0.352174
423.984080,0.348837
424.325500,0.381166
424.666880,0.366379
425.008220,0.352941
425.349520,0.389831
425.690780,0.357692
426.032000,0.364706
426.373180,0.390041
426.714320,0.355469
427.055420,0.362934
427.396480,0.352060
427.737500,0.363636
428.078480,0.371542
428.419420,0.345382
428.760320,0.318008
429.101180,0.358268
429.442000,0.367816
429.782780,0.334615
430.123520,0.380392
430.464220,0.380074
430.804880,0.390805
431.145500,0.338182
431.486080,0.359551
431.826620,0.368217
432.167120,0.345588
432.507580,0.373188
432.848000,0.338129
433.188380,0.339350
433.528720,0.366038
433.869020,0.360714
434.209280,0.305263
434.549500,0.344948
434.889680,0.370370
435.229820,0.344710
435.569920,0.335640
435.909980,0.326861
436.250000,0.342373
436.589980,0.306502
436.929920,0.349206
437.269820,0.322884
437.609680,0.346154
437.949500,0.343373
438.289280,0.345609
438.629020,0.357558
438.968720,0.348837
439.308380,0.325203
439.648000,0.336986
439.987580,0.335979
440.327120,0.354667
440.666620,0.340260
441.006080,0.342711
441.345500,0.341523
441.684880,0.346890
442.024220,0.320099
442.363520,0.328571
442.702780,0.334091
443.042000,0.323789
443.381180,0.336207
443.720320,0.349892
444.059420,0.325630
444.398480,0.315900
444.737500,0.325820
445.076480,0.325397
445.415420,0.321357
445.754320,0.313929
446.093180,0.330275
446.432000,0.327068
446.770780,0.330171
447.109520,0.318015
447.448220,0.327370
447.786880,0.345259
448.125500,0.317241
448.464080,0.321429
448.802620,0.320922
449.141120,0.328720
449.479580,0.337413
449.818000,0.313253
450.156380,0.309365
450.494720,0.317355
450.833020,0.312937
451.171280,0.315068
451.509500,0.324042
451.847680,0.305228
452.185820,0.306368
452.523920,0.335052
452.861980,0.310287
453.200000,0.292359
453.537980,0.295798
453.875920,0.307563
454.213820,0.309932
454.551680,0.307947
454.889500,0.308600
455.227280,0.300712
455.565020,0.316583
455.902720,0.314476
456.240380,0.281198
456.578000,0.289199
456.915580,0.290155
457.253120,0.284539
457.590620,0.295567
457.928080,0.299663
458.265500,0.292230
458.602880,0.292208
458.940220,0.279188
459.277520,0.286400
459.614780,0.286416
459.952000,0.273292
460.289180,0.303797
460.626320,0.296063
460.963420,0.287561
461.300480,0.290520
461.637500,0.280431
461.974480,0.276758
462.311420,0.284650
462.648320,0.272328
462.985180,0.261119
463.322000,0.291667
463.658780,0.274862
463.995520,0.272352
464.332220,0.281163
464.668880,0.279570
465.005500,0.269437
465.342080,0.266325
465.678620,0.266913
466.015120,0.275550
466.351580,0.285714
466.688000,0.277710
467.024380,0.274605
467.360720,0.268182
467.697020,0.261959
468.033280,0.268889
468.369500,0.288079
468.705680,0.259301
469.041820,0.269792
469.377920,0.259219
469.713980,0.263646
470.050000,0.268599
470.385980,0.257339
470.721920,0.254652
471.057820,0.267057
471.393680,0.260992
471.729500,0.260426
472.065280,0.269231
472.401020,0.250887
472.736720,0.257417
473.072380,0.259425
473.408000,0.257615
473.743580,0.257785
474.079120,0.257537
474.414620,0.250212
474.750080,0.251424
475.085500,0.256579
475.420880,0.250624
475.756220,0.251840
476.091520,0.254049
476.426780,0.247573
476.762000,0.238938
477.097180,0.247200
477.432320,0.243942
477.767420,0.242647
478.102480,0.243307
478.437500,0.243021
478.772480,0.239559
479.107420,0.248983
479.442320,0.246203
479.777180,0.249006
480.112000,0.245763
480.446780,0.237724
480.781520,0.232689
481.116220,0.232821
481.450880,0.234973
481.785500,0.245253
482.120080,0.238245
482.454620,0.229215
482.789120,0.240446
483.123580,0.229751
483.458000,0.226266
483.792380,0.230831
484.126720,0.227799
484.461020,0.224044
484.795280,0.230532
485.129500,0.236165
485.463680,0.227132
485.797820,0.227061
486.131920,0.228003
486.465980,0.219305
486.800000,0.229771
487.133980,0.216767
487.467920,0.217292
487.801820,0.234172
488.135680,0.219105
488.469500,0.214826
488.803280,0.226597
489.137020,0.215385
489.470720,0.217359
489.804380,0.224202
490.138000,0.221810
490.471580,0.220339
490.805120,0.213009
491.138620,0.213930
491.472080,0.219788
491.805500,0.214086
492.138880,0.211953
492.472220,0.219377
492.805520,0.217877
493.138780,0.221916
493.472000,0.217391
493.805180,0.219645
494.138320,0.214143
494.471420,0.212240
494.804480,0.202458
495.137500,0.206675
495.470480,0.211600
495.803420,0.204030
496.136320,0.211779
496.469180,0.205648
496.802000,0.206601
497.134780,0.207398
497.467520,0.204281
497.800220,0.201651
498.132880,0.198707
498.465500,0.203940
498.798080,0.204338
499.130620,0.197080
499.463120,0.199888
499.795580,0.201320
500.128000,0.197275
500.460380,0.198601
500.792720,0.196713
501.125020,0.201261
501.457280,0.192167
501.789500,0.189566
502.121680,0.197512
502.453820,0.194289
502.785920,0.196098
503.117980,0.197252
503.450000,0.198393
503.781980,0.199302
504.113920,0.186344
504.445820,0.190569
504.777680,0.186824
505.109500,0.190865
505.441280,0.192161
505.773020,0.186473
506.104720,0.188413
506.436380,0.194983
506.768000,0.189429
507.099580,0.185812
507.431120,0.188759
507.762620,0.189380
508.094080,0.184139
508.425500,0.189542
508.756880,0.185642
509.088220,0.187213
509.419520,0.182961
509.750780,0.189316
510.082000,0.184701
510.413180,0.181483
510.744320,0.182237
511.075420,0.180110
511.406480,0.176305
511.737500,0.177778
512.068480,0.178571
512.399420,0.179812
512.730320,0.172286
513.061180,0.177450
513.392000,0.177473
513.722780,0.171950
514.053520,0.174413
514.384220,0.173168
514.714880,0.172810
515.045500,0.170019
515.376080,0.174334
515.706620,0.168047
516.037120,0.174510
516.367580,0.170527
516.698000,0.169118
517.028380,0.169811
517.358720,0.170370
517.689020,0.175569
518.019280,0.170095
518.349500,0.164724
518.679680,0.164059
519.009820,0.170547
519.339920,0.168337
519.669980,0.168759
520.000000,0.167091
520.329980,0.167963
520.659920,0.164622
520.989820,0.172343
521.319680,0.166667
521.649500,0.167095
521.979280,0.165971
522.309020,0.159232
522.638720,0.160778
522.968380,0.170114
523.298000,0.163361
523.627580,0.163476
523.957120,0.159481
524.286620,0.162064
524.616080,0.166494
524.945500,0.164858
525.274880,0.170857
525.604220,0.160455
525.933520,0.160377
526.262780,0.156107
526.592000,0.156773
526.921180,0.159980
527.250320,0.159817
527.579420,0.164224
527.908480,0.157558
528.237500,0.158888
528.566480,0.161677
528.895420,0.152292
529.224320,0.155027
529.553180,0.157108
529.882000,0.159124
530.210780,0.157336
530.539520,0.152924
530.868220,0.156534
531.196880,0.154324
531.525500,0.160775
531.854080,0.156660
532.182620,0.156002
532.511120,0.156381
532.839580,0.155172
533.168000,0.150866
533.496380,0.152055
533.824720,0.149394
534.153020,0.155149
534.481280,0.156388
534.809500,0.158311
535.137680,0.153646
535.465820,0.150773
535.793920,0.146785
536.121980,0.152749
536.450000,0.151797
536.777980,0.157101
537.105920,0.155666
537.433820,0.152209
537.761680,0.152653
538.089500,0.155807
538.417280,0.148030
538.745020,0.148970
539.072720,0.150332
539.400380,0.152292
539.728000,0.151434
540.055580,0.146816
540.383120,0.151899
540.710620,0.150670
541.038080,0.151236
541.365500,0.148529
541.692880,0.150073
542.020220,0.147175
542.347520,0.151472
542.674780,0.144672
543.002000,0.146956
543.329180,0.149071
543.656320,0.152250
543.983420,0.148376
544.310480,0.146109
544.637500,0.143296
544.964480,0.147039
545.291420,0.143569
545.618320,0.146082
545.945180,0.144693
546.272000,0.143185
546.598780,0.141265
546.925520,0.142104
547.252220,0.144602
547.578880,0.142717
547.905500,0.141176
548.232080,0.145549
548.558620,0.146111
548.885120,0.141642
549.211580,0.140469
549.538000,0.145266
549.864380,0.145016
550.190720,0.145948
550.517020,0.142764
550.843280,0.142671
551.169500,0.139631
551.495680,0.141261
551.821820,0.146963
552.147920,0.142485
552.473980,0.145868
552.800000,0.142904
553.125980,0.142436
553.451920,0.141672
553.777820,0.144903
554.103680,0.137176
554.429500,0.133914
554.755280,0.139519
555.081020,0.139372
555.406720,0.138503
555.732380,0.139275
556.058000,0.142227
556.383580,0.139336
556.709120,0.138525
557.034620,0.141578
557.360080,0.145769
557.685500,0.142808
558.010880,0.137608
558.336220,0.136731
558.661520,0.140021
558.986780,0.139972
559.312000,0.138533
559.637180,0.138600
559.962320,0.139907
560.287420,0.138575
560.612480,0.139935
560.937500,0.137298
561.262480,0.138196
561.587420,0.142184
561.912320,0.136699
562.237180,0.138786
562.562000,0.140666
562.886780,0.141211
563.211520,0.141207
563.536220,0.141744
563.860880,0.144097
564.185500,0.137336
564.510080,0.142212
564.834620,0.139561
565.159120,0.139474
565.483580,0.143292
565.808000,0.141506
566.132380,0.141365
566.456720,0.138700
566.781020,0.142911
567.105280,0.138374
567.429500,0.142640
567.753680,0.144227
568.077820,0.139930
568.401920,0.144003
568.725980,0.137381
569.050000,0.139163
569.373980,0.140845
569.697920,0.142207
570.021820,0.140449
570.345680,0.137007
570.669500,0.141167
570.993280,0.139166
571.317020,0.143223
571.640720,0.144498
571.964380,0.141425
572.288000,0.140950
572.611580,0.144890
572.935120,0.142536
573.258620,0.135752
573.582080,0.142325
573.905500,0.142219
574.228880,0.141425
574.552220,0.141077
574.875520,0.144453
575.198780,0.140947
575.522000,0.140396
575.845180,0.137894
576.168320,0.141574
576.491420,0.143895
576.814480,0.145027
577.137500,0.150072
577.460480,0.144980
577.783420,0.141479
578.106320,0.146368
578.429180,0.143514
578.752000,0.146926
579.074780,0.145651
579.397520,0.144287
579.720220,0.146396
580.042880,0.145358
580.365500,0.146261
580.688080,0.145862
581.010620,0.147486
581.333120,0.144957
581.655580,0.151182
581.978000,0.150316
582.300380,0.148004
582.622720,0.147660
582.945020,0.149870
583.267280,0.147183
583.589500,0.144783
583.911680,0.145443
584.233820,0.147938
584.555920,0.149701
584.877980,0.149183
585.200000,0.147023
585.521980,0.151684
585.843920,0.148566
586.165820,0.150518
586.487680,0.147457
586.809500,0.148515
587.131280,0.145519
587.453020,0.152976
587.774720,0.151390
588.096380,0.151984
588.418000,0.151302
588.739580,0.150905
589.061120,0.150086
589.382620,0.149570
589.704080,0.152034
590.025500,0.152683
590.346880,0.152333
590.668220,0.151778
590.989520,0.149196
591.310780,0.148025
591.632000,0.153552
591.953180,0.154996
592.274320,0.152334
592.595420,0.149784
592.916480,0.151318
593.237500,0.156831
593.558480,0.155233
593.879420,0.156731
594.200320,0.156978
594.521180,0.159097
594.842000,0.160935
595.162780,0.155716
595.483520,0.160596
595.804220,0.157895
596.124880,0.158007
596.445500,0.157192
596.766080,0.161603
597.086620,0.160297
597.407120,0.158768
597.727580,0.159905
598.048000,0.158159
598.368380,0.157286
598.688720,0.155963
599.009020,0.163217
599.329280,0.163119
599.649500,0.160592
599.969680,0.159188
600.289820,0.159722
600.609920,0.157360
600.929980,0.163282
601.250000,0.164595
601.569980,0.160951
601.889920,0.162791
602.209820,0.162608
602.529680,0.168086
602.849500,0.161757
603.169280,0.166437
603.489020,0.161362
603.808720,0.160176
604.128380,0.163631
604.448000,0.165746
604.767580,0.162849
605.087120,0.164543
605.406620,0.162049
605.726080,0.169661
606.045500,0.168571
606.364880,0.166997
606.684220,0.169332
607.003520,0.165998
607.322780,0.164866
607.642000,0.170017
607.961180,0.167100
608.280320,0.170824
608.599420,0.168019
608.918480,0.165982
609.237500,0.168134
609.556480,0.171057
609.875420,0.169522
610.194320,0.171538
610.513180,0.172240
610.832000,0.171531
611.150780,0.173626
611.469520,0.170437
611.788220,0.173216
612.106880,0.171592
612.425500,0.171437
612.744080,0.176670
613.062620,0.175229
613.381120,0.173065
613.699580,0.175966
614.018000,0.177826
614.336380,0.177668
614.654720,0.173333
614.973020,0.168775
615.291280,0.175395
615.609500,0.181300
615.927680,0.176452
616.245820,0.173160
616.563920,0.176873
616.881980,0.176489
617.200000,0.178538
617.517980,0.180772
617.835920,0.176452
618.153820,0.178427
618.471680,0.183256
618.789500,0.182190
619.107280,0.183725
619.425020,0.180146
619.742720,0.179535
620.060380,0.176747
620.378000,0.185337
620.695580,0.180715
621.013120,0.182677
621.330620,0.184813
621.648080,0.184858
621.965500,0.184442
622.282880,0.183796
622.600220,0.181301
622.917520,0.185255
623.234780,0.189650
623.552000,0.188097
623.869180,0.188780
624.186320,0.188157
624.503420,0.190282
624.820480,0.191957
625.137500,0.188506
625.454480,0.188809
625.771420,0.189155
626.088320,0.189470
626.405180,0.191039
626.722000,0.191656
627.038780,0.196429
627.355520,0.189375
627.672220,0.192535
627.988880,0.194090
628.305500,0.195388
628.622080,0.192999
628.938620,0.197248
629.255120,0.198507
629.571580,0.200429
629.888000,0.196993
630.204380,0.197913
630.520720,0.195917
630.837020,0.199507
631.153280,0.201439
631.469500,0.207095
631.785680,0.199216
632.101820,0.204463
632.417920,0.201490
632.733980,0.199580
633.050000,0.204973
633.365980,0.199467
633.681920,0.198986
633.997820,0.206515
634.313680,0.204364
634.629500,0.207608
634.945280,0.204106
635.261020,0.207514
635.576720,0.202290
635.892380,0.203021
636.208000,0.207147
636.523580,0.214849
636.839120,0.210481
637.154620,0.210725
637.470080,0.210904
637.785500,0.214830
638.100880,0.210831
638.416220,0.217429
638.731520,0.209456
639.046780,0.210312
639.362000,0.211583
639.677180,0.215306
639.992320,0.216521
640.307420,0.219444
640.622480,0.214506
640.937500,0.215534
641.252480,0.220609
641.567420,0.217675
641.882320,0.219098
642.197180,0.221505
642.512000,0.218584
642.826780,0.218031
643.141520,0.216727
643.456220,0.227449
643.770880,0.222775
644.085500,0.219676
644.400080,0.223034
644.714620,0.226867
645.029120,0.223322
645.343580,0.223807
645.658000,0.221205
645.972380,0.223623
646.286720,0.224584
646.601020,0.228619
646.915280,0.228955
647.229500,0.224176
647.543680,0.227285
647.857820,0.227911
648.171920,0.228703
648.485980,0.229926
648.800000,0.224580
649.113980,0.227550
649.427920,0.233010
649.741820,0.230833
650.055680,0.233955
650.369500,0.228980
650.683280,0.236959
650.997020,0.226623
651.310720,0.230325
651.624380,0.223901
651.938000,0.239889
652.251580,0.235736
652.565120,0.236445
652.878620,0.234797
653.192080,0.236517
653.505500,0.238149
653.818880,0.235997
654.132220,0.236400
654.445520,0.236245
654.758780,0.238244
655.072000,0.240115
655.385180,0.237090
655.698320,0.239497
656.011420,0.239897
656.324480,0.241038
656.637500,0.240151
656.950480,0.244862
657.263420,0.245640
657.576320,0.245479
657.889180,0.245650
658.202000,0.244565
658.514780,0.247395
658.827520,0.247899
659.140220,0.244231
659.452880,0.246753
659.765500,0.250753
660.078080,0.246163
660.390620,0.248701
660.703120,0.250229
661.015580,0.254601
661.328000,0.253778
661.640380,0.251010
661.952720,0.252569
662.265020,0.254883
662.577280,0.254453
662.889500,0.251971
663.201680,0.259094
663.513820,0.257639
663.825920,0.252642
664.137980,0.255010
664.450000,0.250639
664.761980,0.259902
665.073920,0.252840
665.385820,0.257199
665.697680,0.252893
666.009500,0.264716
666.321280,0.258449
666.633020,0.258976
666.944720,0.254803
667.256380,0.264468
667.568000,0.261209
667.879580,0.258503
668.191120,0.264080
668.502620,0.258815
668.814080,0.264211
669.125500,0.260349
669.436880,0.262794
669.748220,0.259952
670.059520,0.264356
670.370780,0.265484
670.682000,0.263717
670.993180,0.268147
671.304320,0.269691
671.615420,0.269886
671.926480,0.268985
672.237500,0.268310
672.548480,0.272889
672.859420,0.269836
673.170320,0.273486
673.481180,0.275525
673.792000,0.268301
674.102780,0.264273
674.413520,0.271236
674.724220,0.272232
675.034880,0.276494
675.345500,0.273523
675.656080,0.274047
675.966620,0.276100
676.277120,0.277554
676.587580,0.276141
676.898000,0.280702
677.208380,0.273567
677.518720,0.277170
677.829020,0.280857
678.139280,0.274277
678.449500,0.278871
678.759680,0.279131
679.069820,0.278067
679.379920,0.287061
679.689980,0.281099
680.000000,0.285607
680.309980,0.286192
680.619920,0.278682
680.929820,0.281822
681.239680,0.278434
681.549500,0.287037
681.859280,0.285288
682.169020,0.287952
682.478720,0.291698
682.788380,0.289406
683.098000,0.284966
683.407580,0.292308
683.717120,0.289039
684.026620,0.295557
684.336080,0.294051
684.645500,0.283202
684.954880,0.294673
685.264220,0.294828
685.573520,0.297678
685.882780,0.298044
686.192000,0.290820
686.501180,0.297011
686.810320,0.300922
687.119420,0.300646
687.428480,0.298519
687.737500,0.295856
688.046480,0.292178
688.355420,0.298755
688.664320,0.299158
688.973180,0.296708
689.282000,0.301312
689.590780,0.297929
689.899520,0.302697
690.208220,0.308486
690.516880,0.303551
690.825500,0.303019
691.134080,0.296887
691.442620,0.301067
691.751120,0.299204
692.059580,0.303783
692.368000,0.304430
692.676380,0.308015
692.984720,0.305725
693.293020,0.312690
693.601280,0.310950
693.909500,0.311389
694.217680,0.310358
694.525820,0.310358
694.833920,0.309042
695.141980,0.311223
695.450000,0.319466
695.757980,0.310542
696.065920,0.310291
696.373820,0.314088
696.681680,0.317990
696.989500,0.313007
697.297280,0.313497
697.605020,0.323016
697.912720,0.313605
698.220380,0.317985
698.528000,0.328718
698.835580,0.323192
699.143120,0.319174
699.450620,0.323787
699.758080,0.317647
700.065500,0.325619
700.372880,0.320800
700.680220,0.325090
700.987520,0.327778
701.294780,0.326845
701.602000,0.325277
701.909180,0.330684
702.216320,0.324599
702.523420,0.320442
702.830480,0.328317
703.137500,0.324630
703.444480,0.332939
703.751420,0.336095
704.058320,0.330036
704.365180,0.330442
704.672000,0.327921
704.978780,0.321108
705.285520,0.328638
705.592220,0.330980
705.898880,0.338455
706.205500,0.338028
706.512080,0.333333
706.818620,0.335526
707.125120,0.340385
707.431580,0.335678
707.738000,0.336328
708.044380,0.334234
708.350720,0.335499
708.657020,0.341930
708.963280,0.338509
709.269500,0.338943
709.575680,0.337917
709.881820,0.345126
710.187920,0.342023
710.493980,0.339410
710.800000,0.347445
711.105980,0.336973
711.411920,0.337801
711.717820,0.339961
712.023680,0.342013
712.329500,0.347397
712.635280,0.343798
712.941020,0.351759
713.246720,0.348221
713.552380,0.355965
713.858000,0.345684
714.163580,0.346882
714.469120,0.349746
714.774620,0.347019
715.080080,0.351786
715.385500,0.352918
715.690880,0.352268
715.996220,0.353407
716.301520,0.348221
716.606780,0.350629
716.912000,0.356220
717.217180,0.349960
717.522320,0.353082
717.827420,0.357201
718.132480,0.352067
718.437500,0.352629
718.742480,0.360887
719.047420,0.354773
719.352320,0.358655
719.657180,0.361406
719.962000,0.356493
720.266780,0.359369
720.571520,0.357498
720.876220,0.367021
721.180880,0.359114
721.485500,0.358546
721.790080,0.363057
722.094620,0.366638
722.399120,0.363636
722.703580,0.354479
723.008000,0.373437
723.312380,0.369350
723.616720,0.363791
723.921020,0.369857
724.225280,0.362565
724.529500,0.365587
724.833680,0.370107
725.137820,0.368282
725.441920,0.370932
725.745980,0.367785
726.050000,0.372576
726.353980,0.367733
726.657920,0.372470
726.961820,0.370320
727.265680,0.373093
727.569500,0.372943
727.873280,0.380600
728.177020,0.372179
728.480720,0.375000
728.784380,0.378581
729.088000,0.372586
729.391580,0.372809
729.695120,0.383397
729.998620,0.384321
730.302080,0.377222
730.605500,0.369238
730.908880,0.378736
731.212220,0.385406
731.515520,0.374939
731.818780,0.376214
732.122000,0.383366
732.425180,0.374076
732.728320,0.382747
733.031420,0.380952
733.334480,0.381122
733.637500,0.383065
733.940480,0.384852
734.243420,0.382773
734.546320,0.386411
734.849180,0.388430
735.152000,0.382780
735.454780,0.374483
735.757520,0.390938
736.060220,0.395471
736.362880,0.386029
736.665500,0.385379
736.968080,0.389038
737.270620,0.390310
737.573120,0.394105
737.875580,0.399120
738.178000,0.388677
738.480380,0.387568
738.782720,0.387132
739.085020,0.381057
739.387280,0.397450
739.689500,0.392978
739.991680,0.398091
740.293820,0.398010
740.595920,0.404563
740.897980,0.400339
741.200000,0.394840
741.501980,0.395989
741.803920,0.391892
742.105820,0.401015
742.407680,0.402446
742.709500,0.392045
743.011280,0.398593
743.313020,0.400000
743.614720,0.392339
743.916380,0.398837
744.218000,0.404535
744.519580,0.404589
744.821120,0.408982
745.122620,0.399641
745.424080,0.406250
745.725500,0.406156
746.026880,0.410099
746.328220,0.409371
746.629520,0.388320
746.930780,0.408701
747.232000,0.400368
747.533180,0.395363
747.834320,0.409008
748.135420,0.410814
748.436480,0.413600
748.737500,0.400865
749.038480,0.403787
749.339420,0.416926
749.640320,0.414833
749.941180,0.406621
750.242000,0.405151
750.542780,0.403846
750.843520,0.422806
751.144220,0.415385
751.444880,0.409639
751.745500,0.409740
752.046080,0.415651
752.346620,0.403995
752.647120,0.414108
752.947580,0.410737
753.248000,0.421663
753.548380,0.411191
753.848720,0.420476
754.149020,0.413926
754.449280,0.414314
754.749500,0.418049
755.049680,0.426667
755.349820,0.414943
755.649920,0.416391
755.949980,0.413404
756.250000,0.420776
756.549980,0.407921
756.849920,0.431679
757.149820,0.428476
757.449680,0.431683
757.749500,0.434219
758.049280,0.421843
758.349020,0.417942
758.648720,0.434092
758.948380,0.430241
759.248000,0.438679
759.547580,0.429052
759.847120,0.431427
760.146620,0.430988
760.446080,0.424731
760.745500,0.432867
761.044880,0.426847
761.344220,0.428368
761.643520,0.434322
761.942780,0.423373
762.242000,0.424328
762.541180,0.424648
762.840320,0.433989
763.139420,0.429677
763.438480,0.426521
763.737500,0.435562
764.036480,0.434661
764.335420,0.430487
764.634320,0.434511
764.933180,0.439041
765.232000,0.440666
765.530780,0.432281
765.829520,0.443357
766.128220,0.430759
766.426880,0.439943
766.725500,0.437286
767.024080,0.437586
767.322620,0.441217
767.621120,0.446477
767.919580,0.447099
768.218000,0.444596
768.516380,0.440162
768.814720,0.434156
769.113020,0.441075
769.411280,0.445442
769.709500,0.439783
770.007680,0.444444
770.305820,0.438810
770.603920,0.447439
770.901980,0.452186
771.200000,0.444973
771.497980,0.439008
771.795920,0.441472
772.093820,0.441176
772.391680,0.441002
772.689500,0.450000
772.987280,0.447138
773.285020,0.448394
773.582720,0.440541
773.880380,0.451613
774.178000,0.455351
774.475580,0.451440
774.773120,0.454485
775.070620,0.459094
775.368080,0.460254
775.665500,0.453996
775.962880,0.454303
776.260220,0.465680
776.557520,0.453636
776.854780,0.463151
777.152000,0.445623
777.449180,0.466622
777.746320,0.443548
778.043420,0.454297
778.340480,0.464817
778.637500,0.471264
778.934480,0.465367
779.231420,0.459294
779.528320,0.452906
779.825180,0.462451
780.122000,0.460159
780.418780,0.466484
780.715520,0.454058
781.012220,0.465753
781.308880,0.462475
781.605500,0.458904
781.902080,0.464750
782.198620,0.475735
782.495120,0.462963
782.791580,0.482118
783.088000,0.469289
783.384380,0.470426
783.680720,0.473324
783.977020,0.459050
784.273280,0.474126
784.569500,0.482180
784.865680,0.466620
785.161820,0.467361
785.457920,0.468468
785.753980,0.478716
786.050000,0.468232
786.345980,0.472222
786.641920,0.471201
786.937820,0.479345
787.233680,0.463466
787.529500,0.469487
787.825280,0.476629
788.121020,0.475212
788.416720,0.471418
788.712380,0.474612
789.008000,0.473796
789.303580,0.476325
789.599120,0.475636
789.894620,0.478700
790.190080,0.475707
790.485500,0.490281
790.780880,0.483154
791.076220,0.487013
791.371520,0.480755
791.666780,0.477818
791.962000,0.487142
792.257180,0.481698
792.552320,0.468455
792.847420,0.486172
793.142480,0.494505
793.437500,0.471780
793.732480,0.482078
794.027420,0.482938
794.322320,0.500373
794.617180,0.492571
794.912000,0.488113
795.206780,0.479493
795.501520,0.496578
795.796220,0.490370
796.090880,0.492841
796.385500,0.488006
796.680080,0.492147
796.974620,0.486527
797.269120,0.480696
797.563580,0.489313
797.858000,0.482156
798.152380,0.491879
798.446720,0.498462
798.741020,0.493837
799.035280,0.491460
799.329500,0.491147
799.623680,0.503876
