399.985280,0.405405
400.329500,0.418919
400.673680,0.417722
401.017820,0.382353
401.361920,0.439394
401.705980,0.353659
402.050000,0.389610
402.393980,0.423529
402.737920,0.404494
403.081820,0.360825
403.425680,0.453488
403.769500,0.291667
404.113280,0.344828
404.457020,0.449438
404.800720,0.380435
405.144380,0.343434
405.488000,0.376344
405.831580,0.443299
406.175120,0.340426
406.518620,0.370000
406.862080,0.381443
407.205500,0.312500
407.548880,0.336735
407.892220,0.274510
408.235520,0.382979
408.578780,0.380952
408.922000,0.375000
409.265180,0.414141
409.608320,0.424242
409.951420,0.412371
410.294480,0.441176
410.637500,0.369565
410.980480,0.372549
411.323420,0.346939
411.666320,0.357798
412.009180,0.436364
412.352000,0.346535
412.694780,0.348624
413.037520,0.339450
413.380220,0.324324
413.722880,0.410714
414.065500,0.369369
414.408080,0.345133
414.750620,0.327434
415.093120,0.363636
415.435580,0.394958
415.778000,0.393939
416.120380,0.361345
416.462720,0.333333
416.805020,0.375940
417.147280,0.358209
417.489500,0.378571
417.831680,0.363014
418.173820,0.368794
418.515920,0.419580
418.857980,0.367089
419.200000,0.358974
419.541980,0.384615
419.883920,0.359551
420.225820,0.358382
420.567680,0.351955
420.909500,0.371585
421.251280,0.369792
421.593020,0.357143
421.934720,0.343434
422.276380,0.348718
422.618000,0.357843
422.959580,0.382353
423.301120,0.360731
423.642620,0.334783
423.984080,0.334884
424.325500,0.336323
424.666880,0.357759
425.008220,0.357143
425.349520,0.338983
425.690780,0.330769
426.032000,0.329412
426.373180,0.356846
426.714320,0.351562
427.055420,0.347490
427.396480,0.348315
427.737500,0.339921
428.078480,0.320158
428.419420,0.349398
428.760320,0.325670
429.101180,0.338583
429.442000,0.363985
429.782780,0.334615
430.123520,0.349020
430.464220,0.321033
430.804880,0.352490
431.145500,0.341818
431.486080,0.337079
431.826620,0.341085
432.167120,0.319853
432.507580,0.347826
432.848000,0.341727
433.188380,0.317690
433.528720,0.350943
433.869020,0.332143
434.209280,0.350877
434.549500,0.324042
434.889680,0.343434
435.229820,0.324232
435.569920,0.301038
435.909980,0.317152
436.250000,0.335593
436.589980,0.281734
436.929920,0.320635
437.269820,0.329154
437.609680,0.316568
437.949500,0.325301
438.289280,0.337110
438.629020,0.331395
438.968720,0.311047
439.308380,0.281843
439.648000,0.290411
439.987580,0.320106
440.327120,0.322667
440.666620,0.322078
441.006080,0.319693
441.345500,0.316953
441.684880,0.315789
442.024220,0.300248
442.363520,0.292857
442.702780,0.311364
443.042000,0.301762
443.381180,0.312500
443.720320,0.306695
444.059420,0.277311
444.398480,0.292887
444.737500,0.297131
445.076480,0.299603
445.415420,0.291417
445.754320,0.293139
446.093180,0.300917
446.432000,0.302632
446.770780,0.286528
447.109520,0.305147
447.448220,0.289803
447.786880,0.296959
448.125500,0.301724
448.464080,0.291071
448.802620,0.283688
449.141120,0.283737
449.479580,0.293706
449.818000,0.294320
450.156380,0.292642
450.494720,0.285950
450.833020,0.286713
451.171280,0.279110
451.509500,0.299652
451.847680,0.293423
452.185820,0.294320
452.523920,0.290378
452.861980,0.290051
453.200000,0.272425
453.537980,0.282353
453.875920,0.285714
454.213820,0.273973
454.551680,0.271523
454.889500,0.271501
455.227280,0.266904
455.565020,0.264657
455.902720,0.274542
456.240380,0.272879
456.578000,0.277003
456.915580,0.281520
457.253120,0.277961
457.590620,0.270936
457.928080,0.269360
458.265500,0.278716
458.602880,0.264610
458.940220,0.267343
459.277520,0.270400
459.614780,0.273322
459.952000,0.271739
460.289180,0.267405
460.626320,0.255118
460.963420,0.263328
461.300480,0.261468
461.637500,0.260401
461.974480,0.258410
462.311420,0.257824
462.648320,0.256223
462.985180,0.251076
463.322000,0.261905
463.658780,0.254144
463.995520,0.248968
464.332220,0.256233
464.668880,0.255376
465.005500,0.253351
465.342080,0.252241
465.678620,0.253383
466.015120,0.254851
466.351580,0.256637
466.688000,0.249695
467.024380,0.255164
467.360720,0.240909
467.697020,0.243736
468.033280,0.250000
468.369500,0.259382
468.705680,0.251409
469.041820,0.241667
469.377920,0.235358
469.713980,0.243048
470.050000,0.238647
470.385980,0.235812
470.721920,0.245837
471.057820,0.236842
471.393680,0.233863
471.729500,0.232623
472.065280,0.238819
472.401020,0.237589
472.736720,0.234729
473.072380,0.237882
473.408000,0.231506
473.743580,0.232699
474.079120,0.229974
474.414620,0.235793
474.750080,0.223759
475.085500,0.234375
475.420880,0.225645
475.756220,0.227310
476.091520,0.235294
476.426780,0.222492
476.762000,0.224457
477.097180,0.228800
477.432320,0.226979
477.767420,0.224673
478.102480,0.221260
478.437500,0.225780
478.772480,0.219070
479.107420,0.221318
479.442320,0.214229
479.777180,0.219570
480.112000,0.209553
480.446780,0.222136
480.781520,0.215781
481.116220,0.211803
481.450880,0.209992
481.785500,0.220728
482.120080,0.214734
482.454620,0.212898
482.789120,0.211783
483.123580,0.212617
483.458000,0.207278
483.792380,0.213259
484.126720,0.211583
484.461020,0.211553
484.795280,0.205089
485.129500,0.214341
485.463680,0.208527
485.797820,0.207621
486.131920,0.202754
486.465980,0.206950
486.800000,0.211450
487.133980,0.194864
487.467920,0.209640
487.801820,0.212052
488.135680,0.206975
488.469500,0.200454
488.803280,0.206538
489.137020,0.201465
489.470720,0.201780
489.804380,0.193764
490.138000,0.199555
490.471580,0.207811
490.805120,0.202287
491.138620,0.191898
491.472080,0.197880
491.805500,0.199442
492.138880,0.192495
492.472220,0.193772
492.805520,0.198324
493.138780,0.196416
493.472000,0.191973
493.805180,0.197135
494.138320,0.188793
494.471420,0.193359
494.804480,0.190168
495.137500,0.191913
495.470480,0.193117
495.803420,0.196474
496.136320,0.199875
496.469180,0.185390
496.802000,0.189487
497.134780,0.187993
497.467520,0.193272
497.800220,0.189858
498.132880,0.183422
498.465500,0.190035
498.798080,0.184361
499.130620,0.186412
499.463120,0.184166
499.795580,0.190869
500.128000,0.183651
500.460380,0.183531
500.792720,0.177094
501.125020,0.178140
501.457280,0.183290
501.789500,0.176653
502.121680,0.191291
502.453820,0.179500
502.785920,0.168584
503.117980,0.177625
503.450000,0.180311
503.781980,0.175386
504.113920,0.172119
504.445820,0.180846
504.777680,0.174118
505.109500,0.180769
505.441280,0.178298
505.773020,0.173321
506.104720,0.170984
506.436380,0.169427
506.768000,0.169317
507.099580,0.174828
507.431120,0.177049
507.762620,0.172462
508.094080,0.174567
508.425500,0.168534
508.756880,0.170553
509.088220,0.168353
509.419520,0.172253
509.750780,0.171509
510.082000,0.170243
510.413180,0.169968
510.744320,0.161988
511.075420,0.165445
511.406480,0.167372
511.737500,0.166667
512.068480,0.167293
512.399420,0.161502
512.730320,0.157506
513.061180,0.156993
513.392000,0.161382
513.722780,0.167627
514.053520,0.168663
514.384220,0.163178
514.714880,0.161800
515.045500,0.160441
515.376080,0.166102
515.706620,0.162689
516.037120,0.156863
516.367580,0.160670
516.698000,0.157843
517.028380,0.163853
517.358720,0.161975
517.689020,0.157765
518.019280,0.158053
518.349500,0.163203
518.679680,0.158506
519.009820,0.158401
519.339920,0.160822
519.669980,0.158212
520.000000,0.158431
520.329980,0.157076
520.659920,0.156442
520.989820,0.158411
521.319680,0.157407
521.649500,0.154242
521.979280,0.157098
522.309020,0.156120
522.638720,0.154122
522.968380,0.158221
523.298000,0.152923
523.627580,0.149509
523.957120,0.157403
524.286620,0.152163
524.616080,0.155636
524.945500,0.151421
525.274880,0.154438
525.604220,0.152692
525.933520,0.149895
526.262780,0.147491
526.592000,0.153222
526.921180,0.154901
527.250320,0.152714
527.579420,0.153613
527.908480,0.150665
528.237500,0.156405
528.566480,0.154192
528.895420,0.154263
529.224320,0.147598
529.553180,0.151325
529.882000,0.150365
530.210780,0.144305
530.539520,0.149569
530.868220,0.146482
531.196880,0.145724
531.525500,0.151090
531.854080,0.149625
532.182620,0.149463
532.511120,0.147564
532.839580,0.150635
533.168000,0.149499
533.496380,0.153425
533.824720,0.148946
534.153020,0.147570
534.481280,0.151542
534.809500,0.150836
535.137680,0.151910
535.465820,0.146478
535.793920,0.143401
536.121980,0.145195
536.450000,0.146300
536.777980,0.150817
537.105920,0.147779
537.433820,0.146890
537.761680,0.148980
538.089500,0.145285
538.417280,0.144051
538.745020,0.145008
539.072720,0.141351
539.400380,0.140249
539.728000,0.147992
540.055580,0.143071
540.383120,0.144453
540.710620,0.146205
541.038080,0.144596
541.365500,0.138603
541.692880,0.142805
542.020220,0.146456
542.347520,0.145729
542.674780,0.142555
543.002000,0.147306
543.329180,0.148720
543.656320,0.149086
543.983420,0.141197
544.310480,0.147808
544.637500,0.143978
544.964480,0.145357
545.291420,0.145563
545.618320,0.140770
545.945180,0.142057
546.272000,0.139253
546.598780,0.140610
546.925520,0.140125
547.252220,0.138990
547.578880,0.144998
547.905500,0.140196
548.232080,0.136777
548.558620,0.145135
548.885120,0.143278
549.211580,0.141755
549.538000,0.138132
549.864380,0.142444
550.190720,0.143042
550.517020,0.145046
550.843280,0.148860
551.169500,0.139631
551.495680,0.142576
551.821820,0.141411
552.147920,0.143136
552.473980,0.135989
552.800000,0.142904
553.125980,0.141126
553.451920,0.144326
553.777820,0.144237
554.103680,0.141557
554.429500,0.139940
554.755280,0.139186
555.081020,0.141377
555.406720,0.143921
555.732380,0.138258
556.058000,0.142566
556.383580,0.142417
556.709120,0.141971
557.034620,0.142956
557.360080,0.144732
557.685500,0.141079
558.010880,0.140381
558.336220,0.138840
558.661520,0.143212
558.986780,0.145287
559.312000,0.141382
559.637180,0.142190
559.962320,0.142399
560.287420,0.142454
560.612480,0.143165
560.937500,0.140235
561.262480,0.143328
561.587420,0.147624
561.912320,0.141857
562.237180,0.146928
562.562000,0.144407
562.886780,0.142326
563.211520,0.140462
563.536220,0.141002
563.860880,0.145983
564.185500,0.143340
564.510080,0.143717
564.834620,0.142538
565.159120,0.146241
565.483580,0.145572
565.808000,0.144911
566.132380,0.146960
566.456720,0.148904
566.781020,0.138785
567.105280,0.142911
567.429500,0.147193
567.753680,0.146912
568.077820,0.144182
568.401920,0.149733
568.725980,0.148767
569.050000,0.149049
569.373980,0.146555
569.697920,0.149412
570.021820,0.149438
570.345680,0.147340
570.669500,0.146890
570.993280,0.148394
571.317020,0.145780
571.640720,0.152649
571.964380,0.149592
572.288000,0.148739
572.611580,0.152003
572.935120,0.148522
573.258620,0.152206
573.582080,0.145678
573.905500,0.151154
574.228880,0.152561
574.552220,0.149872
574.875520,0.150410
575.198780,0.148536
575.522000,0.156158
575.845180,0.150788
576.168320,0.151276
576.491420,0.156613
576.814480,0.151899
577.137500,0.151876
577.460480,0.154766
577.783420,0.155055
578.106320,0.153490
578.429180,0.157653
578.752000,0.148663
579.074780,0.159137
579.397520,0.151388
579.720220,0.153797
580.042880,0.158903
580.365500,0.152879
580.688080,0.157056
581.010620,0.159298
581.333120,0.156313
581.655580,0.158175
581.978000,0.159295
582.300380,0.156443
582.622720,0.158866
582.945020,0.156697
583.267280,0.156301
583.589500,0.158587
583.911680,0.157510
584.233820,0.156122
584.555920,0.162307
584.877980,0.157035
585.200000,0.158379
585.521980,0.162805
585.843920,0.157718
586.165820,0.160268
586.487680,0.159494
586.809500,0.163816
587.131280,0.162674
587.453020,0.162202
587.774720,0.164104
588.096380,0.166278
588.418000,0.161545
588.739580,0.166140
589.061120,0.162737
589.382620,0.164470
589.704080,0.164376
590.025500,0.166667
590.346880,0.166105
590.668220,0.162980
590.989520,0.166667
591.310780,0.165700
591.632000,0.169672
591.953180,0.172433
592.274320,0.166803
592.595420,0.164601
592.916480,0.164086
593.237500,0.171382
593.558480,0.167339
593.879420,0.171837
594.200320,0.170640
594.521180,0.164940
594.842000,0.168189
595.162780,0.171207
595.483520,0.170965
595.804220,0.169173
596.124880,0.173461
596.445500,0.172125
596.766080,0.172089
597.086620,0.170382
597.407120,0.173512
597.727580,0.175020
598.048000,0.171383
598.368380,0.169648
598.688720,0.170642
599.009020,0.173301
599.329280,0.175891
599.649500,0.174326
599.969680,0.173878
600.289820,0.175748
600.609920,0.178466
600.929980,0.176644
601.250000,0.176486
601.569980,0.176614
601.889920,0.176691
602.209820,0.176136
602.529680,0.182917
602.849500,0.177851
603.169280,0.177184
603.489020,0.177692
603.808720,0.181843
604.128380,0.183223
604.448000,0.180110
604.767580,0.179609
605.087120,0.179501
605.406620,0.184159
605.726080,0.188195
606.045500,0.179716
606.364880,0.180323
606.684220,0.186179
607.003520,0.182913
607.322780,0.182206
607.642000,0.184664
607.961180,0.184446
608.280320,0.185615
608.599420,0.181344
608.918480,0.186510
609.237500,0.184859
609.556480,0.186446
609.875420,0.184879
610.194320,0.188958
610.513180,0.188517
610.832000,0.189398
611.150780,0.188044
611.469520,0.194268
611.788220,0.194377
612.106880,0.188179
612.425500,0.190012
612.744080,0.190520
613.062620,0.191131
613.381120,0.194394
613.699580,0.192213
614.018000,0.195639
614.336380,0.197409
614.654720,0.194109
614.973020,0.189448
615.291280,0.194608
615.609500,0.197464
615.927680,0.194376
616.245820,0.199134
616.563920,0.196767
616.881980,0.192080
617.200000,0.192224
617.517980,0.198818
617.835920,0.196645
618.153820,0.198632
618.471680,0.202791
618.789500,0.200755
619.107280,0.203756
619.425020,0.200444
619.742720,0.202762
620.060380,0.203385
620.378000,0.199811
620.695580,0.204023
621.013120,0.200315
621.330620,0.207091
621.648080,0.204416
621.965500,0.204517
622.282880,0.203657
622.600220,0.208149
622.917520,0.205734
623.234780,0.211186
623.552000,0.209739
623.869180,0.208635
624.186320,0.211716
624.503420,0.211599
624.820480,0.217091
625.137500,0.211557
625.454480,0.211629
625.771420,0.209332
626.088320,0.212484
626.405180,0.211263
626.722000,0.214555
627.038780,0.210840
627.355520,0.211875
627.672220,0.213064
627.988880,0.216174
628.305500,0.218448
628.622080,0.221809
628.938620,0.216208
629.255120,0.219353
629.571580,0.213914
629.888000,0.218779
630.204380,0.221234
630.520720,0.216636
630.837020,0.222942
631.153280,0.217026
631.469500,0.221649
631.785680,0.222725
632.101820,0.220748
632.417920,0.221162
632.733980,0.225390
633.050000,0.230139
633.365980,0.228809
633.681920,0.229714
633.997820,0.228930
634.313680,0.229136
634.629500,0.226187
634.945280,0.228739
635.261020,0.233050
635.576720,0.229008
635.892380,0.231484
636.208000,0.228646
636.523580,0.228880
636.839120,0.234221
637.154620,0.232754
637.470080,0.230990
637.785500,0.241208
638.100880,0.236316
638.416220,0.237274
638.731520,0.234097
639.046780,0.235071
639.362000,0.239966
639.677180,0.239863
639.992320,0.234001
640.307420,0.239393
640.622480,0.240549
640.937500,0.239112
641.252480,0.239598
641.567420,0.244388
641.882320,0.243597
642.197180,0.245087
642.512000,0.242653
642.826780,0.242441
643.141520,0.248124
643.456220,0.243774
643.770880,0.240741
644.085500,0.247345
644.400080,0.249719
644.714620,0.247492
645.029120,0.245050
645.343580,0.250411
645.658000,0.247571
645.972380,0.253768
646.286720,0.252930
646.601020,0.251868
646.915280,0.252811
647.229500,0.253571
647.543680,0.248274
647.857820,0.252959
648.171920,0.253934
648.485980,0.253220
648.800000,0.251860
649.113980,0.257483
649.427920,0.256588
649.741820,0.252817
650.055680,0.258640
650.369500,0.257848
650.683280,0.256659
650.997020,0.254400
651.310720,0.258393
651.624380,0.257143
651.938000,0.264266
652.251580,0.262455
652.565120,0.262158
652.878620,0.262669
653.192080,0.266292
653.505500,0.261150
653.818880,0.264999
654.132220,0.264882
654.445520,0.264606
654.758780,0.261756
655.072000,0.263037
655.385180,0.259629
655.698320,0.266933
656.011420,0.266265
656.324480,0.271932
656.637500,0.269699
656.950480,0.270112
657.263420,0.270174
657.576320,0.267121
657.889180,0.267473
658.202000,0.266606
658.514780,0.268830
658.827520,0.268607
659.140220,0.266407
659.452880,0.272727
659.765500,0.271824
660.078080,0.269034
660.390620,0.272838
660.703120,0.277116
661.015580,0.279141
661.328000,0.281171
661.640380,0.279279
661.952720,0.279975
662.265020,0.278513
662.577280,0.283715
662.889500,0.276569
663.201680,0.283025
663.513820,0.275651
663.825920,0.288825
664.137980,0.278927
664.450000,0.272379
664.761980,0.279214
665.073920,0.281078
665.385820,0.284359
665.697680,0.280661
666.009500,0.290655
666.321280,0.282306
666.633020,0.294548
666.944720,0.282777
667.256380,0.287685
667.568000,0.292799
667.879580,0.288095
668.191120,0.294986
668.502620,0.286203
668.814080,0.291228
669.125500,0.295929
669.436880,0.291840
669.748220,0.292835
670.059520,0.293067
670.370780,0.295407
670.682000,0.296991
670.993180,0.294574
671.304320,0.296414
671.615420,0.294744
671.926480,0.297729
672.237500,0.291890
672.548480,0.296309
672.859420,0.294139
673.170320,0.298150
673.481180,0.305214
673.792000,0.298594
674.102780,0.304129
674.413520,0.305505
674.724220,0.296189
675.034880,0.304364
675.345500,0.304158
675.656080,0.303448
675.966620,0.302292
676.277120,0.304284
676.587580,0.307806
676.898000,0.305338
677.208380,0.307948
677.518720,0.303428
677.829020,0.305248
678.139280,0.307635
678.449500,0.312291
678.759680,0.307606
679.069820,0.304461
679.379920,0.315730
679.689980,0.310434
680.000000,0.307290
680.309980,0.312918
680.619920,0.307081
680.929820,0.311310
681.239680,0.308346
681.549500,0.317037
681.859280,0.311053
682.169020,0.315554
682.478720,0.317502
682.788380,0.317460
683.098000,0.318250
683.407580,0.314071
683.717120,0.315691
684.026620,0.322289
684.336080,0.312618
684.645500,0.315750
684.954880,0.320363
685.264220,0.322386
685.573520,0.324705
685.882780,0.327580
686.192000,0.320166
686.501180,0.324253
686.810320,0.327056
687.119420,0.331433
687.428480,0.322066
687.737500,0.324635
688.046480,0.330521
688.355420,0.329687
688.664320,0.330528
688.973180,0.331930
689.282000,0.330247
689.590780,0.335890
689.899520,0.333460
690.208220,0.334862
690.516880,0.335624
690.825500,0.332075
691.134080,0.333333
691.442620,0.337271
691.751120,0.337126
692.059580,0.335881
692.368000,0.336994
692.676380,0.336641
692.984720,0.337023
693.293020,0.336246
693.601280,0.338802
693.909500,0.335982
694.217680,0.346535
694.525820,0.342346
694.833920,0.334987
695.141980,0.345546
695.450000,0.343511
695.757980,0.339572
696.065920,0.343689
696.373820,0.347190
696.681680,0.331415
696.989500,0.348128
697.297280,0.341890
697.605020,0.352778
697.912720,0.338586
698.220380,0.346320
698.528000,0.350475
698.835580,0.349269
699.143120,0.348792
699.450620,0.353620
699.758080,0.349804
700.065500,0.352354
700.372880,0.356800
700.680220,0.348624
700.987520,0.355952
701.294780,0.354826
701.602000,0.354992
701.909180,0.359300
702.216320,0.353539
702.523420,0.358327
702.830480,0.363564
703.137500,0.348402
703.444480,0.358185
703.751420,0.362130
704.058320,0.357341
704.365180,0.359621
704.672000,0.366733
704.978780,0.356223
705.285520,0.357590
705.592220,0.366275
705.898880,0.367218
706.205500,0.368153
706.512080,0.362164
706.818620,0.367260
707.125120,0.369615
707.431580,0.361860
707.738000,0.368750
708.044380,0.364724
708.350720,0.366832
708.657020,0.370066
708.963280,0.373447
709.269500,0.364384
709.575680,0.378782
709.881820,0.374607
710.187920,0.379377
710.493980,0.366563
710.800000,0.363844
711.105980,0.373494
711.411920,0.371699
711.717820,0.373489
712.023680,0.371939
712.329500,0.380915
712.635280,0.373643
712.941020,0.379590
713.246720,0.375099
713.552380,0.379906
713.858000,0.372881
714.163580,0.373323
714.469120,0.369676
714.774620,0.380182
715.080080,0.379662
715.385500,0.381295
715.690880,0.380276
715.996220,0.386688
716.301520,0.381028
716.606780,0.382075
716.912000,0.384491
717.217180,0.387071
717.522320,0.383698
717.827420,0.386086
718.132480,0.382979
718.437500,0.381981
718.742480,0.383468
719.047420,0.387540
719.352320,0.389373
719.657180,0.390025
719.962000,0.383375
720.266780,0.380557
720.571520,0.391881
720.876220,0.389116
721.180880,0.384197
721.485500,0.382365
721.790080,0.392781
722.094620,0.396655
722.399120,0.394227
722.703580,0.387484
723.008000,0.388530
723.312380,0.390013
723.616720,0.390565
723.921020,0.394110
724.225280,0.399215
724.529500,0.393608
724.833680,0.396797
725.137820,0.388987
725.441920,0.399911
725.745980,0.398658
726.050000,0.398737
726.353980,0.396124
726.657920,0.394962
726.961820,0.400457
727.265680,0.400832
727.569500,0.402194
727.873280,0.395843
728.177020,0.404422
728.480720,0.400000
728.784380,0.407703
729.088000,0.402732
729.391580,0.402179
729.695120,0.402111
729.998620,0.412046
730.302080,0.407016
730.605500,0.407569
730.908880,0.402254
731.212220,0.400588
731.515520,0.409556
731.818780,0.408738
732.122000,0.407972
732.425180,0.412026
732.728320,0.415964
733.031420,0.407519
733.334480,0.410714
733.637500,0.405746
733.940480,0.410440
734.243420,0.419980
734.546320,0.418568
734.849180,0.414256
735.152000,0.414419
735.454780,0.414256
735.757520,0.413593
736.060220,0.421274
736.362880,0.412290
736.665500,0.403655
736.968080,0.422891
737.270620,0.419162
737.573120,0.420852
737.875580,0.426058
738.178000,0.416984
738.480380,0.422162
738.782720,0.411668
739.085020,0.423458
739.387280,0.412417
739.689500,0.430351
739.991680,0.421112
740.293820,0.421780
740.595920,0.431274
740.897980,0.424054
741.200000,0.419518
741.501980,0.430372
741.803920,0.426802
742.105820,0.428652
742.407680,0.435644
742.709500,0.425000
743.011280,0.424385
743.313020,0.432464
743.614720,0.420197
743.916380,0.423256
744.218000,0.427804
744.519580,0.422101
744.821120,0.428144
745.122620,0.428999
745.424080,0.423678
745.725500,0.436331
746.026880,0.444581
746.328220,0.442047
746.629520,0.429259
746.930780,0.436275
747.232000,0.432250
747.533180,0.433801
747.834320,0.437005
748.135420,0.433188
748.436480,0.431691
748.737500,0.442866
749.038480,0.428833
749.339420,0.434350
749.640320,0.438089
749.941180,0.436602
750.242000,0.439698
750.542780,0.433002
750.843520,0.438181
751.144220,0.436538
751.444880,0.439442
751.745500,0.432468
752.046080,0.449647
752.346620,0.438144
752.647120,0.449379
752.947580,0.446960
753.248000,0.441651
753.548380,0.432661
753.848720,0.433355
754.149020,0.439072
754.449280,0.454366
754.749500,0.445255
755.049680,0.442000
755.349820,0.448966
755.649920,0.457369
755.949980,0.452555
756.250000,0.457594
756.549980,0.444224
756.849920,0.456152
757.149820,0.451098
757.449680,0.457426
757.749500,0.454669
758.049280,0.455290
758.349020,0.455494
758.648720,0.459627
758.948380,0.459107
759.248000,0.456199
759.547580,0.449227
759.847120,0.460372
760.146620,0.446549
760.446080,0.463710
760.745500,0.453846
761.044880,0.453125
761.344220,0.463293
761.643520,0.463277
761.942780,0.449965
762.242000,0.461103
762.541180,0.467606
762.840320,0.457865
763.139420,0.463432
763.438480,0.466849
763.737500,0.457615
764.036480,0.458421
764.335420,0.458010
764.634320,0.466389
764.933180,0.464384
765.232000,0.467731
765.530780,0.456140
765.829520,0.467133
766.128220,0.473208
766.426880,0.466951
766.725500,0.472241
767.024080,0.464335
767.322620,0.463347
767.621120,0.472222
767.919580,0.464846
768.218000,0.463748
768.516380,0.476673
768.814720,0.465706
769.113020,0.478291
769.411280,0.473066
769.709500,0.474290
770.007680,0.474438
770.305820,0.475321
770.603920,0.473720
770.901980,0.474044
771.200000,0.473505
771.497980,0.462466
771.795920,0.468227
772.093820,0.464572
772.391680,0.477917
772.689500,0.480405
772.987280,0.477441
773.285020,0.468900
773.582720,0.477703
773.880380,0.485244
774.178000,0.477846
774.475580,0.473543
774.773120,0.474565
775.070620,0.472617
775.368080,0.483634
775.665500,0.482203
775.962880,0.473649
776.260220,0.481157
776.557520,0.480987
776.854780,0.494253
777.152000,0.467507
777.449180,0.490897
777.746320,0.487903
778.043420,0.487722
778.340480,0.486468
778.637500,0.495605
778.934480,0.486886
779.231420,0.487788
779.528320,0.484970
779.825180,0.481555
780.122000,0.477424
780.418780,0.493160
780.715520,0.489604
781.012220,0.500685
781.308880,0.493577
781.605500,0.488356
781.902080,0.488706
782.198620,0.491456
782.495120,0.496571
782.791580,0.504127
783.088000,0.493444
783.384380,0.498624
783.680720,0.485636
783.977020,0.490709
784.273280,0.502098
784.569500,0.496157
784.865680,0.500695
785.161820,0.487500
785.457920,0.499653
785.753980,0.491277
786.050000,0.491022
786.345980,0.499306
786.641920,0.505205
786.937820,0.495014
787.233680,0.489214
787.529500,0.497226
787.825280,0.508499
788.121020,0.498584
788.416720,0.497530
788.712380,0.500000
789.008000,0.498584
789.303580,0.503887
789.599120,0.505455
789.894620,0.506859
790.190080,0.503988
790.485500,0.494600
790.780880,0.501792
791.076220,0.493506
791.371520,0.514161
791.666780,0.509091
791.962000,0.503306
792.257180,0.502196
792.552320,0.514866
792.847420,0.509461
793.142480,0.512088
793.437500,0.501447
793.732480,0.509876
794.027420,0.508902
794.322320,0.506339
794.617180,0.501486
794.912000,0.503715
795.206780,0.520507
795.501520,0.509506
795.796220,0.513333
796.090880,0.515448
796.385500,0.512744
796.680080,0.504114
796.974620,0.518713
797.269120,0.508706
797.563580,0.516794
797.858000,0.515566
798.152380,0.515081
798.446720,0.517692
798.741020,0.505393
799.035280,0.519410
799.329500,0.511932
799.623680,0.515504
