399.985280,0.324324
400.329500,0.378378
400.673680,0.329114
401.017820,0.352941
401.361920,0.303030
401.705980,0.317073
402.050000,0.298701
402.393980,0.305882
402.737920,0.393258
403.081820,0.309278
403.425680,0.383721
403.769500,0.322917
404.113280,0.344828
404.457020,0.438202
404.800720,0.293478
405.144380,0.373737
405.488000,0.333333
405.831580,0.412371
406.175120,0.393617
406.518620,0.360000
406.862080,0.391753
407.205500,0.302083
407.548880,0.346939
407.892220,0.333333
408.235520,0.308511
408.578780,0.295238
408.922000,0.326923
409.265180,0.353535
409.608320,0.343434
409.951420,0.402062
410.294480,0.352941
410.637500,0.369565
410.980480,0.352941
411.323420,0.336735
411.666320,0.348624
412.009180,0.336364
412.352000,0.326733
412.694780,0.339450
413.037520,0.321101
413.380220,0.279279
413.722880,0.321429
414.065500,0.387387
414.408080,0.300885
414.750620,0.300885
415.093120,0.305785
415.435580,0.319328
415.778000,0.333333
416.120380,0.302521
416.462720,0.349206
416.805020,0.353383
417.147280,0.373134
417.489500,0.321429
417.831680,0.308219
418.173820,0.297872
418.515920,0.363636
418.857980,0.316456
419.200000,0.346154
419.541980,0.313609
419.883920,0.320225
420.225820,0.341040
420.567680,0.324022
420.909500,0.333333
421.251280,0.317708
421.593020,0.341837
421.934720,0.313131
422.276380,0.312821
422.618000,0.333333
422.959580,0.303922
423.301120,0.337900
423.642620,0.278261
423.984080,0.288372
424.325500,0.318386
424.666880,0.306034
425.008220,0.277311
425.349520,0.283898
425.690780,0.303846
426.032000,0.286275
426.373180,0.311203
426.714320,0.285156
427.055420,0.270270
427.396480,0.277154
427.737500,0.292490
428.078480,0.284585
428.419420,0.301205
428.760320,0.287356
429.101180,0.322835
429.442000,0.283525
429.782780,0.284615
430.123520,0.313725
430.464220,0.295203
430.804880,0.302682
431.145500,0.258182
431.486080,0.295880
431.826620,0.263566
432.167120,0.290441
432.507580,0.322464
432.848000,0.291367
433.188380,0.285199
433.528720,0.275472
433.869020,0.289286
434.209280,0.284211
434.549500,0.299652
434.889680,0.279461
435.229820,0.290102
435.569920,0.276817
435.909980,0.281553
436.250000,0.291525
436.589980,0.260062
436.929920,0.292063
437.269820,0.275862
437.609680,0.281065
437.949500,0.274096
438.289280,0.254958
438.629020,0.279070
438.968720,0.267442
439.308380,0.252033
439.648000,0.263014
439.987580,0.259259
440.327120,0.277333
440.666620,0.277922
441.006080,0.260870
441.345500,0.277641
441.684880,0.260766
442.024220,0.248139
442.363520,0.254762
442.702780,0.259091
443.042000,0.264317
443.381180,0.275862
443.720320,0.261339
444.059420,0.258403
444.398480,0.267782
444.737500,0.274590
445.076480,0.251984
445.415420,0.261477
445.754320,0.237006
446.093180,0.255046
446.432000,0.253759
446.770780,0.246679
447.109520,0.257353
447.448220,0.266547
447.786880,0.237925
448.125500,0.244828
448.464080,0.228571
448.802620,0.253546
449.141120,0.245675
449.479580,0.246503
449.818000,0.256454
450.156380,0.244147
450.494720,0.236364
450.833020,0.251748
451.171280,0.241438
451.509500,0.266551
451.847680,0.247892
452.185820,0.242685
452.523920,0.240550
452.861980,0.232715
453.200000,0.244186
453.537980,0.230252
453.875920,0.243697
454.213820,0.229452
454.551680,0.238411
454.889500,0.244519
455.227280,0.220641
455.565020,0.241206
455.902720,0.226290
456.240380,0.226290
456.578000,0.229965
456.915580,0.207254
457.253120,0.225329
457.590620,0.229885
457.928080,0.228956
458.265500,0.226351
458.602880,0.220779
458.940220,0.223350
459.277520,0.224000
459.614780,0.242226
459.952000,0.217391
460.289180,0.234177
460.626320,0.218898
460.963420,0.229402
461.300480,0.212538
461.637500,0.218798
461.974480,0.223242
462.311420,0.220566
462.648320,0.206442
462.985180,0.215208
463.322000,0.212798
463.658780,0.200276
463.995520,0.210454
464.332220,0.217452
464.668880,0.224462
465.005500,0.205094
465.342080,0.208707
465.678620,0.204182
466.015120,0.199224
466.351580,0.216182
466.688000,0.209501
467.024380,0.205346
467.360720,0.204545
467.697020,0.205011
468.033280,0.212222
468.369500,0.210817
468.705680,0.210823
469.041820,0.203125
469.377920,0.196312
469.713980,0.211123
470.050000,0.208696
470.385980,0.206458
470.721920,0.203722
471.057820,0.202729
471.393680,0.193639
471.729500,0.194625
472.065280,0.201252
472.401020,0.194149
472.736720,0.191972
473.072380,0.203770
473.408000,0.187119
473.743580,0.200692
474.079120,0.199828
474.414620,0.193384
474.750080,0.185517
475.085500,0.198191
475.420880,0.195670
475.756220,0.183156
476.091520,0.187553
476.426780,0.188511
476.762000,0.179405
477.097180,0.184800
477.432320,0.184976
477.767420,0.182190
478.102480,0.186614
478.437500,0.183087
478.772480,0.181245
479.107420,0.179007
479.442320,0.188649
479.777180,0.182180
480.112000,0.177196
480.446780,0.177708
480.781520,0.184380
481.116220,0.189167
481.450880,0.183450
481.785500,0.181962
482.120080,0.175549
482.454620,0.185703
482.789120,0.180732
483.123580,0.179128
483.458000,0.171677
483.792380,0.178115
484.126720,0.174517
484.461020,0.174083
484.795280,0.171935
485.129500,0.176150
485.463680,0.180620
485.797820,0.185070
486.131920,0.168324
486.465980,0.174517
486.800000,0.174046
487.133980,0.169184
487.467920,0.172150
487.801820,0.174676
488.135680,0.174375
488.469500,0.170197
488.803280,0.170877
489.137020,0.165568
489.470720,0.169881
489.804380,0.173719
490.138000,0.172107
490.471580,0.173176
490.805120,0.169407
491.138620,0.162758
491.472080,0.172438
491.805500,0.166667
492.138880,0.166782
492.472220,0.160554
492.805520,0.171788
493.138780,0.169538
493.472000,0.160535
493.805180,0.165757
494.138320,0.164109
494.471420,0.162760
494.804480,0.165589
495.137500,0.168164
495.470480,0.163799
495.803420,0.158060
496.136320,0.164787
496.469180,0.162063
496.802000,0.163814
497.134780,0.166768
497.467520,0.165138
497.800220,0.162146
498.132880,0.155203
498.465500,0.159907
498.798080,0.158676
499.130620,0.169568
499.463120,0.162830
499.795580,0.161166
500.128000,0.160763
500.460380,0.155005
500.792720,0.161188
501.125020,0.151865
501.457280,0.159269
501.789500,0.153409
502.121680,0.159668
502.453820,0.152473
502.785920,0.156578
503.117980,0.157017
503.450000,0.158714
503.781980,0.155456
504.113920,0.153627
504.445820,0.156053
504.777680,0.152471
505.109500,0.157692
505.441280,0.153920
505.773020,0.154533
506.104720,0.150730
506.436380,0.150497
506.768000,0.156688
507.099580,0.152860
507.431120,0.151288
507.762620,0.154605
508.094080,0.149043
508.425500,0.153128
508.756880,0.151806
509.088220,0.148114
509.419520,0.149907
509.750780,0.152296
510.082000,0.148321
510.413180,0.144634
510.744320,0.155545
511.075420,0.148946
511.406480,0.147626
511.737500,0.144444
512.068480,0.149436
512.399420,0.146009
512.730320,0.145497
513.061180,0.148430
513.392000,0.144345
513.722780,0.146494
514.053520,0.146143
514.384220,0.145576
514.714880,0.147918
515.045500,0.142241
515.376080,0.151090
515.706620,0.152947
516.037120,0.150490
516.367580,0.146870
516.698000,0.144608
517.028380,0.146475
517.358720,0.143210
517.689020,0.143917
518.019280,0.143001
518.349500,0.148505
518.679680,0.149924
519.009820,0.145243
519.339920,0.148798
519.669980,0.143144
520.000000,0.147733
520.329980,0.147745
520.659920,0.142127
520.989820,0.148091
521.319680,0.149177
521.649500,0.148586
521.979280,0.148747
522.309020,0.141079
522.638720,0.141321
522.968380,0.147880
523.298000,0.149791
523.627580,0.153130
523.957120,0.147532
524.286620,0.148515
524.616080,0.147363
524.945500,0.146253
525.274880,0.152899
525.604220,0.145963
525.933520,0.144130
526.262780,0.137354
526.592000,0.148656
526.921180,0.145759
527.250320,0.144597
527.579420,0.149065
527.908480,0.150665
528.237500,0.148957
528.566480,0.147206
528.895420,0.146378
529.224320,0.144626
529.553180,0.147470
529.882000,0.152311
530.210780,0.139961
530.539520,0.138543
530.868220,0.145524
531.196880,0.142857
531.525500,0.151090
531.854080,0.143058
532.182620,0.146660
532.511120,0.143852
532.839580,0.147005
533.168000,0.152233
533.496380,0.147489
533.824720,0.148048
534.153020,0.146233
534.481280,0.150220
534.809500,0.153914
535.137680,0.147569
535.465820,0.149055
535.793920,0.145516
536.121980,0.144775
536.450000,0.151374
536.777980,0.148722
537.105920,0.148609
537.433820,0.141980
537.761680,0.156327
538.089500,0.147713
538.417280,0.147632
538.745020,0.145404
539.072720,0.145646
539.400380,0.145299
539.728000,0.147992
540.055580,0.143820
540.383120,0.150782
540.710620,0.151042
541.038080,0.147916
541.365500,0.148897
541.692880,0.150073
542.020220,0.150774
542.347520,0.150395
542.674780,0.149965
543.002000,0.146256
543.329180,0.152578
543.656320,0.150141
543.983420,0.146667
544.310480,0.142372
544.637500,0.148072
544.964480,0.149058
545.291420,0.148887
545.618320,0.150066
545.945180,0.144693
546.272000,0.143840
546.598780,0.153720
546.925520,0.148368
547.252220,0.147904
547.578880,0.151515
547.905500,0.148693
548.232080,0.150747
548.558620,0.147413
548.885120,0.150474
549.211580,0.148827
549.538000,0.154345
549.864380,0.151125
550.190720,0.148208
550.517020,0.153520
550.843280,0.152769
551.169500,0.149173
551.495680,0.150460
551.821820,0.155127
552.147920,0.153546
552.473980,0.149819
552.800000,0.149771
553.125980,0.153242
553.451920,0.151958
553.777820,0.152565
554.103680,0.153354
554.429500,0.151322
554.755280,0.149866
555.081020,0.153075
555.406720,0.155097
555.732380,0.150796
556.058000,0.152749
556.383580,0.152345
556.709120,0.155755
557.034620,0.156734
557.360080,0.156477
557.685500,0.156293
558.010880,0.155286
558.336220,0.154306
558.661520,0.156328
558.986780,0.157690
559.312000,0.156695
559.637180,0.159785
559.962320,0.156995
560.287420,0.159027
560.612480,0.160746
560.937500,0.157122
561.262480,0.159091
561.587420,0.161770
561.912320,0.159912
562.237180,0.159882
562.562000,0.157127
562.886780,0.160164
563.211520,0.156483
563.536220,0.159184
563.860880,0.159562
564.185500,0.159099
564.510080,0.162904
564.834620,0.161518
565.159120,0.158271
565.483580,0.166097
565.808000,0.158154
566.132380,0.165237
566.456720,0.163265
566.781020,0.163541
567.105280,0.169376
567.429500,0.164643
567.753680,0.164941
568.077820,0.162350
568.401920,0.165393
568.725980,0.170398
569.050000,0.168061
569.373980,0.168253
569.697920,0.168373
570.021820,0.170787
570.345680,0.171833
570.669500,0.168256
570.993280,0.176080
571.317020,0.168067
571.640720,0.173027
571.964380,0.167409
572.288000,0.170994
572.611580,0.171846
572.935120,0.173214
573.258620,0.172401
573.582080,0.174367
573.905500,0.173120
574.228880,0.177431
574.552220,0.177721
574.875520,0.173120
575.198780,0.171305
575.522000,0.171554
575.845180,0.172994
576.168320,0.176788
576.491420,0.181323
576.814480,0.176130
577.137500,0.176768
577.460480,0.180138
577.783420,0.180779
578.106320,0.184117
578.429180,0.178155
578.752000,0.180966
579.074780,0.182063
579.397520,0.180116
579.720220,0.183398
580.042880,0.181037
580.365500,0.182330
580.688080,0.187246
581.010620,0.185623
581.333120,0.186373
581.655580,0.188145
581.978000,0.189225
582.300380,0.184680
582.622720,0.190178
582.945020,0.184980
583.267280,0.189189
583.589500,0.188764
583.911680,0.182915
584.233820,0.184451
584.555920,0.188465
584.877980,0.191897
585.200000,0.185390
585.521980,0.187210
585.843920,0.193411
586.165820,0.190737
586.487680,0.188384
586.809500,0.194119
587.131280,0.187518
587.453020,0.195536
587.774720,0.191898
588.096380,0.195158
588.418000,0.195786
588.739580,0.196608
589.061120,0.191777
589.382620,0.193696
589.704080,0.192987
590.025500,0.200057
590.346880,0.197302
590.668220,0.195183
590.989520,0.195507
591.310780,0.199945
591.632000,0.195902
591.953180,0.200664
592.274320,0.195468
592.595420,0.203933
592.916480,0.202119
593.237500,0.203988
593.558480,0.203928
593.879420,0.204208
594.200320,0.205197
594.521180,0.204781
594.842000,0.206341
595.162780,0.204060
595.483520,0.209519
595.804220,0.205424
596.124880,0.203570
596.445500,0.203301
596.766080,0.212154
597.086620,0.209660
597.407120,0.208268
597.727580,0.206577
598.048000,0.211849
598.368380,0.207785
598.688720,0.209961
599.009020,0.211253
599.329280,0.208089
599.649500,0.206022
599.969680,0.215011
600.289820,0.213408
600.609920,0.211328
600.929980,0.215126
601.250000,0.212703
601.569980,0.217661
601.889920,0.212777
602.209820,0.215368
602.529680,0.218072
602.849500,0.214948
603.169280,0.221549
603.489020,0.222253
603.808720,0.218321
604.128380,0.219923
604.448000,0.214365
604.767580,0.220950
605.087120,0.216898
605.406620,0.224181
605.726080,0.223838
606.045500,0.215380
606.364880,0.219733
606.684220,0.225585
607.003520,0.218463
607.322780,0.228255
607.642000,0.225445
607.961180,0.222608
608.280320,0.226508
608.599420,0.221321
608.918480,0.230205
609.237500,0.224472
609.556480,0.232613
609.875420,0.229474
610.194320,0.228226
610.513180,0.229358
610.832000,0.226921
611.150780,0.231901
611.469520,0.230166
611.788220,0.232769
612.106880,0.229192
612.425500,0.234775
612.744080,0.238535
613.062620,0.230581
613.381120,0.231261
613.699580,0.234519
614.018000,0.238943
614.336380,0.237508
614.654720,0.233798
614.973020,0.231102
615.291280,0.236443
615.609500,0.240571
615.927680,0.241038
616.245820,0.238095
616.563920,0.242151
616.881980,0.245089
617.200000,0.239502
617.517980,0.242999
617.835920,0.242622
618.153820,0.243705
618.471680,0.242481
618.789500,0.240088
619.107280,0.242254
619.425020,0.249604
619.742720,0.243566
620.060380,0.246318
620.378000,0.247955
620.695580,0.248723
621.013120,0.247874
621.330620,0.251334
621.648080,0.243533
621.965500,0.246863
622.282880,0.250000
622.600220,0.243209
622.917520,0.256144
623.234780,0.258438
623.552000,0.252069
623.869180,0.253388
624.186320,0.257561
624.503420,0.257367
624.820480,0.260132
625.137500,0.255131
625.454480,0.260706
625.771420,0.258197
626.088320,0.262295
626.405180,0.261357
626.722000,0.261292
627.038780,0.257519
627.355520,0.257812
627.672220,0.261586
627.988880,0.260342
628.305500,0.265192
628.622080,0.267658
628.938620,0.259327
629.255120,0.265713
629.571580,0.263255
629.888000,0.270635
630.204380,0.268794
630.520720,0.271481
630.837020,0.267345
631.153280,0.270084
631.469500,0.275015
631.785680,0.269439
632.101820,0.272618
632.417920,0.275708
632.733980,0.272509
633.050000,0.276531
633.365980,0.268820
633.681920,0.272673
633.997820,0.278542
634.313680,0.279858
634.629500,0.279564
634.945280,0.275660
635.261020,0.281479
635.576720,0.278920
635.892380,0.276503
636.208000,0.278908
636.523580,0.281497
636.839120,0.279386
637.154620,0.283188
637.470080,0.278336
637.785500,0.280481
638.100880,0.284970
638.416220,0.288755
638.731520,0.281662
639.046780,0.282843
639.362000,0.285550
639.677180,0.291548
639.992320,0.284748
640.307420,0.290812
640.622480,0.291235
640.937500,0.294868
641.252480,0.293493
641.567420,0.293549
641.882320,0.292595
642.197180,0.297305
642.512000,0.293591
642.826780,0.294036
643.141520,0.294526
643.456220,0.297178
643.770880,0.297678
644.085500,0.292901
644.400080,0.298034
644.714620,0.300725
645.029120,0.293729
645.343580,0.299506
645.658000,0.304191
645.972380,0.300630
646.286720,0.300354
646.601020,0.300304
646.915280,0.303811
647.229500,0.305769
647.543680,0.305717
647.857820,0.308560
648.171920,0.301953
648.485980,0.303645
648.800000,0.305594
649.113980,0.308204
649.427920,0.311234
649.741820,0.305853
650.055680,0.308009
650.369500,0.311379
650.683280,0.309378
650.997020,0.308306
651.310720,0.312603
651.624380,0.307967
651.938000,0.315512
652.251580,0.315335
652.565120,0.308552
652.878620,0.313626
653.192080,0.316011
653.505500,0.312763
653.818880,0.320728
654.132220,0.317004
654.445520,0.314804
654.758780,0.313031
655.072000,0.315186
655.385180,0.311840
655.698320,0.320949
656.011420,0.314990
656.324480,0.320898
656.637500,0.315180
656.950480,0.322079
657.263420,0.323973
657.576320,0.324044
657.889180,0.326452
658.202000,0.328200
658.514780,0.324204
658.827520,0.326831
659.140220,0.324243
659.452880,0.324675
659.765500,0.326610
660.078080,0.323503
660.390620,0.325390
660.703120,0.333028
661.015580,0.335583
661.328000,0.332809
661.640380,0.331469
661.952720,0.332295
662.265020,0.329868
662.577280,0.330789
662.889500,0.331126
663.201680,0.336311
663.513820,0.326150
663.825920,0.332693
664.137980,0.336781
664.450000,0.333120
664.761980,0.331260
665.073920,0.331710
665.385820,0.331479
665.697680,0.340165
666.009500,0.340206
666.321280,0.339960
666.633020,0.342088
666.944720,0.341422
667.256380,0.340175
667.568000,0.339674
667.879580,0.347959
668.191120,0.348214
668.502620,0.343376
668.814080,0.348421
669.125500,0.348272
669.436880,0.351660
669.748220,0.342333
670.059520,0.352591
670.370780,0.345859
670.682000,0.352920
670.993180,0.350951
671.304320,0.350914
671.615420,0.347656
671.926480,0.349894
672.237500,0.346195
672.548480,0.350248
672.859420,0.347391
673.170320,0.351106
673.481180,0.360246
673.792000,0.356653
674.102780,0.349731
674.413520,0.355450
674.724220,0.356080
675.034880,0.365603
675.345500,0.357768
675.656080,0.357532
675.966620,0.356857
676.277120,0.359575
676.587580,0.357879
676.898000,0.354237
677.208380,0.358595
677.518720,0.354850
677.829020,0.359941
678.139280,0.359155
678.449500,0.359822
678.759680,0.363807
679.069820,0.362082
679.379920,0.364014
679.689980,0.366506
680.000000,0.361495
680.309980,0.371195
680.619920,0.373343
680.929820,0.362075
681.239680,0.365214
681.549500,0.375185
681.859280,0.368185
682.169020,0.367027
682.478720,0.376589
682.788380,0.363603
683.098000,0.370232
683.407580,0.380488
683.717120,0.373498
684.026620,0.367093
684.336080,0.369837
684.645500,0.373737
684.954880,0.373631
685.264220,0.372593
685.573520,0.380662
685.882780,0.379363
686.192000,0.381490
686.501180,0.379493
686.810320,0.382782
687.119420,0.378563
687.428480,0.379795
687.737500,0.386032
688.046480,0.381902
688.355420,0.386269
688.664320,0.384086
688.973180,0.386294
689.282000,0.388889
689.590780,0.383052
689.899520,0.380555
690.208220,0.389908
690.516880,0.387934
690.825500,0.388679
691.134080,0.386484
691.442620,0.388338
691.751120,0.390975
692.059580,0.392052
692.368000,0.386217
692.676380,0.396947
692.984720,0.391985
693.293020,0.394377
693.601280,0.387257
693.909500,0.386682
694.217680,0.391470
694.525820,0.399086
694.833920,0.396032
695.141980,0.398380
695.450000,0.396183
695.757980,0.401070
696.065920,0.399223
696.373820,0.393380
696.681680,0.398159
696.989500,0.399846
697.297280,0.392843
697.605020,0.401190
697.912720,0.395081
698.220380,0.401810
698.528000,0.406646
698.835580,0.397471
699.143120,0.403741
699.450620,0.404137
699.758080,0.401569
700.065500,0.411014
700.372880,0.413600
700.680220,0.397288
700.987520,0.406349
701.294780,0.412003
701.602000,0.406101
701.909180,0.417329
702.216320,0.404771
702.523420,0.410813
702.830480,0.419406
703.137500,0.402572
703.444480,0.411045
703.751420,0.416963
704.058320,0.409181
704.365180,0.419953
704.672000,0.414653
704.978780,0.411237
705.285520,0.411581
705.592220,0.407451
705.898880,0.412924
706.205500,0.417840
706.512080,0.418246
706.818620,0.417957
707.125120,0.416923
707.431580,0.422431
707.738000,0.420312
708.044380,0.416056
708.350720,0.424532
708.657020,0.422431
708.963280,0.421584
709.269500,0.417613
709.575680,0.431041
709.881820,0.421384
710.187920,0.424125
710.493980,0.423972
710.800000,0.427155
711.105980,0.413404
711.411920,0.428459
711.717820,0.423002
712.023680,0.424407
712.329500,0.430994
712.635280,0.437984
712.941020,0.425203
713.246720,0.434387
713.552380,0.438383
713.858000,0.430824
714.163580,0.436069
714.469120,0.431809
714.774620,0.435847
715.080080,0.438555
715.385500,0.433253
715.690880,0.432347
715.996220,0.435420
716.301520,0.436364
716.606780,0.434355
716.912000,0.438207
717.217180,0.439745
717.522320,0.441750
717.827420,0.443043
718.132480,0.441188
718.437500,0.440277
718.742480,0.435887
719.047420,0.445388
719.352320,0.439186
719.657180,0.450123
719.962000,0.437138
720.266780,0.445368
720.571520,0.441591
720.876220,0.438216
721.180880,0.433528
721.485500,0.440451
721.790080,0.446709
722.094620,0.453688
722.399120,0.450237
722.703580,0.438920
723.008000,0.454506
723.312380,0.452863
723.616720,0.440714
723.921020,0.438285
724.225280,0.443281
724.529500,0.447461
724.833680,0.453292
725.137820,0.451982
725.441920,0.459206
725.745980,0.457271
726.050000,0.447000
726.353980,0.447048
726.657920,0.451642
726.961820,0.457078
727.265680,0.463708
727.569500,0.455210
727.873280,0.449423
728.177020,0.455090
728.480720,0.453704
728.784380,0.461719
729.088000,0.454074
729.391580,0.462814
729.695120,0.462572
729.998620,0.461759
730.302080,0.447862
730.605500,0.454634
730.908880,0.458109
731.212220,0.457395
731.515520,0.447587
731.818780,0.462621
732.122000,0.461122
732.425180,0.463282
732.728320,0.454636
733.031420,0.448622
733.334480,0.457653
733.637500,0.457661
733.940480,0.464688
734.243420,0.467890
734.546320,0.470954
734.849180,0.468492
735.152000,0.461100
735.454780,0.452479
735.757520,0.462065
736.060220,0.478146
736.362880,0.464286
736.665500,0.465274
736.968080,0.470177
737.270620,0.478498
737.573120,0.475437
737.875580,0.474986
738.178000,0.475776
738.480380,0.470811
738.782720,0.471647
739.085020,0.462004
739.387280,0.474501
739.689500,0.476217
739.991680,0.470522
740.293820,0.467662
740.595920,0.481914
740.897980,0.488425
741.200000,0.477846
741.501980,0.475645
741.803920,0.460586
742.105820,0.477721
742.407680,0.483401
742.709500,0.471591
743.011280,0.478898
743.313020,0.482319
743.614720,0.472432
743.916380,0.477907
744.218000,0.491647
744.519580,0.481280
744.821120,0.488024
745.122620,0.488916
745.424080,0.471154
745.725500,0.480990
746.026880,0.477833
746.328220,0.487670
746.629520,0.472607
746.930780,0.477328
747.232000,0.484365
747.533180,0.477730
747.834320,0.487523
748.135420,0.487259
748.436480,0.480973
748.737500,0.478073
749.038480,0.489921
749.339420,0.499689
749.640320,0.485858
749.941180,0.490319
750.242000,0.486181
750.542780,0.493176
750.843520,0.494555
751.144220,0.496154
751.444880,0.490805
751.745500,0.497403
752.046080,0.496472
752.346620,0.496134
752.647120,0.487263
752.947580,0.487710
753.248000,0.491941
753.548380,0.493169
753.848720,0.493239
754.149020,0.468085
754.449280,0.502955
754.749500,0.495687
755.049680,0.506000
755.349820,0.502335
755.649920,0.485790
755.949980,0.495023
756.250000,0.510848
756.549980,0.495710
756.849920,0.501700
757.149820,0.489022
757.449680,0.495050
757.749500,0.491479
758.049280,0.504437
758.349020,0.498609
758.648720,0.503796
758.948380,0.492784
759.248000,0.510108
759.547580,0.505716
759.847120,0.509993
760.146620,0.493234
760.446080,0.501344
760.745500,0.498601
761.044880,0.504972
761.344220,0.501069
761.643520,0.504237
761.942780,0.508747
762.242000,0.524045
762.541180,0.499296
762.840320,0.502809
763.139420,0.507032
763.438480,0.500342
763.737500,0.509993
764.036480,0.510133
764.335420,0.508116
764.634320,0.504505
764.933180,0.501370
765.232000,0.514226
765.530780,0.513684
765.829520,0.513287
766.128220,0.508699
766.426880,0.523099
766.725500,0.503084
767.024080,0.510974
767.322620,0.515214
767.621120,0.504065
767.919580,0.520137
768.218000,0.505472
768.516380,0.518594
768.814720,0.512346
769.113020,0.520331
769.411280,0.521409
769.709500,0.518268
770.007680,0.526244
770.305820,0.532792
770.603920,0.509434
770.901980,0.517760
771.200000,0.506114
771.497980,0.498660
771.795920,0.522408
772.093820,0.522059
772.391680,0.518128
772.689500,0.523649
772.987280,0.518519
773.285020,0.523582
773.582720,0.523649
773.880380,0.522306
774.178000,0.529652
774.475580,0.519089
774.773120,0.530790
775.070620,0.530764
775.368080,0.529726
775.665500,0.523170
775.962880,0.523682
776.260220,0.542396
776.557520,0.533022
776.854780,0.538201
777.152000,0.524536
777.449180,0.536750
777.746320,0.521505
778.043420,0.530014
778.340480,0.533829
778.637500,0.529412
778.934480,0.525219
779.231420,0.523745
779.528320,0.523046
779.825180,0.521739
780.122000,0.523240
780.418780,0.536936
780.715520,0.537223
781.012220,0.547945
781.308880,0.536173
781.605500,0.534932
781.902080,0.528405
782.198620,0.531784
782.495120,0.534294
782.791580,0.545392
783.088000,0.545894
783.384380,0.533012
783.680720,0.540356
783.977020,0.525809
784.273280,0.542657
784.569500,0.546471
784.865680,0.538248
785.161820,0.544444
785.457920,0.530146
785.753980,0.543615
786.050000,0.536602
786.345980,0.535417
786.641920,0.541985
786.937820,0.553419
787.233680,0.533055
787.529500,0.533981
787.825280,0.543909
788.121020,0.543909
788.416720,0.537756
788.712380,0.550776
789.008000,0.548867
789.303580,0.546290
789.599120,0.557818
789.894620,0.557401
790.190080,0.542422
790.485500,0.562275
790.780880,0.543369
791.076220,0.548341
791.371520,0.556282
791.666780,0.552727
791.962000,0.556209
792.257180,0.549048
792.552320,0.556200
792.847420,0.543668
793.142480,0.536264
793.437500,0.533285
793.732480,0.547915
794.027420,0.545252
794.322320,0.551827
794.617180,0.540119
794.912000,0.543091
795.206780,0.551827
795.501520,0.565779
795.796220,0.538519
796.090880,0.563677
796.385500,0.547226
796.680080,0.542259
796.974620,0.558383
797.269120,0.555640
797.563580,0.564885
797.858000,0.562642
798.152380,0.563805
798.446720,0.566923
798.741020,0.557011
799.035280,0.565994
799.329500,0.549654
799.623680,0.564341
