399.985280,0.270270
400.329500,0.310811
400.673680,0.265823
401.017820,0.279412
401.361920,0.272727
401.705980,0.268293
402.050000,0.272727
402.393980,0.294118
402.737920,0.303371
403.081820,0.216495
403.425680,0.279070
403.769500,0.270833
404.113280,0.252874
404.457020,0.325843
404.800720,0.293478
405.144380,0.303030
405.488000,0.322581
405.831580,0.329897
406.175120,0.265957
406.518620,0.310000
406.862080,0.329897
407.205500,0.208333
407.548880,0.275510
407.892220,0.294118
408.235520,0.308511
408.578780,0.314286
408.922000,0.250000
409.265180,0.373737
409.608320,0.303030
409.951420,0.340206
410.294480,0.362745
410.637500,0.293478
410.980480,0.284314
411.323420,0.275510
411.666320,0.275229
412.009180,0.327273
412.352000,0.247525
412.694780,0.293578
413.037520,0.284404
413.380220,0.279279
413.722880,0.294643
414.065500,0.288288
414.408080,0.274336
414.750620,0.274336
415.093120,0.256198
415.435580,0.319328
415.778000,0.318182
416.120380,0.260504
416.462720,0.293651
416.805020,0.300752
417.147280,0.291045
417.489500,0.292857
417.831680,0.308219
418.173820,0.276596
418.515920,0.286713
418.857980,0.272152
419.200000,0.282051
419.541980,0.236686
419.883920,0.275281
420.225820,0.271676
420.567680,0.273743
420.909500,0.267760
421.251280,0.312500
421.593020,0.260204
421.934720,0.267677
422.276380,0.276923
422.618000,0.269608
422.959580,0.289216
423.301120,0.283105
423.642620,0.265217
423.984080,0.274419
424.325500,0.286996
424.666880,0.258621
425.008220,0.252101
425.349520,0.266949
425.690780,0.265385
426.032000,0.254902
426.373180,0.278008
426.714320,0.273437
427.055420,0.266409
427.396480,0.247191
427.737500,0.249012
428.078480,0.256917
428.419420,0.257028
428.760320,0.268199
429.101180,0.283465
429.442000,0.275862
429.782780,0.273077
430.123520,0.231373
430.464220,0.258303
430.804880,0.268199
431.145500,0.240000
431.486080,0.247191
431.826620,0.255814
432.167120,0.246324
432.507580,0.250000
432.848000,0.237410
433.188380,0.270758
433.528720,0.226415
433.869020,0.257143
434.209280,0.214035
434.549500,0.243902
434.889680,0.218855
435.229820,0.235495
435.569920,0.214533
435.909980,0.226537
436.250000,0.247458
436.589980,0.219814
436.929920,0.260317
437.269820,0.260188
437.609680,0.230769
437.949500,0.243976
438.289280,0.249292
438.629020,0.241279
438.968720,0.229651
439.308380,0.214092
439.648000,0.241096
439.987580,0.216931
440.327120,0.250667
440.666620,0.233766
441.006080,0.248082
441.345500,0.221130
441.684880,0.227273
442.024220,0.213400
442.363520,0.223810
442.702780,0.220455
443.042000,0.218062
443.381180,0.228448
443.720320,0.226782
444.059420,0.201681
444.398480,0.213389
444.737500,0.209016
445.076480,0.216270
445.415420,0.205589
445.754320,0.218295
446.093180,0.203670
446.432000,0.216165
446.770780,0.210626
447.109520,0.220588
447.448220,0.214669
447.786880,0.211091
448.125500,0.208621
448.464080,0.205357
448.802620,0.214539
449.141120,0.214533
449.479580,0.216783
449.818000,0.211704
450.156380,0.215719
450.494720,0.203306
450.833020,0.215035
451.171280,0.196918
451.509500,0.226481
451.847680,0.198988
452.185820,0.215146
452.523920,0.204467
452.861980,0.192243
453.200000,0.200997
453.537980,0.200000
453.875920,0.201681
454.213820,0.193493
454.551680,0.203642
454.889500,0.204047
455.227280,0.176157
455.565020,0.209380
455.902720,0.214642
456.240380,0.193012
456.578000,0.205575
456.915580,0.196891
457.253120,0.180921
457.590620,0.200328
457.928080,0.210438
458.265500,0.211149
458.602880,0.191558
458.940220,0.174281
459.277520,0.190400
459.614780,0.191489
459.952000,0.189441
460.289180,0.196203
460.626320,0.198425
460.963420,0.195477
461.300480,0.195719
461.637500,0.191063
461.974480,0.189602
462.311420,0.181818
462.648320,0.191801
462.985180,0.170732
463.322000,0.177083
463.658780,0.179558
463.995520,0.173315
464.332220,0.184211
464.668880,0.182796
465.005500,0.184987
465.342080,0.186940
465.678620,0.177122
466.015120,0.177232
466.351580,0.184576
466.688000,0.183922
467.024380,0.174970
467.360720,0.177273
467.697020,0.176538
468.033280,0.186667
468.369500,0.177704
468.705680,0.188275
469.041820,0.178125
469.377920,0.173536
469.713980,0.174047
470.050000,0.180676
470.385980,0.173190
470.721920,0.163565
471.057820,0.169591
471.393680,0.183349
471.729500,0.170528
472.065280,0.166369
472.401020,0.170213
472.736720,0.171902
473.072380,0.167864
473.408000,0.168842
473.743580,0.164360
474.079120,0.173988
474.414620,0.164546
474.750080,0.165175
475.085500,0.168586
475.420880,0.163197
475.756220,0.161897
476.091520,0.167093
476.426780,0.157767
476.762000,0.160901
477.097180,0.168000
477.432320,0.163166
477.767420,0.168301
478.102480,0.162992
478.437500,0.161741
478.772480,0.159968
479.107420,0.160293
479.442320,0.163869
479.777180,0.162291
480.112000,0.153313
480.446780,0.157443
480.781520,0.160225
481.116220,0.161681
481.450880,0.156909
481.785500,0.159019
482.120080,0.156740
482.454620,0.160839
482.789120,0.164809
483.123580,0.160436
483.458000,0.156646
483.792380,0.157348
484.126720,0.159846
484.461020,0.160812
484.795280,0.163454
485.129500,0.163679
485.463680,0.159690
485.797820,0.160187
486.131920,0.155318
486.465980,0.155985
486.800000,0.159542
487.133980,0.149547
487.467920,0.150727
487.801820,0.165523
488.135680,0.154663
488.469500,0.155068
488.803280,0.157504
489.137020,0.152381
489.470720,0.157270
489.804380,0.157387
490.138000,0.155786
490.471580,0.157701
490.805120,0.158685
491.138620,0.145700
491.472080,0.150530
491.805500,0.149930
492.138880,0.152884
492.472220,0.157093
492.805520,0.157123
493.138780,0.155065
493.472000,0.160535
493.805180,0.154843
494.138320,0.154103
494.471420,0.152995
494.804480,0.155239
495.137500,0.157895
495.470480,0.160612
495.803420,0.150504
496.136320,0.156642
496.469180,0.149785
496.802000,0.151589
497.134780,0.158278
497.467520,0.154128
497.800220,0.155071
498.132880,0.158730
498.465500,0.152375
498.798080,0.153539
499.130620,0.151039
499.463120,0.153846
499.795580,0.147415
500.128000,0.148229
500.460380,0.151238
500.792720,0.153234
501.125020,0.144509
501.457280,0.151958
501.789500,0.148244
502.121680,0.149819
502.453820,0.154513
502.785920,0.143572
503.117980,0.152601
503.450000,0.153692
503.781980,0.148480
504.113920,0.146989
504.445820,0.148274
504.777680,0.148235
505.109500,0.150000
505.441280,0.146750
505.773020,0.147017
506.104720,0.145078
506.436380,0.149550
506.768000,0.148737
507.099580,0.142334
507.431120,0.144262
507.762620,0.145207
508.094080,0.144029
508.425500,0.150327
508.756880,0.148148
509.088220,0.143514
509.419520,0.144786
509.750780,0.146673
510.082000,0.145522
510.413180,0.145555
510.744320,0.147722
511.075420,0.150321
511.406480,0.140574
511.737500,0.146296
512.068480,0.150376
512.399420,0.148826
512.730320,0.145497
513.061180,0.148430
513.392000,0.144818
513.722780,0.147935
514.053520,0.150455
514.384220,0.146527
514.714880,0.149354
515.045500,0.145594
515.376080,0.143826
515.706620,0.152460
516.037120,0.150490
516.367580,0.147363
516.698000,0.150000
517.028380,0.147468
517.358720,0.153580
517.689020,0.144411
518.019280,0.143001
518.349500,0.146477
518.679680,0.146391
519.009820,0.145243
519.339920,0.151303
519.669980,0.148167
520.000000,0.151808
520.329980,0.151892
520.659920,0.150307
520.989820,0.144995
521.319680,0.155350
521.649500,0.150643
521.979280,0.150835
522.309020,0.147303
522.638720,0.142857
522.968380,0.154602
523.298000,0.146660
523.627580,0.151578
523.957120,0.149610
524.286620,0.158937
524.616080,0.149948
524.945500,0.157623
525.274880,0.156491
525.604220,0.151139
525.933520,0.149371
526.262780,0.151546
526.592000,0.152714
526.921180,0.152869
527.250320,0.155251
527.579420,0.157150
527.908480,0.146726
528.237500,0.157398
528.566480,0.155190
528.895420,0.155249
529.224320,0.152055
529.553180,0.151807
529.882000,0.156691
530.210780,0.155888
530.539520,0.155321
530.868220,0.157492
531.196880,0.154324
531.525500,0.157385
531.854080,0.156191
532.182620,0.156936
532.511120,0.157309
532.839580,0.156080
533.168000,0.159070
533.496380,0.160731
533.824720,0.158367
534.153020,0.158270
534.481280,0.162555
534.809500,0.160510
535.137680,0.163628
535.465820,0.158076
535.793920,0.156937
536.121980,0.161561
536.450000,0.164482
536.777980,0.163385
537.105920,0.158987
537.433820,0.164484
537.761680,0.162449
538.089500,0.164711
538.417280,0.164345
538.745020,0.167591
539.072720,0.160875
539.400380,0.166278
539.728000,0.168642
540.055580,0.163296
540.383120,0.166791
540.710620,0.161830
541.038080,0.164884
541.365500,0.162868
541.692880,0.163517
542.020220,0.163368
542.347520,0.167983
542.674780,0.163373
543.002000,0.162701
543.329180,0.174676
543.656320,0.166667
543.983420,0.166496
544.310480,0.169895
544.637500,0.171614
544.964480,0.165545
545.291420,0.166168
545.618320,0.165339
545.945180,0.168095
546.272000,0.168742
546.598780,0.168142
546.925520,0.167161
547.252220,0.168042
547.578880,0.174650
547.905500,0.172549
548.232080,0.172190
548.558620,0.173772
548.885120,0.169774
549.211580,0.171649
549.538000,0.171206
549.864380,0.173633
550.190720,0.173394
550.517020,0.174055
550.843280,0.176873
551.169500,0.178117
551.495680,0.176084
551.821820,0.176029
552.147920,0.175667
552.473980,0.178136
552.800000,0.174951
553.125980,0.174853
553.451920,0.178832
553.777820,0.177215
554.103680,0.182002
554.429500,0.179779
554.755280,0.175901
555.081020,0.179144
555.406720,0.182188
555.732380,0.176889
556.058000,0.180923
556.383580,0.173571
556.709120,0.179876
557.034620,0.180158
557.360080,0.175475
557.685500,0.183264
558.010880,0.176776
558.336220,0.178559
558.661520,0.185041
558.986780,0.186393
559.312000,0.183048
559.637180,0.187792
559.962320,0.177643
560.287420,0.190762
560.612480,0.185504
560.937500,0.187592
561.262480,0.185850
561.587420,0.184984
561.912320,0.186809
562.237180,0.192080
562.562000,0.188178
562.886780,0.195095
563.211520,0.191878
563.536220,0.186642
563.860880,0.190871
564.185500,0.189118
564.510080,0.194883
564.834620,0.187942
565.159120,0.191353
565.483580,0.194603
565.808000,0.195989
566.132380,0.195076
566.456720,0.199169
566.781020,0.191298
567.105280,0.193195
567.429500,0.195751
567.753680,0.197161
568.077820,0.197913
568.401920,0.199389
568.725980,0.196584
569.050000,0.202281
569.373980,0.193757
569.697920,0.197952
570.021820,0.201124
570.345680,0.200536
570.669500,0.202213
570.993280,0.201550
571.317020,0.201315
571.640720,0.207114
571.964380,0.203415
572.288000,0.207715
572.611580,0.210034
572.935120,0.199027
573.258620,0.209050
573.582080,0.205291
573.905500,0.206627
574.228880,0.211581
574.552220,0.207768
574.875520,0.205138
575.198780,0.209975
575.522000,0.206012
575.845180,0.209527
576.168320,0.206252
576.491420,0.216933
576.814480,0.210850
577.137500,0.218615
577.460480,0.213121
577.783420,0.211147
578.106320,0.219373
578.429180,0.216684
578.752000,0.214658
579.074780,0.221173
579.397520,0.216269
579.720220,0.221042
580.042880,0.218038
580.365500,0.216744
580.688080,0.224898
581.010620,0.222410
581.333120,0.224115
581.655580,0.223110
581.978000,0.222148
582.300380,0.216813
582.622720,0.224786
582.945020,0.227893
583.267280,0.223054
583.589500,0.222793
583.911680,0.227056
584.233820,0.220648
584.555920,0.230066
584.877980,0.223932
585.200000,0.224678
585.521980,0.227371
585.843920,0.230323
586.165820,0.233699
586.487680,0.233825
586.809500,0.229823
587.131280,0.228335
587.453020,0.236310
587.774720,0.232703
588.096380,0.236289
588.418000,0.235294
588.739580,0.237425
589.061120,0.234618
589.382620,0.235817
589.704080,0.239551
590.025500,0.238299
590.346880,0.238898
590.668220,0.239709
590.989520,0.240155
591.310780,0.236951
591.632000,0.238251
591.953180,0.239413
592.274320,0.242970
592.595420,0.241379
592.916480,0.244770
593.237500,0.243870
593.558480,0.243476
593.879420,0.247370
594.200320,0.248058
594.521180,0.243825
594.842000,0.249060
595.162780,0.252671
595.483520,0.252061
595.804220,0.250537
596.124880,0.250466
596.445500,0.249149
596.766080,0.253563
597.086620,0.256900
597.407120,0.256977
597.727580,0.255900
598.048000,0.253108
598.368380,0.251973
598.688720,0.252949
599.009020,0.257166
599.329280,0.256253
599.649500,0.256471
599.969680,0.256944
600.289820,0.258814
600.609920,0.258082
600.929980,0.257082
601.250000,0.259189
601.569980,0.258169
601.889920,0.259022
602.209820,0.260552
602.529680,0.265586
602.849500,0.261320
603.169280,0.263158
603.489020,0.262939
603.808720,0.266045
604.128380,0.268212
604.448000,0.260221
604.767580,0.268156
605.087120,0.265928
605.406620,0.268682
605.726080,0.273738
606.045500,0.264140
606.364880,0.271052
606.684220,0.273844
607.003520,0.271216
607.322780,0.268334
607.642000,0.271683
607.961180,0.271466
608.280320,0.273492
608.599420,0.267092
608.918480,0.271261
609.237500,0.271420
609.556480,0.277597
609.875420,0.278795
610.194320,0.276646
610.513180,0.275525
610.832000,0.279035
611.150780,0.276359
611.469520,0.278130
611.788220,0.282346
612.106880,0.280760
612.425500,0.280146
612.744080,0.279778
613.062620,0.280428
613.381120,0.280012
613.699580,0.286021
614.018000,0.288698
614.336380,0.281925
614.654720,0.284341
614.973020,0.286640
615.291280,0.288193
615.609500,0.295404
615.927680,0.292645
616.245820,0.288188
616.563920,0.285359
616.881980,0.291238
617.200000,0.282737
617.517980,0.284070
617.835920,0.288599
618.153820,0.287535
618.471680,0.288992
618.789500,0.292322
619.107280,0.291706
619.425020,0.290834
619.742720,0.300691
620.060380,0.292698
620.378000,0.298930
620.695580,0.296935
621.013120,0.299843
621.330620,0.303106
621.648080,0.298107
621.965500,0.298306
622.282880,0.296974
622.600220,0.302274
622.917520,0.304033
623.234780,0.308261
623.552000,0.305220
623.869180,0.301922
624.186320,0.304680
624.503420,0.307210
624.820480,0.309771
625.137500,0.303757
625.454480,0.306971
625.771420,0.309584
626.088320,0.310214
626.405180,0.308961
626.722000,0.315872
627.038780,0.310150
627.355520,0.303750
627.672220,0.312286
627.988880,0.315708
628.305500,0.314740
628.622080,0.319393
628.938620,0.317431
629.255120,0.313628
629.571580,0.318419
629.888000,0.316662
630.204380,0.316662
630.520720,0.319927
630.837020,0.320074
631.153280,0.320444
631.469500,0.328078
631.785680,0.324895
632.101820,0.323884
632.417920,0.325484
632.733980,0.323229
633.050000,0.324439
633.365980,0.318613
633.681920,0.319212
633.997820,0.327854
634.313680,0.329106
634.629500,0.326747
634.945280,0.330792
635.261020,0.334018
635.576720,0.335584
635.892380,0.329654
636.208000,0.333818
636.523580,0.332359
636.839120,0.335553
637.154620,0.334783
637.470080,0.326542
637.785500,0.335580
638.100880,0.337967
638.416220,0.340523
638.731520,0.335244
639.046780,0.334401
639.362000,0.339163
639.677180,0.334380
639.992320,0.345926
640.307420,0.339983
640.622480,0.341081
640.937500,0.341748
641.252480,0.346551
641.567420,0.348394
641.882320,0.345212
642.197180,0.352330
642.512000,0.344808
642.826780,0.346741
643.141520,0.354265
643.456220,0.349198
643.770880,0.350746
644.085500,0.346842
644.400080,0.349719
644.714620,0.352564
645.029120,0.359461
645.343580,0.356555
645.658000,0.358035
645.972380,0.355440
646.286720,0.357318
646.601020,0.363687
646.915280,0.363587
647.229500,0.356593
647.543680,0.353217
647.857820,0.353977
648.171920,0.357840
648.485980,0.363661
648.800000,0.357399
649.113980,0.361696
649.427920,0.358946
649.741820,0.357241
650.055680,0.367526
650.369500,0.365471
650.683280,0.358213
650.997020,0.362761
651.310720,0.362686
651.624380,0.363187
651.938000,0.366759
652.251580,0.366824
652.565120,0.371157
652.878620,0.372185
653.192080,0.373034
653.505500,0.368864
653.818880,0.380154
654.132220,0.369126
654.445520,0.364436
654.758780,0.368272
655.072000,0.374212
655.385180,0.364907
655.698320,0.372964
656.011420,0.377185
656.324480,0.375109
656.637500,0.370800
656.950480,0.373752
657.263420,0.383683
657.576320,0.373851
657.889180,0.378944
658.202000,0.374698
658.514780,0.375707
658.827520,0.385654
659.140220,0.380282
659.452880,0.388704
659.765500,0.386815
660.078080,0.378875
660.390620,0.377024
660.703120,0.378246
661.015580,0.382822
661.328000,0.391688
661.640380,0.385213
661.952720,0.387418
662.265020,0.391304
662.577280,0.384860
662.889500,0.384737
663.201680,0.381621
663.513820,0.390479
663.825920,0.391290
664.137980,0.388494
664.450000,0.377238
664.761980,0.389853
665.073920,0.382668
665.385820,0.388416
665.697680,0.394050
666.009500,0.393083
666.321280,0.394301
666.633020,0.398271
666.944720,0.399393
667.256380,0.395693
667.568000,0.392323
667.879580,0.398980
668.191120,0.399038
668.502620,0.397124
668.814080,0.403509
669.125500,0.400616
669.436880,0.402144
669.748220,0.397023
670.059520,0.399860
670.370780,0.399095
670.682000,0.405310
670.993180,0.402748
671.304320,0.403657
671.615420,0.400213
671.926480,0.398510
672.237500,0.401572
672.548480,0.399219
672.859420,0.403503
673.170320,0.400798
673.481180,0.397176
673.792000,0.401370
674.102780,0.408259
674.413520,0.409406
674.724220,0.410889
675.034880,0.411074
675.345500,0.410649
675.656080,0.411978
675.966620,0.410331
676.277120,0.410839
676.587580,0.418630
676.898000,0.419560
677.208380,0.411460
677.518720,0.409920
677.829020,0.409460
678.139280,0.418458
678.449500,0.417750
678.759680,0.419633
679.069820,0.419331
679.379920,0.416069
679.689980,0.412551
680.000000,0.416822
680.309980,0.420564
680.619920,0.420295
680.929820,0.421426
681.239680,0.418021
681.549500,0.420000
681.859280,0.416729
682.169020,0.423349
682.478720,0.431563
682.788380,0.421558
683.098000,0.425954
683.407580,0.428893
683.717120,0.424174
684.026620,0.422440
684.336080,0.430087
684.645500,0.419005
684.954880,0.430298
685.264220,0.428086
685.573520,0.439665
685.882780,0.434599
686.192000,0.428894
686.501180,0.435490
686.810320,0.429669
687.119420,0.432915
687.428480,0.445120
687.737500,0.436301
688.046480,0.440951
688.355420,0.434553
688.664320,0.434966
688.973180,0.433384
689.282000,0.439815
689.590780,0.438267
689.899520,0.426510
690.208220,0.443807
690.516880,0.441390
690.825500,0.436226
691.134080,0.443812
691.442620,0.438262
691.751120,0.446341
692.059580,0.445548
692.368000,0.446800
692.676380,0.451908
692.984720,0.442748
693.293020,0.439970
693.601280,0.446395
693.909500,0.445706
694.217680,0.442498
694.525820,0.449353
694.833920,0.444487
695.141980,0.446973
695.450000,0.452672
695.757980,0.452636
696.065920,0.439612
696.373820,0.454580
696.681680,0.443038
696.989500,0.454651
697.297280,0.442629
697.605020,0.455159
697.912720,0.452344
698.220380,0.448249
698.528000,0.457674
698.835580,0.459107
699.143120,0.459470
699.450620,0.455052
699.758080,0.451765
700.065500,0.457302
700.372880,0.462000
700.680220,0.456322
700.987520,0.451984
701.294780,0.463909
701.602000,0.462758
701.909180,0.468998
702.216320,0.456785
702.523420,0.468035
702.830480,0.464158
703.137500,0.455573
703.444480,0.461933
703.751420,0.468245
704.058320,0.467353
704.365180,0.463328
704.672000,0.471683
704.978780,0.465470
705.285520,0.471440
705.592220,0.461961
705.898880,0.470843
706.205500,0.465571
706.512080,0.469589
706.818620,0.472136
707.125120,0.467308
707.431580,0.468542
707.738000,0.474609
708.044380,0.461212
708.350720,0.474589
708.657020,0.483783
708.963280,0.477484
709.269500,0.472407
709.575680,0.477407
709.881820,0.473664
710.187920,0.472763
710.493980,0.477890
710.800000,0.485126
711.105980,0.477033
711.411920,0.470635
711.717820,0.476023
712.023680,0.476098
712.329500,0.488565
712.635280,0.479070
712.941020,0.480093
713.246720,0.484585
713.552380,0.481554
713.858000,0.481671
714.163580,0.474349
714.469120,0.479875
714.774620,0.487959
715.080080,0.491951
715.385500,0.490008
715.690880,0.483235
715.996220,0.490095
716.301520,0.482213
716.606780,0.483491
716.912000,0.490307
717.217180,0.494413
717.522320,0.488270
717.827420,0.493897
718.132480,0.490165
718.437500,0.492866
718.742480,0.494758
719.047420,0.481796
719.352320,0.499792
719.657180,0.497956
719.962000,0.493797
720.266780,0.494391
720.571520,0.488401
720.876220,0.490180
721.180880,0.489130
721.485500,0.493941
721.790080,0.497240
722.094620,0.506432
722.399120,0.502370
722.703580,0.485641
723.008000,0.500216
723.312380,0.497632
723.616720,0.489163
723.921020,0.491122
724.225280,0.490838
724.529500,0.490806
724.833680,0.510676
725.137820,0.502643
725.441920,0.498440
725.745980,0.505593
726.050000,0.506540
726.353980,0.495719
726.657920,0.495726
726.961820,0.497260
727.265680,0.509015
727.569500,0.497715
727.873280,0.504850
728.177020,0.508982
728.480720,0.506019
728.784380,0.498826
729.088000,0.504004
729.391580,0.505448
729.695120,0.516315
729.998620,0.508604
730.302080,0.506968
730.605500,0.504609
730.908880,0.507594
731.212220,0.516161
731.515520,0.504144
731.818780,0.502427
732.122000,0.505413
732.425180,0.505175
732.728320,0.505702
733.031420,0.510777
733.334480,0.512755
733.637500,0.499496
733.940480,0.505629
734.243420,0.515800
734.546320,0.518154
734.849180,0.510331
735.152000,0.517635
735.454780,0.506715
735.757520,0.515279
736.060220,0.520274
736.362880,0.507353
736.665500,0.510183
736.968080,0.519076
737.270620,0.512793
737.573120,0.521288
737.875580,0.519516
738.178000,0.519869
738.480380,0.512432
738.782720,0.516358
739.085020,0.524780
739.387280,0.516630
739.689500,0.525481
739.991680,0.527793
740.293820,0.526810
740.595920,0.529772
740.897980,0.524562
741.200000,0.522154
741.501980,0.528367
741.803920,0.516329
742.105820,0.530739
742.407680,0.532324
742.709500,0.517045
743.011280,0.524033
743.313020,0.521739
743.614720,0.527568
743.916380,0.516860
744.218000,0.515513
744.519580,0.527778
744.821120,0.540719
745.122620,0.527861
745.424080,0.516827
745.725500,0.530477
746.026880,0.535099
746.328220,0.528360
746.629520,0.519567
746.930780,0.537377
747.232000,0.530349
747.533180,0.532642
747.834320,0.539257
748.135420,0.530764
748.436480,0.531503
748.737500,0.529957
749.038480,0.532071
749.339420,0.534536
749.640320,0.542426
749.941180,0.528420
750.242000,0.536432
750.542780,0.532258
750.843520,0.539398
751.144220,0.529487
751.444880,0.547242
751.745500,0.535065
752.046080,0.550353
752.346620,0.527062
752.647120,0.534291
752.947580,0.535576
753.248000,0.539652
753.548380,0.527001
753.848720,0.540889
754.149020,0.533849
754.449280,0.539724
754.749500,0.542800
755.049680,0.525333
755.349820,0.533689
755.649920,0.548579
755.949980,0.543464
756.250000,0.549638
756.549980,0.538614
756.849920,0.540449
757.149820,0.528277
757.449680,0.535974
757.749500,0.547376
758.049280,0.544710
758.349020,0.526426
758.648720,0.551415
758.948380,0.557388
759.248000,0.549865
759.547580,0.554136
759.847120,0.554790
760.146620,0.552097
760.446080,0.547715
760.745500,0.555245
761.044880,0.551847
761.344220,0.556664
761.643520,0.541667
761.942780,0.556333
762.242000,0.560113
762.541180,0.552817
762.840320,0.559691
763.139420,0.537271
763.438480,0.550923
763.737500,0.551344
764.036480,0.558351
764.335420,0.559633
764.634320,0.550936
764.933180,0.557534
765.232000,0.548924
765.530780,0.544561
765.829520,0.567832
766.128220,0.556019
766.426880,0.560057
766.725500,0.561343
767.024080,0.565844
767.322620,0.558783
767.621120,0.553523
767.919580,0.564505
768.218000,0.562244
768.516380,0.563895
768.814720,0.554870
769.113020,0.571330
769.411280,0.564227
769.709500,0.556157
770.007680,0.549421
770.305820,0.561190
770.603920,0.551887
770.901980,0.567623
771.200000,0.556386
771.497980,0.543566
771.795920,0.565886
772.093820,0.548797
772.391680,0.557680
772.689500,0.566216
772.987280,0.564310
773.285020,0.565960
773.582720,0.563514
773.880380,0.572409
774.178000,0.560327
774.475580,0.567984
774.773120,0.563588
775.070620,0.569304
775.368080,0.555110
775.665500,0.563465
775.962880,0.562375
776.260220,0.576716
776.557520,0.567045
776.854780,0.565247
777.152000,0.560345
777.449180,0.582603
777.746320,0.565860
778.043420,0.568895
778.340480,0.570365
778.637500,0.576065
778.934480,0.566241
779.231420,0.562415
779.528320,0.571142
779.825180,0.558630
780.122000,0.566401
780.418780,0.580711
780.715520,0.575453
781.012220,0.582192
781.308880,0.575389
781.605500,0.571233
781.902080,0.577687
782.198620,0.586466
782.495120,0.587106
782.791580,0.586657
783.088000,0.579020
783.384380,0.582531
783.680720,0.571819
783.977020,0.582244
784.273280,0.582517
784.569500,0.575821
784.865680,0.586926
785.161820,0.580556
785.457920,0.580042
785.753980,0.591766
786.050000,0.568370
786.345980,0.570833
786.641920,0.579459
786.937820,0.591880
787.233680,0.585247
787.529500,0.586685
787.825280,0.597025
788.121020,0.587110
788.416720,0.584333
788.712380,0.578984
789.008000,0.594193
789.303580,0.575265
789.599120,0.592000
789.894620,0.595668
790.190080,0.589558
790.485500,0.573074
790.780880,0.584946
791.076220,0.590188
791.371520,0.576616
791.666780,0.598545
791.962000,0.595151
792.257180,0.595900
792.552320,0.588107
792.847420,0.595342
793.142480,0.588278
793.437500,0.576700
793.732480,0.591807
794.027420,0.587537
794.322320,0.586875
794.617180,0.576523
794.912000,0.580981
795.206780,0.579418
795.501520,0.587833
795.796220,0.582963
796.090880,0.593067
796.385500,0.587706
796.680080,0.581152
796.974620,0.589820
797.269120,0.580621
797.563580,0.600763
797.858000,0.607441
798.152380,0.607115
798.446720,0.603077
798.741020,0.598613
799.035280,0.596273
799.329500,0.605851
799.623680,0.603876
