399.985280,0.351351
400.329500,0.270270
400.673680,0.329114
401.017820,0.264706
401.361920,0.242424
401.705980,0.280488
402.050000,0.207792
402.393980,0.305882
402.737920,0.235955
403.081820,0.247423
403.425680,0.267442
403.769500,0.218750
404.113280,0.252874
404.457020,0.292135
404.800720,0.250000
405.144380,0.303030
405.488000,0.268817
405.831580,0.257732
406.175120,0.308511
406.518620,0.270000
406.862080,0.319588
407.205500,0.270833
407.548880,0.204082
407.892220,0.245098
408.235520,0.255319
408.578780,0.295238
408.922000,0.211538
409.265180,0.292929
409.608320,0.252525
409.951420,0.278351
410.294480,0.235294
410.637500,0.239130
410.980480,0.225490
411.323420,0.275510
411.666320,0.302752
412.009180,0.218182
412.352000,0.178218
412.694780,0.256881
413.037520,0.238532
413.380220,0.252252
413.722880,0.250000
414.065500,0.234234
414.408080,0.238938
414.750620,0.274336
415.093120,0.264463
415.435580,0.285714
415.778000,0.212121
416.120380,0.235294
416.462720,0.246032
416.805020,0.270677
417.147280,0.276119
417.489500,0.235714
417.831680,0.267123
418.173820,0.205674
418.515920,0.258741
418.857980,0.234177
419.200000,0.250000
419.541980,0.254438
419.883920,0.247191
420.225820,0.236994
420.567680,0.256983
420.909500,0.245902
421.251280,0.229167
421.593020,0.244898
421.934720,0.207071
422.276380,0.210256
422.618000,0.264706
422.959580,0.250000
423.301120,0.255708
423.642620,0.213043
423.984080,0.209302
424.325500,0.233184
424.666880,0.232759
425.008220,0.205882
425.349520,0.224576
425.690780,0.211538
426.032000,0.215686
426.373180,0.253112
426.714320,0.214844
427.055420,0.216216
427.396480,0.205993
427.737500,0.221344
428.078480,0.217391
428.419420,0.236948
428.760320,0.210728
429.101180,0.232283
429.442000,0.203065
429.782780,0.234615
430.123520,0.223529
430.464220,0.221402
430.804880,0.229885
431.145500,0.207273
431.486080,0.235955
431.826620,0.209302
432.167120,0.216912
432.507580,0.224638
432.848000,0.226619
433.188380,0.212996
433.528720,0.196226
433.869020,0.189286
434.209280,0.192982
434.549500,0.205575
434.889680,0.225589
435.229820,0.225256
435.569920,0.186851
435.909980,0.194175
436.250000,0.223729
436.589980,0.210526
436.929920,0.203175
437.269820,0.203762
437.609680,0.207101
437.949500,0.201807
438.289280,0.223796
438.629020,0.203488
438.968720,0.191860
439.308380,0.192412
439.648000,0.197260
439.987580,0.208995
440.327120,0.200000
440.666620,0.202597
441.006080,0.202046
441.345500,0.199017
441.684880,0.198565
442.024220,0.176179
442.363520,0.185714
442.702780,0.181818
443.042000,0.180617
443.381180,0.193966
443.720320,0.196544
444.059420,0.180672
444.398480,0.173640
444.737500,0.202869
445.076480,0.196429
445.415420,0.197605
445.754320,0.172557
446.093180,0.192661
446.432000,0.199248
446.770780,0.201139
447.109520,0.196691
447.448220,0.182469
447.786880,0.178891
448.125500,0.182759
448.464080,0.178571
448.802620,0.182624
449.141120,0.176471
449.479580,0.178322
449.818000,0.187608
450.156380,0.187291
450.494720,0.180165
450.833020,0.180070
451.171280,0.169521
451.509500,0.177700
451.847680,0.177066
452.185820,0.185886
452.523920,0.197595
452.861980,0.187184
453.200000,0.174419
453.537980,0.173109
453.875920,0.184874
454.213820,0.162671
454.551680,0.180464
454.889500,0.178752
455.227280,0.172598
455.565020,0.180905
455.902720,0.178037
456.240380,0.171381
456.578000,0.182927
456.915580,0.177893
457.253120,0.171053
457.590620,0.177340
457.928080,0.180135
458.265500,0.172297
458.602880,0.168831
458.940220,0.164129
459.277520,0.164800
459.614780,0.181669
459.952000,0.153727
460.289180,0.180380
460.626320,0.173228
460.963420,0.177706
461.300480,0.169725
461.637500,0.155624
461.974480,0.159021
462.311420,0.163934
462.648320,0.159590
462.985180,0.159254
463.322000,0.163690
463.658780,0.161602
463.995520,0.154058
464.332220,0.168975
464.668880,0.155914
465.005500,0.163539
465.342080,0.167734
465.678620,0.161132
466.015120,0.161708
466.351580,0.171934
466.688000,0.152253
467.024380,0.156744
467.360720,0.161364
467.697020,0.161731
468.033280,0.167778
468.369500,0.154525
468.705680,0.152198
469.041820,0.162500
469.377920,0.158351
469.713980,0.160659
470.050000,0.171981
470.385980,0.157534
470.721920,0.160627
471.057820,0.166667
471.393680,0.160898
471.729500,0.153846
472.065280,0.162791
472.401020,0.160461
472.736720,0.165794
473.072380,0.161580
473.408000,0.160139
473.743580,0.154844
474.079120,0.160207
474.414620,0.156064
474.750080,0.153784
475.085500,0.156250
475.420880,0.151540
475.756220,0.154538
476.091520,0.156010
476.426780,0.152913
476.762000,0.148029
477.097180,0.149600
477.432320,0.151050
477.767420,0.162582
478.102480,0.152756
478.437500,0.149425
478.772480,0.144996
479.107420,0.148088
479.442320,0.155875
479.777180,0.151154
480.112000,0.152542
480.446780,0.148090
480.781520,0.144928
481.116220,0.158448
481.450880,0.148322
481.785500,0.159019
482.120080,0.154389
482.454620,0.153069
482.789120,0.151274
483.123580,0.148754
483.458000,0.149525
483.792380,0.150958
484.126720,0.149035
484.461020,0.145980
484.795280,0.151889
485.129500,0.153546
485.463680,0.149612
485.797820,0.150078
486.131920,0.148432
486.465980,0.149807
486.800000,0.158015
487.133980,0.148036
487.467920,0.155318
487.801820,0.155606
488.135680,0.151630
488.469500,0.142209
488.803280,0.158990
489.137020,0.148718
489.470720,0.151335
489.804380,0.149220
490.138000,0.152819
490.471580,0.154753
490.805120,0.152252
491.138620,0.149254
491.472080,0.159011
491.805500,0.151325
492.138880,0.153579
492.472220,0.152249
492.805520,0.152235
493.138780,0.155755
493.472000,0.153846
493.805180,0.156889
494.138320,0.152101
494.471420,0.154297
494.804480,0.154592
495.137500,0.150834
495.470480,0.154876
495.803420,0.157431
496.136320,0.154762
496.469180,0.154696
496.802000,0.146088
497.134780,0.153426
497.467520,0.157187
497.800220,0.156840
498.132880,0.152851
498.465500,0.151217
498.798080,0.154110
499.130620,0.158338
499.463120,0.157777
499.795580,0.152365
500.128000,0.156403
500.460380,0.157696
500.792720,0.150583
501.125020,0.155018
501.457280,0.152480
501.789500,0.151343
502.121680,0.155003
502.453820,0.157063
502.785920,0.150575
503.117980,0.151129
503.450000,0.160723
503.781980,0.157449
504.113920,0.152679
504.445820,0.154108
504.777680,0.153412
505.109500,0.153365
505.441280,0.160612
505.773020,0.154533
506.104720,0.146962
506.436380,0.152863
506.768000,0.159495
507.099580,0.152403
507.431120,0.157377
507.762620,0.156015
508.094080,0.150410
508.425500,0.158263
508.756880,0.149977
509.088220,0.153174
509.419520,0.151304
509.750780,0.156982
510.082000,0.158116
510.413180,0.154307
510.744320,0.155545
511.075420,0.160862
511.406480,0.156088
511.737500,0.156481
512.068480,0.156485
512.399420,0.162441
512.730320,0.158430
513.061180,0.154615
513.392000,0.165641
513.722780,0.166186
514.053520,0.162434
514.384220,0.161751
514.714880,0.161321
515.045500,0.157088
515.376080,0.160291
515.706620,0.161227
516.037120,0.159804
516.367580,0.156235
516.698000,0.159314
517.028380,0.160377
517.358720,0.163457
517.689020,0.165183
518.019280,0.164074
518.349500,0.155601
518.679680,0.160525
519.009820,0.162449
519.339920,0.169339
519.669980,0.163737
520.000000,0.170657
520.329980,0.165371
520.659920,0.165133
520.989820,0.166667
521.319680,0.176440
521.649500,0.167609
521.979280,0.167015
522.309020,0.168050
522.638720,0.166923
522.968380,0.169597
523.298000,0.165971
523.627580,0.175375
523.957120,0.164156
524.286620,0.169359
524.616080,0.172182
524.945500,0.171576
525.274880,0.179579
525.604220,0.174948
525.933520,0.173480
526.262780,0.166751
526.592000,0.172501
526.921180,0.180295
527.250320,0.174023
527.579420,0.178373
527.908480,0.174791
528.237500,0.182721
528.566480,0.178144
528.895420,0.180384
529.224320,0.176820
529.553180,0.172048
529.882000,0.181509
530.210780,0.175193
530.539520,0.172579
530.868220,0.178076
531.196880,0.180124
531.525500,0.184019
531.854080,0.181520
532.182620,0.182158
532.511120,0.177726
532.839580,0.182849
533.168000,0.181404
533.496380,0.185388
533.824720,0.179453
534.153020,0.183683
534.481280,0.181498
534.809500,0.186456
535.137680,0.183594
535.465820,0.184708
535.793920,0.184856
536.121980,0.186739
536.450000,0.184355
536.777980,0.191873
537.105920,0.185969
537.433820,0.182079
537.761680,0.186939
538.089500,0.189397
538.417280,0.189415
538.745020,0.188986
539.072720,0.188208
539.400380,0.186092
539.728000,0.189293
540.055580,0.186517
540.383120,0.194341
540.710620,0.190104
541.038080,0.189967
541.365500,0.194485
541.692880,0.192224
542.020220,0.194315
542.347520,0.193467
542.674780,0.193719
543.002000,0.192092
543.329180,0.195019
543.656320,0.202180
543.983420,0.193846
544.310480,0.197757
544.637500,0.196861
544.964480,0.194482
545.291420,0.201396
545.618320,0.198539
545.945180,0.197429
546.272000,0.194626
546.598780,0.194363
546.925520,0.195186
547.252220,0.201056
547.578880,0.202346
547.905500,0.202614
548.232080,0.199155
548.558620,0.201432
548.885120,0.199215
549.211580,0.202829
549.538000,0.203632
549.864380,0.201286
550.190720,0.202777
550.517020,0.206649
550.843280,0.208143
551.169500,0.203562
551.495680,0.207950
551.821820,0.211300
552.147920,0.207547
552.473980,0.209746
552.800000,0.207979
553.125980,0.215455
553.451920,0.213338
553.777820,0.211859
554.103680,0.212673
554.429500,0.208236
554.755280,0.208945
555.081020,0.215241
555.406720,0.211988
555.732380,0.207387
556.058000,0.214189
556.383580,0.212598
556.709120,0.217436
557.034620,0.215639
557.360080,0.218307
557.685500,0.223375
558.010880,0.215251
558.336220,0.215114
558.661520,0.214463
558.986780,0.221474
559.312000,0.214031
559.637180,0.218671
559.962320,0.223211
560.287420,0.227080
560.612480,0.222461
560.937500,0.223201
561.262480,0.223974
561.587420,0.220892
561.912320,0.222550
562.237180,0.224648
562.562000,0.224841
562.886780,0.225567
563.211520,0.227645
563.536220,0.227087
563.860880,0.232742
564.185500,0.228518
564.510080,0.228367
564.834620,0.231857
565.159120,0.230827
565.483580,0.228810
565.808000,0.224366
566.132380,0.228646
566.456720,0.238095
566.781020,0.231058
567.105280,0.228355
567.429500,0.232549
567.753680,0.233602
568.077820,0.231929
568.401920,0.240260
568.725980,0.240987
569.050000,0.228897
569.373980,0.232585
569.697920,0.243458
570.021820,0.238202
570.345680,0.239571
570.669500,0.243419
570.993280,0.239572
571.317020,0.240044
571.640720,0.241941
571.964380,0.244989
572.288000,0.243323
572.611580,0.245227
572.935120,0.245043
573.258620,0.253179
573.582080,0.243294
573.905500,0.244229
574.228880,0.255754
574.552220,0.250275
574.875520,0.253165
575.198780,0.247199
575.522000,0.250733
575.845180,0.244628
576.168320,0.249731
576.491420,0.258358
576.814480,0.256420
577.137500,0.254329
577.460480,0.256615
577.783420,0.259736
578.106320,0.260684
578.429180,0.255567
578.752000,0.258076
579.074780,0.256575
579.397520,0.263719
579.720220,0.260618
580.042880,0.261645
580.365500,0.261416
580.688080,0.266282
581.010620,0.266622
581.333120,0.267201
581.655580,0.271395
581.978000,0.266711
582.300380,0.264525
582.622720,0.268952
582.945020,0.270481
583.267280,0.268317
583.589500,0.269021
583.911680,0.270245
584.233820,0.268178
584.555920,0.274819
584.877980,0.273555
585.200000,0.269797
585.521980,0.275255
585.843920,0.269372
586.165820,0.273614
586.487680,0.272344
586.809500,0.281128
587.131280,0.272405
587.453020,0.281250
587.774720,0.283264
588.096380,0.281505
588.418000,0.283875
588.739580,0.283415
589.061120,0.283496
589.382620,0.280802
589.704080,0.281627
590.025500,0.285674
590.346880,0.287802
590.668220,0.286194
590.989520,0.276484
591.310780,0.290527
591.632000,0.289344
591.953180,0.287573
592.274320,0.285558
592.595420,0.283136
592.916480,0.292855
593.237500,0.289679
593.558480,0.295669
593.879420,0.291610
594.200320,0.294937
594.521180,0.292961
594.842000,0.302526
595.162780,0.295940
595.483520,0.294602
595.804220,0.300752
596.124880,0.300027
596.445500,0.297354
596.766080,0.299812
597.086620,0.294321
597.407120,0.298841
597.727580,0.302042
598.048000,0.296747
598.368380,0.299053
598.688720,0.303014
599.009020,0.298036
599.329280,0.304949
599.649500,0.302166
599.969680,0.303686
600.289820,0.303953
600.609920,0.302164
600.929980,0.307055
601.250000,0.303514
601.569980,0.307588
601.889920,0.306335
602.209820,0.307089
602.529680,0.315298
602.849500,0.314239
603.169280,0.311656
603.489020,0.315804
603.808720,0.307186
604.128380,0.314845
604.448000,0.317956
604.767580,0.316201
605.087120,0.310803
605.406620,0.315981
605.726080,0.320787
606.045500,0.317080
606.364880,0.314148
606.684220,0.316676
607.003520,0.318521
607.322780,0.322058
607.642000,0.315623
607.961180,0.321769
608.280320,0.323086
608.599420,0.316628
608.918480,0.322874
609.237500,0.325998
609.556480,0.329091
609.875420,0.327230
610.194320,0.327133
610.513180,0.325244
610.832000,0.329363
611.150780,0.331932
611.469520,0.329713
611.788220,0.330411
612.106880,0.320869
612.425500,0.327040
612.744080,0.334872
613.062620,0.329969
613.381120,0.325716
613.699580,0.333231
614.018000,0.334152
614.336380,0.335904
614.654720,0.336744
614.973020,0.335699
615.291280,0.341494
615.609500,0.343265
615.927680,0.339926
616.245820,0.343537
616.563920,0.339136
616.881980,0.340193
617.200000,0.339347
617.517980,0.337274
617.835920,0.338304
618.153820,0.340690
618.471680,0.341085
618.789500,0.343927
619.107280,0.342097
619.425020,0.347605
619.742720,0.347144
620.060380,0.348167
620.378000,0.341095
620.695580,0.349936
621.013120,0.347717
621.330620,0.348604
621.648080,0.341325
621.965500,0.349122
622.282880,0.348361
622.600220,0.344915
622.917520,0.353182
623.234780,0.355191
623.552000,0.356779
623.869180,0.353293
624.186320,0.356893
624.503420,0.355486
624.820480,0.360352
625.137500,0.358068
625.454480,0.359487
625.771420,0.358764
626.088320,0.365700
626.405180,0.359365
626.722000,0.362610
627.038780,0.359962
627.355520,0.362500
627.672220,0.362986
627.988880,0.360809
628.305500,0.373013
628.622080,0.368030
628.938620,0.370336
629.255120,0.373367
629.571580,0.364695
629.888000,0.367597
630.204380,0.367291
630.520720,0.369896
630.837020,0.370644
631.153280,0.375000
631.469500,0.369315
631.785680,0.365280
632.101820,0.374246
632.417920,0.371684
632.733980,0.374250
633.050000,0.373863
633.365980,0.377890
633.681920,0.376193
633.997820,0.384638
634.313680,0.380419
634.629500,0.382188
634.945280,0.385044
635.261020,0.383035
635.576720,0.381679
635.892380,0.381934
636.208000,0.384660
636.523580,0.384683
636.839120,0.380718
637.154620,0.382029
637.470080,0.387948
637.785500,0.393904
638.100880,0.391833
638.416220,0.397181
638.731520,0.383095
639.046780,0.392077
639.362000,0.388475
639.677180,0.388350
639.992320,0.391035
640.307420,0.393650
640.622480,0.397368
640.937500,0.389736
641.252480,0.404077
641.567420,0.400966
641.882320,0.395601
642.197180,0.402021
642.512000,0.396026
642.826780,0.400555
643.141520,0.398444
643.456220,0.400111
643.770880,0.406578
644.085500,0.409167
644.400080,0.406180
644.714620,0.402174
645.029120,0.400990
645.343580,0.400165
645.658000,0.412434
645.972380,0.408605
646.286720,0.409103
646.601020,0.406864
646.915280,0.414039
647.229500,0.413462
647.543680,0.406518
647.857820,0.410680
648.171920,0.412371
648.485980,0.410797
648.800000,0.407275
649.113980,0.417960
649.427920,0.420804
649.741820,0.407804
650.055680,0.413055
650.369500,0.415919
650.683280,0.410932
650.997020,0.420792
651.310720,0.416896
651.624380,0.412637
651.938000,0.418283
652.251580,0.419983
652.565120,0.417272
652.878620,0.420890
653.192080,0.422472
653.505500,0.413184
653.818880,0.426216
654.132220,0.426089
654.445520,0.420306
654.758780,0.413598
655.072000,0.426074
655.385180,0.419971
655.698320,0.423835
656.011420,0.425050
656.324480,0.427864
656.637500,0.422654
656.950480,0.424251
657.263420,0.427431
657.576320,0.426920
657.889180,0.426718
658.202000,0.427838
658.514780,0.434951
658.827520,0.432473
659.140220,0.431825
659.452880,0.430082
659.765500,0.428356
660.078080,0.430635
660.390620,0.425298
660.703120,0.436603
661.015580,0.437730
661.328000,0.437343
661.640380,0.440820
661.952720,0.439116
662.265020,0.445180
662.577280,0.433842
662.889500,0.433617
663.201680,0.443204
663.513820,0.433258
663.825920,0.436760
664.137980,0.447964
664.450000,0.434463
664.761980,0.435679
665.073920,0.439468
665.385820,0.432919
665.697680,0.442975
666.009500,0.445959
666.321280,0.450298
666.633020,0.446809
666.944720,0.442872
667.256380,0.441117
667.568000,0.435802
667.879580,0.447959
668.191120,0.452266
668.502620,0.443341
668.814080,0.446667
669.125500,0.449538
669.436880,0.450207
669.748220,0.449290
670.059520,0.457283
670.370780,0.444676
670.682000,0.448850
670.993180,0.453488
671.304320,0.448312
671.615420,0.451705
671.926480,0.458481
672.237500,0.447303
672.548480,0.453158
672.859420,0.453896
673.170320,0.456293
673.481180,0.456191
673.792000,0.452578
674.102780,0.461400
674.413520,0.458622
674.724220,0.462069
675.034880,0.464246
675.345500,0.463895
675.656080,0.462069
675.966620,0.467079
676.277120,0.457342
676.587580,0.470913
676.898000,0.462486
677.208380,0.462107
677.518720,0.465354
677.829020,0.462306
678.139280,0.458488
678.449500,0.461938
678.759680,0.466467
679.069820,0.468030
679.379920,0.471143
679.689980,0.468251
680.000000,0.465794
680.309980,0.463994
680.619920,0.465354
680.929820,0.462486
681.239680,0.467873
681.549500,0.468519
681.859280,0.476102
682.169020,0.472958
682.478720,0.480553
682.788380,0.469915
683.098000,0.474196
683.407580,0.478049
683.717120,0.474099
684.026620,0.475904
684.336080,0.470633
684.645500,0.472503
684.954880,0.477522
685.264220,0.476784
685.573520,0.481919
685.882780,0.487534
686.192000,0.480060
686.501180,0.489974
686.810320,0.488086
687.119420,0.476625
687.428480,0.486137
687.737500,0.488104
688.046480,0.479678
688.355420,0.486609
688.664320,0.479725
688.973180,0.487749
689.282000,0.490355
689.590780,0.485429
689.899520,0.480441
690.208220,0.490061
690.516880,0.486063
690.825500,0.490189
691.134080,0.487851
691.442620,0.486662
691.751120,0.491088
692.059580,0.489110
692.368000,0.492238
692.676380,0.496565
692.984720,0.488931
693.293020,0.489742
693.601280,0.491797
693.909500,0.494135
694.217680,0.495430
694.525820,0.486291
694.833920,0.497902
695.141980,0.502121
695.450000,0.498855
695.757980,0.492361
696.065920,0.499806
696.373820,0.500000
696.681680,0.485616
696.989500,0.502123
697.297280,0.490471
697.605020,0.503968
697.912720,0.496925
698.220380,0.496655
698.528000,0.504747
698.835580,0.497827
699.143120,0.500390
699.450620,0.500796
699.758080,0.494118
700.065500,0.509178
700.372880,0.509600
700.680220,0.501795
700.987520,0.514286
701.294780,0.519465
701.602000,0.506339
701.909180,0.507949
702.216320,0.500978
702.523420,0.514996
702.830480,0.508119
703.137500,0.510522
703.444480,0.507692
703.751420,0.512426
704.058320,0.514444
704.365180,0.510252
704.672000,0.513663
704.978780,0.507608
705.285520,0.514867
705.592220,0.507843
705.898880,0.515760
706.205500,0.515649
706.512080,0.509479
706.818620,0.513158
707.125120,0.518462
707.431580,0.518171
707.738000,0.523437
708.044380,0.512543
708.350720,0.504394
708.657020,0.517390
708.963280,0.523680
709.269500,0.524462
709.575680,0.522200
709.881820,0.526336
710.187920,0.523346
710.493980,0.516680
710.800000,0.512204
711.105980,0.515060
711.411920,0.518723
711.717820,0.520468
712.023680,0.521570
712.329500,0.528785
712.635280,0.526744
712.941020,0.521067
713.246720,0.521344
713.552380,0.531790
713.858000,0.525424
714.163580,0.519337
714.469120,0.523642
714.774620,0.526253
715.080080,0.525324
715.385500,0.527178
715.690880,0.521105
715.996220,0.524564
716.301520,0.535178
716.606780,0.530267
716.912000,0.528271
717.217180,0.533919
717.522320,0.530417
717.827420,0.528885
718.132480,0.532316
718.437500,0.536078
718.742480,0.533468
719.047420,0.530744
719.352320,0.539643
719.657180,0.535159
719.962000,0.531844
720.266780,0.525135
720.571520,0.538525
720.876220,0.535597
721.180880,0.529264
721.485500,0.536565
721.790080,0.538429
722.094620,0.551458
722.399120,0.542439
722.703580,0.532362
723.008000,0.540750
723.312380,0.539819
723.616720,0.540586
723.921020,0.544825
724.225280,0.530541
724.529500,0.538529
724.833680,0.539146
725.137820,0.539648
725.441920,0.547035
725.745980,0.540492
726.050000,0.553451
726.353980,0.538531
726.657920,0.545659
726.961820,0.547032
727.265680,0.551086
727.569500,0.542962
727.873280,0.542725
728.177020,0.546753
728.480720,0.546296
728.784380,0.556599
729.088000,0.551107
729.391580,0.549029
729.695120,0.544146
729.998620,0.559273
730.302080,0.546852
730.605500,0.549248
730.908880,0.552670
731.212220,0.560725
731.515520,0.542175
731.818780,0.549515
732.122000,0.549213
732.425180,0.541153
732.728320,0.548339
733.031420,0.555890
733.334480,0.554592
733.637500,0.548891
733.940480,0.551689
734.243420,0.555556
734.546320,0.554979
734.849180,0.545455
735.152000,0.558610
735.454780,0.551653
735.757520,0.554795
736.060220,0.544497
736.362880,0.552521
736.665500,0.550392
736.968080,0.557765
737.270620,0.551987
737.573120,0.550218
737.875580,0.564046
738.178000,0.559608
738.480380,0.554595
738.782720,0.556707
739.085020,0.556718
739.387280,0.563747
739.689500,0.564553
739.991680,0.559236
740.293820,0.558872
740.595920,0.558152
740.897980,0.560136
741.200000,0.562535
741.501980,0.563897
741.803920,0.553491
742.105820,0.561196
742.407680,0.575422
742.709500,0.564773
743.011280,0.570926
743.313020,0.557101
743.614720,0.558328
743.916380,0.558721
744.218000,0.570406
744.519580,0.564010
744.821120,0.565269
745.122620,0.559017
745.424080,0.561298
745.725500,0.568497
746.026880,0.573892
746.328220,0.568434
746.629520,0.553281
746.930780,0.574755
747.232000,0.563458
747.533180,0.569250
747.834320,0.574559
748.135420,0.565569
748.436480,0.563319
748.737500,0.568870
749.038480,0.560171
749.339420,0.561917
749.640320,0.579510
749.941180,0.572142
750.242000,0.560302
750.542780,0.570099
750.843520,0.584241
751.144220,0.567949
751.444880,0.571972
751.745500,0.567532
752.046080,0.586273
752.346620,0.565722
752.647120,0.572175
752.947580,0.571798
753.248000,0.577692
753.548380,0.566688
753.848720,0.574372
754.149020,0.564797
754.449280,0.569928
754.749500,0.568679
755.049680,0.567333
755.349820,0.575050
755.649920,0.581626
755.949980,0.577969
756.250000,0.581197
756.549980,0.574917
756.849920,0.581237
757.149820,0.562874
757.449680,0.578878
757.749500,0.584867
758.049280,0.575427
758.349020,0.576495
758.648720,0.580400
758.948380,0.575258
759.248000,0.585580
759.547580,0.593813
759.847120,0.580289
760.146620,0.575101
760.446080,0.581317
760.745500,0.580420
761.044880,0.586648
761.344220,0.586600
761.643520,0.568503
761.942780,0.583625
762.242000,0.585573
762.541180,0.591549
762.840320,0.584972
763.139420,0.590014
763.438480,0.583049
763.737500,0.582357
764.036480,0.587002
764.335420,0.583627
764.634320,0.586279
764.933180,0.588356
765.232000,0.585704
765.530780,0.596491
765.829520,0.597902
766.128220,0.582463
766.426880,0.589197
766.725500,0.585332
767.024080,0.581619
767.322620,0.603043
767.621120,0.583333
767.919580,0.603413
768.218000,0.595759
768.516380,0.584178
768.814720,0.591221
769.113020,0.587181
769.411280,0.584945
769.709500,0.593369
770.007680,0.593729
770.305820,0.601082
770.603920,0.586927
770.901980,0.603825
771.200000,0.591712
771.497980,0.580429
771.795920,0.585284
772.093820,0.576872
772.391680,0.600527
772.689500,0.597297
772.987280,0.597306
773.285020,0.598086
773.582720,0.597297
773.880380,0.602608
774.178000,0.605317
774.475580,0.592766
774.773120,0.591031
775.070620,0.607843
775.368080,0.597194
775.665500,0.580255
775.962880,0.585724
776.260220,0.606326
776.557520,0.605737
776.854780,0.601758
777.152000,0.594828
777.449180,0.610249
777.746320,0.596102
778.043420,0.605730
778.340480,0.599459
778.637500,0.602434
778.934480,0.591123
779.231420,0.607870
779.528320,0.592518
779.825180,0.590250
780.122000,0.592297
780.418780,0.606703
780.715520,0.606975
781.012220,0.600000
781.308880,0.602434
781.605500,0.601370
781.902080,0.595483
782.198620,0.604921
782.495120,0.613169
782.791580,0.617607
783.088000,0.618357
783.384380,0.610041
783.680720,0.595759
783.977020,0.611838
784.273280,0.617483
784.569500,0.621244
784.865680,0.619611
785.161820,0.600000
785.457920,0.600832
785.753980,0.602931
786.050000,0.608425
786.345980,0.613889
786.641920,0.608605
786.937820,0.630342
787.233680,0.593598
787.529500,0.606796
787.825280,0.618980
788.121020,0.598442
788.416720,0.606916
788.712380,0.617066
789.008000,0.615439
789.303580,0.598587
789.599120,0.622545
789.894620,0.627437
790.190080,0.622190
790.485500,0.616271
790.780880,0.603584
791.076220,0.616883
791.371520,0.612200
791.666780,0.612364
791.962000,0.614989
792.257180,0.614934
792.552320,0.614213
792.847420,0.622999
793.142480,0.619780
793.437500,0.618669
793.732480,0.622531
794.027420,0.617211
794.322320,0.616704
794.617180,0.618128
794.912000,0.627786
795.206780,0.610738
795.501520,0.631939
795.796220,0.608889
796.090880,0.632253
796.385500,0.626687
796.680080,0.611070
796.974620,0.617515
797.269120,0.617714
797.563580,0.619847
797.858000,0.621868
798.152380,0.623357
798.446720,0.641538
798.741020,0.614792
799.035280,0.624224
799.329500,0.622017
799.623680,0.619380
