399.985280,0.216216
400.329500,0.243243
400.673680,0.164557
401.017820,0.176471
401.361920,0.227273
401.705980,0.207317
402.050000,0.181818
402.393980,0.270588
402.737920,0.224719
403.081820,0.206186
403.425680,0.244186
403.769500,0.156250
404.113280,0.195402
404.457020,0.191011
404.800720,0.130435
405.144380,0.262626
405.488000,0.182796
405.831580,0.226804
406.175120,0.212766
406.518620,0.210000
406.862080,0.309278
407.205500,0.145833
407.548880,0.234694
407.892220,0.205882
408.235520,0.212766
408.578780,0.209524
408.922000,0.192308
409.265180,0.181818
409.608320,0.171717
409.951420,0.226804
410.294480,0.274510
410.637500,0.206522
410.980480,0.196078
411.323420,0.153061
411.666320,0.183486
412.009180,0.254545
412.352000,0.217822
412.694780,0.247706
413.037520,0.165138
413.380220,0.216216
413.722880,0.205357
414.065500,0.216216
414.408080,0.194690
414.750620,0.176991
415.093120,0.206612
415.435580,0.226891
415.778000,0.234848
416.120380,0.277311
416.462720,0.182540
416.805020,0.218045
417.147280,0.179104
417.489500,0.242857
417.831680,0.191781
418.173820,0.191489
418.515920,0.223776
418.857980,0.170886
419.200000,0.211538
419.541980,0.195266
419.883920,0.191011
420.225820,0.190751
420.567680,0.217877
420.909500,0.202186
421.251280,0.223958
421.593020,0.214286
421.934720,0.196970
422.276380,0.200000
422.618000,0.200980
422.959580,0.230392
423.301120,0.191781
423.642620,0.165217
423.984080,0.186047
424.325500,0.224215
424.666880,0.198276
425.008220,0.180672
425.349520,0.177966
425.690780,0.196154
426.032000,0.164706
426.373180,0.165975
426.714320,0.183594
427.055420,0.177606
427.396480,0.194757
427.737500,0.177866
428.078480,0.193676
428.419420,0.184739
428.760320,0.187739
429.101180,0.220472
429.442000,0.203065
429.782780,0.176923
430.123520,0.192157
430.464220,0.188192
430.804880,0.226054
431.145500,0.156364
431.486080,0.191011
431.826620,0.201550
432.167120,0.183824
432.507580,0.188406
432.848000,0.169065
433.188380,0.169675
433.528720,0.181132
433.869020,0.207143
434.209280,0.147368
434.549500,0.191638
434.889680,0.188552
435.229820,0.201365
435.569920,0.173010
435.909980,0.155340
436.250000,0.193220
436.589980,0.151703
436.929920,0.184127
437.269820,0.163009
437.609680,0.171598
437.949500,0.183735
438.289280,0.161473
438.629020,0.180233
438.968720,0.165698
439.308380,0.154472
439.648000,0.161644
439.987580,0.201058
440.327120,0.178667
440.666620,0.158442
441.006080,0.173913
441.345500,0.181818
441.684880,0.167464
442.024220,0.163772
442.363520,0.161905
442.702780,0.159091
443.042000,0.176211
443.381180,0.170259
443.720320,0.179266
444.059420,0.170168
444.398480,0.154812
444.737500,0.163934
445.076480,0.158730
445.415420,0.165669
445.754320,0.151767
446.093180,0.157798
446.432000,0.180451
446.770780,0.165085
447.109520,0.167279
447.448220,0.164580
447.786880,0.168157
448.125500,0.162069
448.464080,0.167857
448.802620,0.170213
449.141120,0.159170
449.479580,0.159091
449.818000,0.177281
450.156380,0.153846
450.494720,0.165289
450.833020,0.162587
451.171280,0.166096
451.509500,0.174216
451.847680,0.166948
452.185820,0.163511
452.523920,0.171821
452.861980,0.163575
453.200000,0.161130
453.537980,0.157983
453.875920,0.166387
454.213820,0.155822
454.551680,0.160596
454.889500,0.163575
455.227280,0.144128
455.565020,0.169179
455.902720,0.168053
456.240380,0.146423
456.578000,0.163763
456.915580,0.162349
457.253120,0.161184
457.590620,0.160920
457.928080,0.168350
458.265500,0.172297
458.602880,0.157468
458.940220,0.140440
459.277520,0.160000
459.614780,0.173486
459.952000,0.159938
460.289180,0.170886
460.626320,0.157480
460.963420,0.177706
461.300480,0.166667
461.637500,0.158706
461.974480,0.166667
462.311420,0.152012
462.648320,0.153734
462.985180,0.156385
463.322000,0.154762
463.658780,0.157459
463.995520,0.159560
464.332220,0.163435
464.668880,0.169355
465.005500,0.159517
465.342080,0.152369
465.678620,0.151292
466.015120,0.159120
466.351580,0.163085
466.688000,0.170524
467.024380,0.156744
467.360720,0.153409
467.697020,0.164009
468.033280,0.158889
468.369500,0.157837
468.705680,0.162345
469.041820,0.156250
469.377920,0.157267
469.713980,0.148301
470.050000,0.156522
470.385980,0.153620
470.721920,0.146915
471.057820,0.153996
471.393680,0.161833
471.729500,0.152919
472.065280,0.161002
472.401020,0.163121
472.736720,0.160558
473.072380,0.163375
473.408000,0.154047
473.743580,0.170415
474.079120,0.158484
474.414620,0.158609
474.750080,0.157852
475.085500,0.162007
475.420880,0.159034
475.756220,0.163532
476.091520,0.156863
476.426780,0.157767
476.762000,0.150442
477.097180,0.160000
477.432320,0.165590
477.767420,0.157680
478.102480,0.159843
478.437500,0.165025
478.772480,0.159180
479.107420,0.155411
479.442320,0.160671
479.777180,0.163882
480.112000,0.157165
480.446780,0.155885
480.781520,0.157810
481.116220,0.154406
481.450880,0.159251
481.785500,0.166139
482.120080,0.167712
482.454620,0.165501
482.789120,0.163217
483.123580,0.165109
483.458000,0.158228
483.792380,0.154952
484.126720,0.164479
484.461020,0.163154
484.795280,0.161141
485.129500,0.167576
485.463680,0.158140
485.797820,0.165630
486.131920,0.163734
486.465980,0.165251
486.800000,0.168702
487.133980,0.168429
487.467920,0.168324
487.801820,0.176201
488.135680,0.172858
488.469500,0.164145
488.803280,0.164933
489.137020,0.165568
489.470720,0.166172
489.804380,0.167038
490.138000,0.173591
490.471580,0.176124
490.805120,0.170122
491.138620,0.169154
491.472080,0.171025
491.805500,0.168061
492.138880,0.170952
492.472220,0.169550
492.805520,0.171089
493.138780,0.172984
493.472000,0.169231
493.805180,0.171896
494.138320,0.172115
494.471420,0.169922
494.804480,0.175938
495.137500,0.173299
495.470480,0.177820
495.803420,0.175693
496.136320,0.176692
496.469180,0.175568
496.802000,0.172983
497.134780,0.174045
497.467520,0.181651
497.800220,0.178066
498.132880,0.176367
498.465500,0.176130
498.798080,0.176941
499.130620,0.176867
499.463120,0.184166
499.795580,0.178218
500.128000,0.177657
500.460380,0.182454
500.792720,0.176564
501.125020,0.177089
501.457280,0.183812
501.789500,0.186467
502.121680,0.187662
502.453820,0.180520
502.785920,0.180090
503.117980,0.188911
503.450000,0.184329
503.781980,0.185351
504.113920,0.182077
504.445820,0.181818
504.777680,0.179765
505.109500,0.179808
505.441280,0.187380
505.773020,0.183185
506.104720,0.183231
506.436380,0.185518
506.768000,0.189897
507.099580,0.184897
507.431120,0.189696
507.762620,0.191259
508.094080,0.185962
508.425500,0.185808
508.756880,0.183813
509.088220,0.188592
509.419520,0.190410
509.750780,0.188379
510.082000,0.190299
510.413180,0.193920
510.744320,0.193281
511.075420,0.193859
511.406480,0.191349
511.737500,0.190278
512.068480,0.188910
512.399420,0.193427
512.730320,0.191224
513.061180,0.192198
513.392000,0.195457
513.722780,0.197406
514.053520,0.198850
514.384220,0.192198
514.714880,0.202011
515.045500,0.193008
515.376080,0.200000
515.706620,0.199221
516.037120,0.196569
516.367580,0.192706
516.698000,0.201471
517.028380,0.194141
517.358720,0.198025
517.689020,0.205242
518.019280,0.202208
518.349500,0.201723
518.679680,0.203937
519.009820,0.207490
519.339920,0.206413
519.669980,0.203415
520.000000,0.209883
520.329980,0.208398
520.659920,0.207055
520.989820,0.200722
521.319680,0.204218
521.649500,0.206684
521.979280,0.209290
522.309020,0.206950
522.638720,0.205325
522.968380,0.207859
523.298000,0.210334
523.627580,0.214175
523.957120,0.209351
524.286620,0.214174
524.616080,0.217166
524.945500,0.213953
525.274880,0.219087
525.604220,0.210145
525.933520,0.211740
526.262780,0.211353
526.592000,0.212582
526.921180,0.223464
527.250320,0.219178
527.579420,0.219303
527.908480,0.218612
528.237500,0.218967
528.566480,0.219062
528.895420,0.219320
529.224320,0.218425
529.553180,0.218795
529.882000,0.230170
530.210780,0.229247
530.539520,0.222435
530.868220,0.222595
531.196880,0.223125
531.525500,0.230508
531.854080,0.222326
532.182620,0.223260
532.511120,0.225058
532.839580,0.222777
533.168000,0.228350
533.496380,0.235616
533.824720,0.224316
534.153020,0.230941
534.481280,0.231718
534.809500,0.234828
535.137680,0.228299
535.465820,0.231529
535.793920,0.237733
536.121980,0.234998
536.450000,0.232558
536.777980,0.232928
537.105920,0.235782
537.433820,0.238543
537.761680,0.244082
538.089500,0.242412
538.417280,0.238758
538.745020,0.242076
539.072720,0.237407
539.400380,0.238539
539.728000,0.242830
540.055580,0.233708
540.383120,0.246091
540.710620,0.239955
541.038080,0.245666
541.365500,0.248529
541.692880,0.250000
542.020220,0.241454
542.347520,0.248026
542.674780,0.248765
543.002000,0.244577
543.329180,0.247282
543.656320,0.254923
543.983420,0.251966
544.310480,0.253823
544.637500,0.249744
544.964480,0.250000
545.291420,0.254237
545.618320,0.254980
545.945180,0.251154
546.272000,0.252949
546.598780,0.251393
546.925520,0.248269
547.252220,0.255200
547.578880,0.256109
547.905500,0.260784
548.232080,0.255686
548.558620,0.254149
548.885120,0.260386
549.211580,0.261331
549.538000,0.260376
549.864380,0.261093
550.190720,0.262512
550.517020,0.260756
550.843280,0.265147
551.169500,0.259542
551.495680,0.267740
551.821820,0.264533
552.147920,0.264151
552.473980,0.264735
552.800000,0.265206
553.125980,0.271120
553.451920,0.263106
553.777820,0.270153
554.103680,0.274688
554.429500,0.267827
554.755280,0.277036
555.081020,0.268717
555.406720,0.269218
555.732380,0.271433
556.058000,0.276646
556.383580,0.271482
556.709120,0.274638
557.034620,0.276610
557.360080,0.270466
557.685500,0.268326
558.010880,0.279029
558.336220,0.272408
558.661520,0.279688
558.986780,0.282069
559.312000,0.281695
559.637180,0.280072
559.962320,0.283375
560.287420,0.280677
560.612480,0.283459
560.937500,0.287078
561.262480,0.285924
561.587420,0.282191
561.912320,0.285556
562.237180,0.285344
562.562000,0.284699
562.886780,0.287625
563.211520,0.288003
563.536220,0.292764
563.860880,0.290834
564.185500,0.288555
564.510080,0.288939
564.834620,0.292520
565.159120,0.290977
565.483580,0.292284
565.808000,0.295498
566.132380,0.297650
566.456720,0.298564
566.781020,0.297074
567.105280,0.293384
567.429500,0.294765
567.753680,0.301112
568.077820,0.298029
568.401920,0.297937
568.725980,0.302846
569.050000,0.304943
569.373980,0.299201
569.697920,0.300721
570.021820,0.304869
570.345680,0.306927
570.669500,0.305609
570.993280,0.300111
571.317020,0.302521
571.640720,0.307521
571.964380,0.307721
572.288000,0.317878
572.611580,0.315612
572.935120,0.312383
573.258620,0.312640
573.582080,0.316319
573.905500,0.310871
574.228880,0.319599
574.552220,0.314034
574.875520,0.314966
575.198780,0.314420
575.522000,0.316716
575.845180,0.318410
576.168320,0.324111
576.491420,0.325218
576.814480,0.317902
577.137500,0.322511
577.460480,0.322218
577.783420,0.322615
578.106320,0.326567
578.429180,0.328385
578.752000,0.328239
579.074780,0.325017
579.397520,0.325371
579.720220,0.332368
580.042880,0.332342
580.365500,0.323627
580.688080,0.335482
581.010620,0.330746
581.333120,0.334669
581.655580,0.331668
581.978000,0.335218
582.300380,0.327167
582.622720,0.335860
582.945020,0.333875
583.267280,0.337024
583.589500,0.334510
583.911680,0.331534
584.233820,0.336481
584.555920,0.341948
584.877980,0.347990
585.200000,0.336403
585.521980,0.341057
585.843920,0.344112
586.165820,0.343388
586.487680,0.346073
586.809500,0.347435
587.131280,0.338657
587.453020,0.345536
587.774720,0.349793
588.096380,0.350933
588.418000,0.348844
588.739580,0.353550
589.061120,0.347326
589.382620,0.349570
589.704080,0.353156
590.025500,0.350742
590.346880,0.352164
590.668220,0.354803
590.989520,0.352191
591.310780,0.353217
591.632000,0.360656
591.953180,0.358428
592.274320,0.359268
592.595420,0.353179
592.916480,0.358870
593.237500,0.363783
593.558480,0.363734
593.879420,0.356083
594.200320,0.358693
594.521180,0.362550
594.842000,0.368888
595.162780,0.361111
595.483520,0.367190
595.804220,0.370032
596.124880,0.372502
596.445500,0.366780
596.766080,0.371336
597.086620,0.376062
597.407120,0.367825
597.727580,0.372050
598.048000,0.370537
598.368380,0.367175
598.688720,0.370904
599.009020,0.375000
599.329280,0.373603
599.649500,0.369519
599.969680,0.380342
600.289820,0.376335
600.609920,0.372963
600.929980,0.380278
601.250000,0.377027
601.569980,0.383473
601.889920,0.379043
602.209820,0.376894
602.529680,0.389179
602.849500,0.379978
603.169280,0.382750
603.489020,0.388043
603.808720,0.385628
604.128380,0.384106
604.448000,0.380663
604.767580,0.387709
605.087120,0.387812
605.406620,0.389029
605.726080,0.395495
606.045500,0.381165
606.364880,0.386447
606.684220,0.387778
607.003520,0.387041
607.322780,0.395111
607.642000,0.388570
607.961180,0.392310
608.280320,0.391241
608.599420,0.391947
608.918480,0.395894
609.237500,0.397300
609.556480,0.402190
609.875420,0.394566
610.194320,0.395335
610.513180,0.392128
610.832000,0.399643
611.150780,0.400120
611.469520,0.398793
611.788220,0.402963
612.106880,0.398975
612.425500,0.405603
612.744080,0.405663
613.062620,0.404893
613.381120,0.404631
613.699580,0.404660
614.018000,0.403870
614.336380,0.406539
614.654720,0.403721
614.973020,0.410676
615.291280,0.410908
615.609500,0.418067
615.927680,0.408529
616.245820,0.412492
616.563920,0.409077
616.881980,0.416589
617.200000,0.414930
617.517980,0.410081
617.835920,0.410376
618.153820,0.407212
618.471680,0.412093
618.789500,0.416929
619.107280,0.415649
619.425020,0.412623
619.742720,0.417137
620.060380,0.411783
620.378000,0.415356
620.695580,0.418263
621.013120,0.419843
621.330620,0.422027
621.648080,0.416719
621.965500,0.414680
622.282880,0.418348
622.600220,0.423563
622.917520,0.424386
623.234780,0.430408
623.552000,0.428071
623.869180,0.422944
624.186320,0.430755
624.503420,0.426959
624.820480,0.424442
625.137500,0.435112
625.454480,0.424820
625.771420,0.433796
626.088320,0.429382
626.405180,0.438395
626.722000,0.436010
627.038780,0.430451
627.355520,0.430625
627.672220,0.436703
627.988880,0.430482
628.305500,0.435650
628.622080,0.438042
628.938620,0.435780
629.255120,0.443684
629.571580,0.437021
629.888000,0.442160
630.204380,0.444615
630.520720,0.438757
630.837020,0.445575
631.153280,0.443645
631.469500,0.440873
631.785680,0.438819
632.101820,0.440290
632.417920,0.442027
632.733980,0.445078
633.050000,0.453305
633.365980,0.445465
633.681920,0.451074
633.997820,0.449492
634.313680,0.450015
634.629500,0.445001
634.945280,0.449267
635.261020,0.455239
635.576720,0.453905
635.892380,0.445251
636.208000,0.456130
636.523580,0.456007
636.839120,0.451940
637.154620,0.455652
637.470080,0.449354
637.785500,0.467175
638.100880,0.456125
638.416220,0.461317
638.731520,0.456447
639.046780,0.460821
639.362000,0.455849
639.677180,0.459166
639.992320,0.462644
640.307420,0.460804
640.622480,0.461775
640.937500,0.463800
641.252480,0.470260
641.567420,0.471157
641.882320,0.466036
642.197180,0.470241
642.512000,0.460957
642.826780,0.471290
643.141520,0.475688
643.456220,0.468733
643.770880,0.468491
644.085500,0.475685
644.400080,0.473315
644.714620,0.470178
645.029120,0.473047
645.343580,0.469556
645.658000,0.473772
645.972380,0.475199
646.286720,0.469338
646.601020,0.472737
646.915280,0.480395
647.229500,0.475000
647.543680,0.476388
647.857820,0.478943
648.171920,0.475041
648.485980,0.476295
648.800000,0.476715
649.113980,0.484479
649.427920,0.484882
649.741820,0.472108
650.055680,0.480801
650.369500,0.493834
650.683280,0.476970
650.997020,0.483223
651.310720,0.481563
651.624380,0.483242
651.938000,0.477285
652.251580,0.483162
652.565120,0.482113
652.878620,0.491554
653.192080,0.488764
653.505500,0.486676
653.818880,0.486494
654.132220,0.487041
654.445520,0.482700
654.758780,0.490085
655.072000,0.485960
655.385180,0.479315
655.698320,0.486710
656.011420,0.489825
656.324480,0.492276
656.637500,0.483198
656.950480,0.492073
657.263420,0.494827
657.576320,0.493329
657.889180,0.492775
658.202000,0.496981
658.514780,0.499553
658.827520,0.491897
659.140220,0.501948
659.452880,0.497433
659.765500,0.490066
660.078080,0.487812
660.390620,0.496792
660.703120,0.501069
661.015580,0.500613
661.328000,0.507557
661.640380,0.503262
661.952720,0.503581
662.265020,0.495904
662.577280,0.499046
662.889500,0.497635
663.201680,0.513401
663.513820,0.502734
663.825920,0.501761
664.137980,0.507434
664.450000,0.500959
664.761980,0.496890
665.073920,0.496267
665.385820,0.504908
665.697680,0.503471
666.009500,0.506485
666.321280,0.505302
666.633020,0.502327
666.944720,0.506235
667.256380,0.510094
667.568000,0.506454
667.879580,0.514626
668.191120,0.517170
668.502620,0.512838
668.814080,0.511930
669.125500,0.512487
669.436880,0.505878
669.748220,0.512980
670.059520,0.519958
670.370780,0.512178
670.682000,0.514336
670.993180,0.519732
671.304320,0.514416
671.615420,0.509943
671.926480,0.514904
672.237500,0.515899
672.548480,0.508872
672.859420,0.518227
673.170320,0.517229
673.481180,0.521361
673.792000,0.515326
674.102780,0.516338
674.413520,0.521692
674.724220,0.521960
675.034880,0.525853
675.345500,0.524799
675.656080,0.519419
675.966620,0.520917
676.277120,0.518491
676.587580,0.522091
676.898000,0.530795
677.208380,0.513494
677.518720,0.523705
677.829020,0.524390
678.139280,0.528540
678.449500,0.528778
678.759680,0.523417
679.069820,0.525651
679.379920,0.528480
679.689980,0.533977
680.000000,0.528972
680.309980,0.530067
680.619920,0.534646
680.929820,0.532288
681.239680,0.528434
681.549500,0.535556
681.859280,0.535848
682.169020,0.531891
682.478720,0.542633
682.788380,0.533776
683.098000,0.537397
683.407580,0.535460
683.717120,0.529279
684.026620,0.531627
684.336080,0.539219
684.645500,0.531238
684.954880,0.534945
685.264220,0.540959
685.573520,0.543205
685.882780,0.543537
686.192000,0.533108
686.501180,0.542187
686.810320,0.546503
687.119420,0.541239
687.428480,0.538169
687.737500,0.547199
688.046480,0.546779
688.355420,0.548849
688.664320,0.538256
688.973180,0.539816
689.282000,0.547068
689.590780,0.543712
689.899520,0.543866
690.208220,0.554664
690.516880,0.548683
690.825500,0.549434
691.134080,0.542141
691.442620,0.538110
691.751120,0.552143
692.059580,0.553305
692.368000,0.546763
692.676380,0.558779
692.984720,0.545038
693.293020,0.554711
693.601280,0.560092
693.909500,0.555808
694.217680,0.543031
694.525820,0.544935
694.833920,0.551698
695.141980,0.557270
695.450000,0.556107
695.757980,0.559969
696.065920,0.553786
696.373820,0.551578
696.681680,0.547756
696.989500,0.551139
697.297280,0.550758
697.605020,0.562698
697.912720,0.548424
698.220380,0.552538
698.528000,0.567642
698.835580,0.560253
699.143120,0.551052
699.450620,0.554097
699.758080,0.552157
700.065500,0.554669
700.372880,0.562000
700.680220,0.563622
700.987520,0.565873
701.294780,0.559611
701.602000,0.564184
701.909180,0.565580
702.216320,0.563160
702.523420,0.566693
702.830480,0.565941
703.137500,0.561185
703.444480,0.571203
703.751420,0.573570
704.058320,0.572616
704.365180,0.561120
704.672000,0.568317
704.978780,0.571206
705.285520,0.568858
705.592220,0.563137
705.898880,0.568558
706.205500,0.567684
706.512080,0.569115
706.818620,0.568111
707.125120,0.569615
707.431580,0.561547
707.738000,0.576172
708.044380,0.559629
708.350720,0.570118
708.657020,0.577960
708.963280,0.572205
709.269500,0.576125
709.575680,0.579568
709.881820,0.573506
710.187920,0.579767
710.493980,0.570597
710.800000,0.573989
711.105980,0.565136
711.411920,0.570753
711.717820,0.575828
712.023680,0.574815
712.329500,0.586751
712.635280,0.579845
712.941020,0.573251
713.246720,0.586166
713.552380,0.585557
713.858000,0.575089
714.163580,0.579716
714.469120,0.570535
714.774620,0.581919
715.080080,0.582254
715.385500,0.585132
715.690880,0.570020
715.996220,0.579239
716.301520,0.581423
716.606780,0.584119
716.912000,0.584006
717.217180,0.584198
717.522320,0.576541
717.827420,0.585435
718.132480,0.583300
718.437500,0.587444
718.742480,0.574597
719.047420,0.573625
719.352320,0.591947
719.657180,0.582584
719.962000,0.587262
720.266780,0.589946
720.571520,0.588235
720.876220,0.581424
721.180880,0.578595
721.485500,0.585875
721.790080,0.585138
722.094620,0.596055
722.399120,0.592848
722.703580,0.578654
723.008000,0.593359
723.312380,0.592768
723.616720,0.584360
723.921020,0.587700
724.225280,0.584206
724.529500,0.580560
724.833680,0.592972
725.137820,0.589427
725.441920,0.596077
725.745980,0.587919
726.050000,0.603518
726.353980,0.591257
726.657920,0.596941
726.961820,0.605023
727.265680,0.593620
727.569500,0.592322
727.873280,0.597691
728.177020,0.593275
728.480720,0.590741
728.784380,0.607797
729.088000,0.589260
729.391580,0.599242
729.695120,0.599328
729.998620,0.594646
730.302080,0.598751
730.605500,0.594372
730.908880,0.594806
731.212220,0.606268
731.515520,0.598732
731.818780,0.588835
732.122000,0.595472
732.425180,0.589453
732.728320,0.597422
733.031420,0.600000
733.334480,0.599490
733.637500,0.595262
733.940480,0.610031
734.243420,0.587666
734.546320,0.604772
734.849180,0.588843
735.152000,0.600622
735.454780,0.597107
735.757520,0.597471
736.060220,0.602422
736.362880,0.596113
736.665500,0.597389
736.968080,0.600752
737.270620,0.602613
737.573120,0.609170
737.875580,0.616273
738.178000,0.606424
738.480380,0.597297
738.782720,0.593784
739.085020,0.599670
739.387280,0.611419
739.689500,0.602492
739.991680,0.614262
740.293820,0.610835
740.595920,0.606566
740.897980,0.608131
741.200000,0.603477
741.501980,0.605731
741.803920,0.595158
742.105820,0.600677
742.407680,0.610367
742.709500,0.595455
743.011280,0.606096
743.313020,0.603478
743.614720,0.593151
743.916380,0.595349
744.218000,0.621122
744.519580,0.617754
744.821120,0.630539
745.122620,0.613541
745.424080,0.613582
745.725500,0.611949
746.026880,0.612069
746.328220,0.615906
746.629520,0.596629
746.930780,0.612132
747.232000,0.599632
747.533180,0.612569
747.834320,0.615338
748.135420,0.615289
748.436480,0.616344
748.737500,0.615812
749.038480,0.613928
749.339420,0.617922
749.640320,0.618479
749.941180,0.608994
750.242000,0.609296
750.542780,0.608561
750.843520,0.621397
751.144220,0.603205
751.444880,0.606214
751.745500,0.609091
752.046080,0.627967
752.346620,0.605026
752.647120,0.610712
752.947580,0.609961
753.248000,0.616377
753.548380,0.600520
753.848720,0.609788
754.149020,0.598968
754.449280,0.610637
754.749500,0.617784
755.049680,0.608000
755.349820,0.612408
755.649920,0.624587
755.949980,0.624419
756.250000,0.628534
756.549980,0.607921
756.849920,0.619307
757.149820,0.607452
757.449680,0.612541
757.749500,0.625767
758.049280,0.630034
758.349020,0.625869
758.648720,0.623879
758.948380,0.617182
759.248000,0.615903
759.547580,0.616005
759.847120,0.619573
760.146620,0.606225
760.446080,0.623656
760.745500,0.629371
761.044880,0.617898
761.344220,0.626515
761.643520,0.632768
761.942780,0.614416
762.242000,0.621641
762.541180,0.624648
762.840320,0.623596
763.139420,0.630802
763.438480,0.609706
763.737500,0.631978
764.036480,0.626834
764.335420,0.631616
764.634320,0.612613
764.933180,0.622603
765.232000,0.614851
765.530780,0.632281
765.829520,0.633566
766.128220,0.620738
766.426880,0.634684
766.725500,0.625086
767.024080,0.624143
767.322620,0.624481
767.621120,0.621274
767.919580,0.636177
768.218000,0.633379
768.516380,0.630156
768.814720,0.626200
769.113020,0.630600
769.411280,0.647790
769.709500,0.628552
770.007680,0.626449
770.305820,0.641650
770.603920,0.625337
770.901980,0.627049
771.200000,0.630435
771.497980,0.618633
771.795920,0.621405
772.093820,0.632353
772.391680,0.625577
772.689500,0.637838
772.987280,0.630303
773.285020,0.634313
773.582720,0.639865
773.880380,0.645848
774.178000,0.636673
774.475580,0.636303
774.773120,0.635877
775.070620,0.638269
775.368080,0.629259
775.665500,0.624580
775.962880,0.634423
776.260220,0.646703
776.557520,0.642428
776.854780,0.638945
777.152000,0.626658
777.449180,0.636548
777.746320,0.634409
778.043420,0.637108
778.340480,0.638024
778.637500,0.639621
778.934480,0.646268
779.231420,0.628901
779.528320,0.624582
779.825180,0.627141
780.122000,0.622842
780.418780,0.647059
780.715520,0.645875
781.012220,0.663014
781.308880,0.636917
781.605500,0.639041
781.902080,0.637919
782.198620,0.635680
782.495120,0.641975
782.791580,0.644429
783.088000,0.643202
783.384380,0.649243
783.680720,0.634063
783.977020,0.622161
784.273280,0.634965
784.569500,0.651293
784.865680,0.641168
785.161820,0.640278
785.457920,0.627166
785.753980,0.641312
786.050000,0.629834
786.345980,0.634722
786.641920,0.636364
786.937820,0.643162
787.233680,0.624913
787.529500,0.635229
787.825280,0.656516
788.121020,0.643059
788.416720,0.637262
788.712380,0.635402
789.008000,0.638810
789.303580,0.638163
789.599120,0.658909
789.894620,0.649097
790.190080,0.647571
790.485500,0.643629
790.780880,0.637993
791.076220,0.640693
791.371520,0.654321
791.666780,0.660364
791.962000,0.650257
792.257180,0.644217
792.552320,0.654097
792.847420,0.652111
793.142480,0.656410
793.437500,0.637482
793.732480,0.646672
794.027420,0.648368
794.322320,0.646532
794.617180,0.645617
794.912000,0.648588
795.206780,0.656227
795.501520,0.647909
795.796220,0.634815
796.090880,0.654861
796.385500,0.645427
796.680080,0.640239
796.974620,0.649701
797.269120,0.635882
797.563580,0.649618
797.858000,0.652240
798.152380,0.658159
798.446720,0.657692
798.741020,0.628659
799.035280,0.656056
799.329500,0.656659
799.623680,0.652713
