399.985280,0.121622
400.329500,0.162162
400.673680,0.189873
401.017820,0.220588
401.361920,0.090909
401.705980,0.158537
402.050000,0.077922
402.393980,0.200000
402.737920,0.146067
403.081820,0.206186
403.425680,0.209302
403.769500,0.145833
404.113280,0.206897
404.457020,0.235955
404.800720,0.119565
405.144380,0.232323
405.488000,0.193548
405.831580,0.237113
406.175120,0.148936
406.518620,0.230000
406.862080,0.257732
407.205500,0.166667
407.548880,0.142857
407.892220,0.176471
408.235520,0.180851
408.578780,0.200000
408.922000,0.182692
409.265180,0.212121
409.608320,0.191919
409.951420,0.185567
410.294480,0.245098
410.637500,0.206522
410.980480,0.166667
411.323420,0.173469
411.666320,0.183486
412.009180,0.209091
412.352000,0.138614
412.694780,0.201835
413.037520,0.192661
413.380220,0.180180
413.722880,0.169643
414.065500,0.189189
414.408080,0.176991
414.750620,0.176991
415.093120,0.123967
415.435580,0.210084
415.778000,0.212121
416.120380,0.210084
416.462720,0.134921
416.805020,0.210526
417.147280,0.223881
417.489500,0.228571
417.831680,0.171233
418.173820,0.141844
418.515920,0.174825
418.857980,0.208861
419.200000,0.179487
419.541980,0.201183
419.883920,0.202247
420.225820,0.173410
420.567680,0.201117
420.909500,0.125683
421.251280,0.171875
421.593020,0.183673
421.934720,0.171717
422.276380,0.169231
422.618000,0.191176
422.959580,0.161765
423.301120,0.187215
423.642620,0.165217
423.984080,0.181395
424.325500,0.143498
424.666880,0.168103
425.008220,0.151261
425.349520,0.165254
425.690780,0.192308
426.032000,0.176471
426.373180,0.174274
426.714320,0.171875
427.055420,0.166023
427.396480,0.172285
427.737500,0.169960
428.078480,0.197628
428.419420,0.180723
428.760320,0.153257
429.101180,0.192913
429.442000,0.172414
429.782780,0.169231
430.123520,0.176471
430.464220,0.169742
430.804880,0.191571
431.145500,0.170909
431.486080,0.187266
431.826620,0.174419
432.167120,0.191176
432.507580,0.173913
432.848000,0.172662
433.188380,0.180505
433.528720,0.154717
433.869020,0.207143
434.209280,0.147368
434.549500,0.170732
434.889680,0.164983
435.229820,0.167235
435.569920,0.159170
435.909980,0.171521
436.250000,0.186441
436.589980,0.151703
436.929920,0.200000
437.269820,0.166144
437.609680,0.180473
437.949500,0.156627
438.289280,0.158640
438.629020,0.177326
438.968720,0.171512
439.308380,0.168022
439.648000,0.153425
439.987580,0.171958
440.327120,0.173333
440.666620,0.161039
441.006080,0.171355
441.345500,0.164619
441.684880,0.188995
442.024220,0.161290
442.363520,0.147619
442.702780,0.159091
443.042000,0.165198
443.381180,0.165948
443.720320,0.179266
444.059420,0.149160
444.398480,0.156904
444.737500,0.186475
445.076480,0.166667
445.415420,0.173653
445.754320,0.153846
446.093180,0.161468
446.432000,0.167293
446.770780,0.157495
447.109520,0.181985
447.448220,0.175313
447.786880,0.166369
448.125500,0.177586
448.464080,0.164286
448.802620,0.168440
449.141120,0.169550
449.479580,0.164336
449.818000,0.170396
450.156380,0.163880
450.494720,0.170248
450.833020,0.166084
451.171280,0.162671
451.509500,0.174216
451.847680,0.178752
452.185820,0.166954
452.523920,0.170103
452.861980,0.168634
453.200000,0.164452
453.537980,0.157983
453.875920,0.169748
454.213820,0.167808
454.551680,0.160596
454.889500,0.166948
455.227280,0.160142
455.565020,0.177554
455.902720,0.181364
456.240380,0.153078
456.578000,0.174216
456.915580,0.165803
457.253120,0.177632
457.590620,0.175698
457.928080,0.181818
458.265500,0.172297
458.602880,0.183442
458.940220,0.165821
459.277520,0.166400
459.614780,0.181669
459.952000,0.170807
460.289180,0.177215
460.626320,0.176378
460.963420,0.168013
461.300480,0.174312
461.637500,0.167951
461.974480,0.168196
462.311420,0.177347
462.648320,0.161054
462.985180,0.157819
463.322000,0.177083
463.658780,0.161602
463.995520,0.166437
464.332220,0.167590
464.668880,0.173387
465.005500,0.182306
465.342080,0.169014
465.678620,0.168512
466.015120,0.184994
466.351580,0.183312
466.688000,0.171742
467.024380,0.179830
467.360720,0.171591
467.697020,0.177677
468.033280,0.174444
468.369500,0.177704
468.705680,0.180383
469.041820,0.175000
469.377920,0.168113
469.713980,0.169928
470.050000,0.184541
470.385980,0.170254
470.721920,0.170421
471.057820,0.182261
471.393680,0.170253
471.729500,0.171455
472.065280,0.175313
472.401020,0.173759
472.736720,0.173647
473.072380,0.180431
473.408000,0.171453
473.743580,0.170415
474.079120,0.184324
474.414620,0.177269
474.750080,0.179821
475.085500,0.181743
475.420880,0.181515
475.756220,0.174162
476.091520,0.177323
476.426780,0.179612
476.762000,0.179405
477.097180,0.184000
477.432320,0.177706
477.767420,0.178105
478.102480,0.175591
478.437500,0.176519
478.772480,0.182033
479.107420,0.178194
479.442320,0.181455
479.777180,0.186953
480.112000,0.171032
480.446780,0.183164
480.781520,0.176329
481.116220,0.184317
481.450880,0.183450
481.785500,0.191456
482.120080,0.187304
482.454620,0.186480
482.789120,0.187898
483.123580,0.179907
483.458000,0.181962
483.792380,0.186901
484.126720,0.195367
484.461020,0.189696
484.795280,0.195066
485.129500,0.197194
485.463680,0.189922
485.797820,0.188180
486.131920,0.193573
486.465980,0.194595
486.800000,0.190840
487.133980,0.186556
487.467920,0.195103
487.801820,0.199085
488.135680,0.198635
488.469500,0.192890
488.803280,0.198366
489.137020,0.193407
489.470720,0.197329
489.804380,0.197476
490.138000,0.210682
490.471580,0.198231
490.805120,0.205861
491.138620,0.198294
491.472080,0.205654
491.805500,0.199442
492.138880,0.194580
492.472220,0.196540
492.805520,0.204609
493.138780,0.209511
493.472000,0.199331
493.805180,0.205321
494.138320,0.206137
494.471420,0.199219
494.804480,0.203105
495.137500,0.203466
495.470480,0.210325
495.803420,0.205290
496.136320,0.211779
496.469180,0.197667
496.802000,0.205990
497.134780,0.208005
497.467520,0.222018
497.800220,0.212854
498.132880,0.212228
498.465500,0.210892
498.798080,0.209475
499.130620,0.215609
499.463120,0.216732
499.795580,0.214521
500.128000,0.212534
500.460380,0.216362
500.792720,0.212089
501.125020,0.212822
501.457280,0.216188
501.789500,0.214360
502.121680,0.219285
502.453820,0.220806
502.785920,0.220110
503.117980,0.218351
503.450000,0.224510
503.781980,0.219731
504.113920,0.218113
504.445820,0.222654
504.777680,0.218824
505.109500,0.221635
505.441280,0.223709
505.773020,0.213715
506.104720,0.219030
506.436380,0.219593
506.768000,0.225444
507.099580,0.215561
507.431120,0.228103
507.762620,0.222744
508.094080,0.224248
508.425500,0.225957
508.756880,0.224051
509.088220,0.229071
509.419520,0.226723
509.750780,0.227273
510.082000,0.231343
510.413180,0.229387
510.744320,0.232398
511.075420,0.225023
511.406480,0.231312
511.737500,0.230556
512.068480,0.231673
512.399420,0.232394
512.730320,0.226328
513.061180,0.232636
513.392000,0.230478
513.722780,0.232949
514.053520,0.239578
514.384220,0.235014
514.714880,0.232647
515.045500,0.232280
515.376080,0.242131
515.706620,0.241111
516.037120,0.245098
516.367580,0.235584
516.698000,0.237255
517.028380,0.247269
517.358720,0.240494
517.689020,0.242334
518.019280,0.243352
518.349500,0.246325
518.679680,0.248864
519.009820,0.241903
519.339920,0.250000
519.669980,0.235560
520.000000,0.247071
520.329980,0.246242
520.659920,0.250511
520.989820,0.250258
521.319680,0.249486
521.649500,0.247301
521.979280,0.252088
522.309020,0.252593
522.638720,0.246800
522.968380,0.252844
523.298000,0.253653
523.627580,0.250905
523.957120,0.260779
524.286620,0.259510
524.616080,0.251293
524.945500,0.255814
525.274880,0.260133
525.604220,0.253106
525.933520,0.255241
526.262780,0.251901
526.592000,0.254186
526.921180,0.263586
527.250320,0.256215
527.579420,0.270339
527.908480,0.260463
528.237500,0.261668
528.566480,0.260978
528.895420,0.260720
529.224320,0.267459
529.553180,0.264578
529.882000,0.270560
530.210780,0.265444
530.539520,0.265580
530.868220,0.267113
531.196880,0.268992
531.525500,0.282324
531.854080,0.267355
532.182620,0.270434
532.511120,0.273318
532.839580,0.274047
533.168000,0.270738
533.496380,0.283562
533.824720,0.277254
534.153020,0.282211
534.481280,0.280176
534.809500,0.287159
535.137680,0.279080
535.465820,0.287801
535.793920,0.279188
536.121980,0.279480
536.450000,0.287949
536.777980,0.288228
537.105920,0.289332
537.433820,0.285188
537.761680,0.296327
538.089500,0.291785
538.417280,0.284123
538.745020,0.291997
539.072720,0.285045
539.400380,0.285936
539.728000,0.288719
540.055580,0.284644
540.383120,0.288533
540.710620,0.289435
541.038080,0.300627
541.365500,0.291912
541.692880,0.295058
542.020220,0.293631
542.347520,0.299713
542.674780,0.295695
543.002000,0.298460
543.329180,0.305507
543.656320,0.303094
543.983420,0.297094
544.310480,0.299015
544.637500,0.303309
544.964480,0.302826
545.291420,0.304752
545.618320,0.306441
545.945180,0.304548
546.272000,0.300131
546.598780,0.302196
546.925520,0.303330
547.252220,0.311324
547.578880,0.311502
547.905500,0.308497
548.232080,0.312541
548.558620,0.304914
548.885120,0.307818
549.211580,0.305047
549.538000,0.316148
549.864380,0.309968
550.190720,0.311269
550.517020,0.314211
550.843280,0.319218
551.169500,0.313613
551.495680,0.315046
551.821820,0.319399
552.147920,0.314899
552.473980,0.315443
552.800000,0.322433
553.125980,0.316634
553.451920,0.322827
553.777820,0.324450
554.103680,0.325918
554.429500,0.320388
554.755280,0.320093
555.081020,0.323195
555.406720,0.328480
555.732380,0.316842
556.058000,0.322132
556.383580,0.326943
556.709120,0.327705
557.034620,0.328626
557.360080,0.327461
557.685500,0.324689
558.010880,0.322357
558.336220,0.327592
558.661520,0.334633
558.986780,0.341247
559.312000,0.332621
559.637180,0.329982
559.962320,0.331435
560.287420,0.333568
560.612480,0.336921
560.937500,0.340675
561.262480,0.334677
561.587420,0.337323
561.912320,0.333456
562.237180,0.342339
562.562000,0.340441
562.886780,0.344853
563.211520,0.337183
563.536220,0.337291
563.860880,0.346662
564.185500,0.346717
564.510080,0.348758
564.834620,0.345367
565.159120,0.338346
565.483580,0.346256
565.808000,0.348089
566.132380,0.346885
566.456720,0.356009
566.781020,0.344336
567.105280,0.357278
567.429500,0.356601
567.753680,0.355198
568.077820,0.353305
568.401920,0.350267
568.725980,0.357875
569.050000,0.353992
569.373980,0.350590
569.697920,0.354570
570.021820,0.360674
570.345680,0.354765
570.669500,0.364365
570.993280,0.351421
571.317020,0.354403
571.640720,0.363097
571.964380,0.361173
572.288000,0.364614
572.611580,0.366529
572.935120,0.365133
573.258620,0.363500
573.582080,0.366990
573.905500,0.361876
574.228880,0.368968
574.552220,0.369366
574.875520,0.364483
575.198780,0.368992
575.522000,0.368402
575.845180,0.364971
576.168320,0.371542
576.491420,0.371003
576.814480,0.376130
577.137500,0.374459
577.460480,0.380210
577.783420,0.380850
578.106320,0.378561
578.429180,0.377165
578.752000,0.381382
579.074780,0.383345
579.397520,0.379600
579.720220,0.381918
580.042880,0.382887
580.365500,0.384183
580.688080,0.380597
581.010620,0.386770
581.333120,0.382432
581.655580,0.388278
581.978000,0.390422
582.300380,0.384940
582.622720,0.391562
582.945020,0.386216
583.267280,0.394008
583.589500,0.386517
583.911680,0.399492
584.233820,0.390305
584.555920,0.396470
584.877980,0.400754
585.200000,0.392572
585.521980,0.399135
585.843920,0.396583
586.165820,0.394576
586.487680,0.396630
586.809500,0.399940
587.131280,0.396924
587.453020,0.407738
587.774720,0.404790
588.096380,0.403442
588.418000,0.407668
588.739580,0.404427
589.061120,0.402818
589.382620,0.399427
589.704080,0.404208
590.025500,0.409817
590.346880,0.412029
590.668220,0.411929
590.989520,0.407654
591.310780,0.412593
591.632000,0.410929
591.953180,0.415998
592.274320,0.408408
592.595420,0.413254
592.916480,0.417821
593.237500,0.418486
593.558480,0.418079
593.879420,0.420556
594.200320,0.416019
594.521180,0.412483
594.842000,0.421010
595.162780,0.421741
595.483520,0.423292
595.804220,0.421053
596.124880,0.420197
596.445500,0.423107
596.766080,0.424039
597.086620,0.420913
597.407120,0.420748
597.727580,0.426412
598.048000,0.426078
598.368380,0.426355
598.688720,0.425164
599.009020,0.430202
599.329280,0.428952
599.649500,0.427100
599.969680,0.430823
600.289820,0.436699
600.609920,0.428533
600.929980,0.433993
601.250000,0.434865
601.569980,0.435863
601.889920,0.432237
602.209820,0.433712
602.529680,0.438890
602.849500,0.435079
603.169280,0.441168
603.489020,0.439801
603.808720,0.433077
604.128380,0.436810
604.448000,0.433425
604.767580,0.436034
605.087120,0.436011
605.406620,0.435488
605.726080,0.446250
606.045500,0.434940
606.364880,0.434363
606.684220,0.442033
607.003520,0.440940
607.322780,0.440591
607.642000,0.443998
607.961180,0.449552
608.280320,0.445186
608.599420,0.438297
608.918480,0.445455
609.237500,0.450117
609.556480,0.451021
609.875420,0.445659
610.194320,0.445232
610.513180,0.445990
610.832000,0.450566
611.150780,0.455692
611.469520,0.453092
611.788220,0.450726
612.106880,0.451448
612.425500,0.447929
612.744080,0.454294
613.062620,0.448624
613.381120,0.457038
613.699580,0.463213
614.018000,0.455774
614.336380,0.459593
614.654720,0.458915
614.973020,0.457575
615.291280,0.458320
615.609500,0.464025
615.927680,0.457973
616.245820,0.453618
616.563920,0.469692
616.881980,0.461490
617.200000,0.460964
617.517980,0.462352
617.835920,0.463809
618.153820,0.455393
618.471680,0.462636
618.789500,0.460352
619.107280,0.476056
619.425020,0.466540
619.742720,0.470182
620.060380,0.464431
620.378000,0.470107
620.695580,0.475096
621.013120,0.469921
621.330620,0.479448
621.648080,0.463722
621.965500,0.467378
622.282880,0.472573
622.600220,0.465572
622.917520,0.474795
623.234780,0.481839
623.552000,0.476130
623.869180,0.475260
624.186320,0.480739
624.503420,0.479937
624.820480,0.479422
625.137500,0.481528
625.454480,0.477024
625.771420,0.479508
626.088320,0.483922
626.405180,0.477287
626.722000,0.487453
627.038780,0.484649
627.355520,0.483750
627.672220,0.476516
627.988880,0.480249
628.305500,0.487691
628.622080,0.486679
628.938620,0.478899
629.255120,0.489110
629.571580,0.495250
629.888000,0.486959
630.204380,0.490028
630.520720,0.492687
630.837020,0.492754
631.153280,0.493705
631.469500,0.498484
631.785680,0.492767
632.101820,0.493366
632.417920,0.485842
632.733980,0.491297
633.050000,0.499697
633.365980,0.487552
633.681920,0.500895
633.997820,0.500299
634.313680,0.500147
634.629500,0.497788
634.945280,0.502639
635.261020,0.501321
635.576720,0.502055
635.892380,0.502178
636.208000,0.506101
636.523580,0.508916
636.839120,0.503764
637.154620,0.509565
637.470080,0.501578
637.785500,0.504103
638.100880,0.511150
638.416220,0.513949
638.731520,0.502579
639.046780,0.510632
639.362000,0.503440
639.677180,0.510565
639.992320,0.509163
640.307420,0.507727
640.622480,0.510501
640.937500,0.503745
641.252480,0.515498
641.567420,0.519750
641.882320,0.511136
642.197180,0.516844
642.512000,0.513014
642.826780,0.517892
643.141520,0.522645
643.456220,0.518539
643.770880,0.517966
644.085500,0.521520
644.400080,0.520506
644.714620,0.517559
645.029120,0.521452
645.343580,0.520845
645.658000,0.525951
645.972380,0.522335
646.286720,0.528754
646.601020,0.522004
646.915280,0.525638
647.229500,0.518407
647.543680,0.518917
647.857820,0.522984
648.171920,0.524959
648.485980,0.523431
648.800000,0.525214
649.113980,0.531319
649.427920,0.530929
649.741820,0.523770
650.055680,0.524685
650.369500,0.534473
650.683280,0.526915
650.997020,0.529978
651.310720,0.529169
651.624380,0.522802
651.938000,0.530748
652.251580,0.527414
652.565120,0.533538
652.878620,0.535473
653.192080,0.532022
653.505500,0.529874
653.818880,0.532556
654.132220,0.533466
654.445520,0.533182
654.758780,0.530878
655.072000,0.533811
655.385180,0.536377
655.698320,0.533867
656.011420,0.533677
656.324480,0.535704
656.637500,0.535921
656.950480,0.533470
657.263420,0.548625
657.576320,0.540468
657.889180,0.539959
658.202000,0.542271
658.514780,0.538553
658.827520,0.542317
659.140220,0.537009
659.452880,0.543038
659.765500,0.538230
660.078080,0.533554
660.390620,0.539872
660.703120,0.545982
661.015580,0.541411
661.328000,0.550378
661.640380,0.540541
661.952720,0.545313
662.265020,0.548519
662.577280,0.539758
662.889500,0.547777
663.201680,0.550096
663.513820,0.551624
663.825920,0.549792
664.137980,0.551390
664.450000,0.539962
664.761980,0.548282
665.073920,0.538786
665.385820,0.545812
665.697680,0.548760
666.009500,0.551380
666.321280,0.558979
666.633020,0.555851
666.944720,0.552073
667.256380,0.553163
667.568000,0.547554
667.879580,0.549320
668.191120,0.556662
668.502620,0.558713
668.814080,0.560000
669.125500,0.553199
669.436880,0.549447
669.748220,0.553479
670.059520,0.565476
670.370780,0.555672
670.682000,0.557168
670.993180,0.557435
671.304320,0.552391
671.615420,0.551847
671.926480,0.552520
672.237500,0.555913
672.548480,0.552874
672.859420,0.552895
673.170320,0.560029
673.481180,0.568429
673.792000,0.557158
674.102780,0.557630
674.413520,0.562887
674.724220,0.564428
675.034880,0.568757
675.345500,0.568563
675.656080,0.566606
675.966620,0.558385
676.277120,0.565727
676.587580,0.565169
676.898000,0.564016
677.208380,0.557486
677.518720,0.564916
677.829020,0.573540
678.139280,0.559674
678.449500,0.568140
678.759680,0.574372
679.069820,0.565056
679.379920,0.577518
679.689980,0.572596
680.000000,0.564860
680.309980,0.563846
680.619920,0.571753
680.929820,0.561777
681.239680,0.564993
681.549500,0.573333
681.859280,0.572069
682.169020,0.563596
682.478720,0.575542
682.788380,0.570690
683.098000,0.573298
683.407580,0.570732
683.717120,0.574700
684.026620,0.570783
684.336080,0.582797
684.645500,0.567527
684.954880,0.572346
685.264220,0.576066
685.573520,0.590788
685.882780,0.588416
686.192000,0.582017
686.501180,0.584563
686.810320,0.581476
687.119420,0.586849
687.428480,0.584884
687.737500,0.583269
688.046480,0.578221
688.355420,0.582799
688.664320,0.580337
688.973180,0.584992
689.282000,0.583333
689.590780,0.588957
689.899520,0.586403
690.208220,0.585245
690.516880,0.585338
690.825500,0.584528
691.134080,0.588838
691.442620,0.580030
691.751120,0.587789
692.059580,0.588460
692.368000,0.588792
692.676380,0.589695
692.984720,0.586641
693.293020,0.588526
693.601280,0.597482
693.909500,0.581914
694.217680,0.589490
694.525820,0.593679
694.833920,0.582221
695.141980,0.588893
695.450000,0.585115
695.757980,0.581742
696.065920,0.587961
696.373820,0.586605
696.681680,0.589183
696.989500,0.589348
697.297280,0.581486
697.605020,0.601984
697.912720,0.587241
698.220380,0.595435
698.528000,0.598101
698.835580,0.590281
699.143120,0.593920
699.450620,0.589499
699.758080,0.591765
700.065500,0.604549
700.372880,0.600400
700.680220,0.600319
700.987520,0.600794
701.294780,0.599757
701.602000,0.598257
701.909180,0.601749
702.216320,0.594838
702.523420,0.597080
702.830480,0.600792
703.137500,0.589634
703.444480,0.592505
703.751420,0.595266
704.058320,0.601504
704.365180,0.603312
704.672000,0.609505
704.978780,0.602809
705.285520,0.596244
705.592220,0.602353
705.898880,0.605989
706.205500,0.601330
706.512080,0.595972
706.818620,0.599845
707.125120,0.601923
707.431580,0.604924
707.738000,0.610938
708.044380,0.609031
708.350720,0.601452
708.657020,0.615475
708.963280,0.604814
709.269500,0.609002
709.575680,0.611002
709.881820,0.609670
710.187920,0.611673
710.493980,0.604344
710.800000,0.602212
711.105980,0.606551
711.411920,0.602286
711.717820,0.609747
712.023680,0.603576
712.329500,0.620662
712.635280,0.613178
712.941020,0.612292
713.246720,0.607510
713.552380,0.604396
713.858000,0.606622
714.163580,0.615233
714.469120,0.611567
714.774620,0.613502
715.080080,0.620338
715.385500,0.613509
715.690880,0.613412
715.996220,0.619255
716.301520,0.614229
716.606780,0.613208
716.912000,0.617124
717.217180,0.619713
717.522320,0.607555
717.827420,0.622457
718.132480,0.603774
718.437500,0.615980
718.742480,0.602016
719.047420,0.608414
719.352320,0.623080
719.657180,0.620605
719.962000,0.608354
720.266780,0.614042
720.571520,0.614747
720.876220,0.610065
721.180880,0.618729
721.485500,0.613038
721.790080,0.616136
722.094620,0.615352
722.399120,0.630332
722.703580,0.615517
723.008000,0.622251
723.312380,0.621610
723.616720,0.621334
723.921020,0.625812
724.225280,0.604712
724.529500,0.606830
724.833680,0.627669
725.137820,0.625110
725.441920,0.613910
725.745980,0.623714
726.050000,0.622914
726.353980,0.621902
726.657920,0.617184
726.961820,0.625571
727.265680,0.625982
727.569500,0.623857
727.873280,0.613395
728.177020,0.621373
728.480720,0.630556
728.784380,0.628934
729.088000,0.627414
729.391580,0.627665
729.695120,0.641075
729.998620,0.634799
730.302080,0.633349
730.605500,0.625425
730.908880,0.626164
731.212220,0.620470
731.515520,0.630912
731.818780,0.618932
732.122000,0.626476
732.425180,0.620503
732.728320,0.617253
733.031420,0.631579
733.334480,0.627041
733.637500,0.622480
733.940480,0.625896
734.243420,0.626911
734.546320,0.628631
734.849180,0.629132
735.152000,0.624481
735.454780,0.617769
735.757520,0.629610
736.060220,0.624013
736.362880,0.616597
736.665500,0.611488
736.968080,0.628157
737.270620,0.643985
737.573120,0.623908
737.875580,0.635514
738.178000,0.630920
738.480380,0.640000
738.782720,0.628135
739.085020,0.631057
739.387280,0.623614
739.689500,0.643828
739.991680,0.629983
740.293820,0.632394
740.595920,0.626600
740.897980,0.630152
741.200000,0.635446
741.501980,0.631519
741.803920,0.622185
742.105820,0.630570
742.407680,0.639487
742.709500,0.624432
743.011280,0.633646
743.313020,0.628406
743.614720,0.627974
743.916380,0.619767
744.218000,0.640811
744.519580,0.638285
744.821120,0.643713
745.122620,0.631516
745.424080,0.623197
745.725500,0.637296
746.026880,0.647167
746.328220,0.644883
746.629520,0.623119
746.930780,0.628064
747.232000,0.627223
747.533180,0.629652
747.834320,0.628728
748.135420,0.633313
748.436480,0.631940
748.737500,0.628783
749.038480,0.629200
749.339420,0.647791
749.640320,0.639221
749.941180,0.633979
750.242000,0.631281
750.542780,0.628412
750.843520,0.644459
751.144220,0.639744
751.444880,0.643627
751.745500,0.645455
752.046080,0.644003
752.346620,0.639175
752.647120,0.632266
752.947580,0.628719
753.248000,0.633140
753.548380,0.631750
753.848720,0.641983
754.149020,0.638943
754.449280,0.635588
754.749500,0.627737
755.049680,0.630000
755.349820,0.641761
755.649920,0.647720
755.949980,0.637027
756.250000,0.643655
756.549980,0.632343
756.849920,0.646499
757.149820,0.636727
757.449680,0.639604
757.749500,0.647580
758.049280,0.641638
758.349020,0.635605
758.648720,0.651484
758.948380,0.635052
759.248000,0.637466
759.547580,0.648958
759.847120,0.624397
760.146620,0.636671
760.446080,0.638441
760.745500,0.647552
761.044880,0.649148
761.344220,0.638632
761.643520,0.651130
761.942780,0.651505
762.242000,0.642857
762.541180,0.647887
762.840320,0.632022
763.139420,0.649086
763.438480,0.638414
763.737500,0.640937
764.036480,0.642907
764.335420,0.639379
764.634320,0.642412
764.933180,0.643151
765.232000,0.637058
765.530780,0.655439
765.829520,0.651049
766.128220,0.645094
766.426880,0.658849
766.725500,0.643592
767.024080,0.653635
767.322620,0.647994
767.621120,0.647696
767.919580,0.651195
768.218000,0.649795
768.516380,0.663962
768.814720,0.643347
769.113020,0.645072
769.411280,0.669199
769.709500,0.663735
770.007680,0.646898
770.305820,0.644354
770.603920,0.642857
770.901980,0.657104
771.200000,0.639266
771.497980,0.639410
771.795920,0.645485
772.093820,0.652406
772.391680,0.647330
772.689500,0.650000
772.987280,0.649832
773.285020,0.653452
773.582720,0.654054
773.880380,0.658202
774.178000,0.657805
774.475580,0.659076
774.773120,0.635207
775.070620,0.659905
775.368080,0.657315
775.665500,0.646743
775.962880,0.653769
776.260220,0.662180
776.557520,0.665110
776.854780,0.665314
777.152000,0.641247
777.449180,0.659474
777.746320,0.637769
778.043420,0.659618
778.340480,0.654939
778.637500,0.656525
778.934480,0.659718
779.231420,0.643148
779.528320,0.651971
779.825180,0.643610
780.122000,0.646746
780.418780,0.653899
780.715520,0.667337
781.012220,0.660959
781.308880,0.663286
781.605500,0.653425
781.902080,0.655715
782.198620,0.656186
782.495120,0.665981
782.791580,0.654746
783.088000,0.654934
783.384380,0.657497
783.680720,0.661423
783.977020,0.648314
784.273280,0.659441
784.569500,0.656883
784.865680,0.664812
785.161820,0.657639
785.457920,0.655579
785.753980,0.656664
786.050000,0.659530
786.345980,0.653472
786.641920,0.653019
786.937820,0.669516
787.233680,0.652053
787.529500,0.649792
787.825280,0.665722
788.121020,0.660765
788.416720,0.661962
788.712380,0.648801
789.008000,0.647309
789.303580,0.655124
789.599120,0.658182
789.894620,0.660650
790.190080,0.659173
790.485500,0.664507
790.780880,0.650179
791.076220,0.663059
791.371520,0.671750
791.666780,0.670545
791.962000,0.656870
792.257180,0.667643
792.552320,0.662074
792.847420,0.651383
793.142480,0.652747
793.437500,0.660637
793.732480,0.659839
794.027420,0.652819
794.322320,0.653990
794.617180,0.667905
794.912000,0.664190
795.206780,0.659955
795.501520,0.679848
795.796220,0.660741
796.090880,0.663150
796.385500,0.658171
796.680080,0.655946
796.974620,0.654940
797.269120,0.655564
797.563580,0.664122
797.858000,0.649962
798.152380,0.662800
798.446720,0.666154
798.741020,0.661787
799.035280,0.659161
799.329500,0.661278
799.623680,0.669767
