399.985280,0.162162
400.329500,0.189189
400.673680,0.215190
401.017820,0.132353
401.361920,0.166667
401.705980,0.121951
402.050000,0.155844
402.393980,0.164706
402.737920,0.224719
403.081820,0.185567
403.425680,0.162791
403.769500,0.177083
404.113280,0.160920
404.457020,0.191011
404.800720,0.152174
405.144380,0.232323
405.488000,0.118280
405.831580,0.195876
406.175120,0.180851
406.518620,0.210000
406.862080,0.247423
407.205500,0.166667
407.548880,0.224490
407.892220,0.186275
408.235520,0.180851
408.578780,0.247619
408.922000,0.211538
409.265180,0.181818
409.608320,0.171717
409.951420,0.164948
410.294480,0.166667
410.637500,0.206522
410.980480,0.215686
411.323420,0.193878
411.666320,0.220183
412.009180,0.190909
412.352000,0.158416
412.694780,0.201835
413.037520,0.165138
413.380220,0.180180
413.722880,0.223214
414.065500,0.216216
414.408080,0.203540
414.750620,0.194690
415.093120,0.140496
415.435580,0.193277
415.778000,0.204545
416.120380,0.184874
416.462720,0.150794
416.805020,0.210526
417.147280,0.194030
417.489500,0.192857
417.831680,0.130137
418.173820,0.177305
418.515920,0.195804
418.857980,0.177215
419.200000,0.173077
419.541980,0.189349
419.883920,0.179775
420.225820,0.202312
420.567680,0.212291
420.909500,0.180328
421.251280,0.182292
421.593020,0.224490
421.934720,0.166667
422.276380,0.174359
422.618000,0.186275
422.959580,0.166667
423.301120,0.164384
423.642620,0.143478
423.984080,0.162791
424.325500,0.161435
424.666880,0.181034
425.008220,0.142857
425.349520,0.194915
425.690780,0.161538
426.032000,0.156863
426.373180,0.186722
426.714320,0.171875
427.055420,0.158301
427.396480,0.183521
427.737500,0.158103
428.078480,0.166008
428.419420,0.168675
428.760320,0.168582
429.101180,0.181102
429.442000,0.160920
429.782780,0.188462
430.123520,0.168627
430.464220,0.188192
430.804880,0.199234
431.145500,0.160000
431.486080,0.179775
431.826620,0.174419
432.167120,0.154412
432.507580,0.173913
432.848000,0.169065
433.188380,0.180505
433.528720,0.184906
433.869020,0.175000
434.209280,0.171930
434.549500,0.174216
434.889680,0.198653
435.229820,0.146758
435.569920,0.159170
435.909980,0.174757
436.250000,0.162712
436.589980,0.160991
436.929920,0.187302
437.269820,0.172414
437.609680,0.180473
437.949500,0.162651
438.289280,0.155807
438.629020,0.171512
438.968720,0.180233
439.308380,0.165312
439.648000,0.186301
439.987580,0.171958
440.327120,0.168000
440.666620,0.181818
441.006080,0.184143
441.345500,0.179361
441.684880,0.179426
442.024220,0.173697
442.363520,0.173810
442.702780,0.170455
443.042000,0.154185
443.381180,0.185345
443.720320,0.190065
444.059420,0.172269
444.398480,0.167364
444.737500,0.170082
445.076480,0.178571
445.415420,0.183633
445.754320,0.174636
446.093180,0.181651
446.432000,0.174812
446.770780,0.182163
447.109520,0.170956
447.448220,0.175313
447.786880,0.184258
448.125500,0.163793
448.464080,0.169643
448.802620,0.177305
449.141120,0.178201
449.479580,0.174825
449.818000,0.179002
450.156380,0.172241
450.494720,0.173554
450.833020,0.180070
451.171280,0.169521
451.509500,0.177700
451.847680,0.182125
452.185820,0.177281
452.523920,0.183849
452.861980,0.175379
453.200000,0.177741
453.537980,0.176471
453.875920,0.176471
454.213820,0.178082
454.551680,0.180464
454.889500,0.180438
455.227280,0.170819
455.565020,0.185930
455.902720,0.191348
456.240380,0.181364
456.578000,0.196864
456.915580,0.188256
457.253120,0.175987
457.590620,0.178982
457.928080,0.188552
458.265500,0.194257
458.602880,0.170455
458.940220,0.174281
459.277520,0.172800
459.614780,0.180033
459.952000,0.183230
460.289180,0.199367
460.626320,0.190551
460.963420,0.189015
461.300480,0.177370
461.637500,0.178737
461.974480,0.188073
462.311420,0.184799
462.648320,0.184480
462.985180,0.175036
463.322000,0.191964
463.658780,0.189227
463.995520,0.181568
464.332220,0.191136
464.668880,0.188172
465.005500,0.198391
465.342080,0.198464
465.678620,0.185732
466.015120,0.184994
466.351580,0.193426
466.688000,0.203410
467.024380,0.190765
467.360720,0.185227
467.697020,0.190205
468.033280,0.188889
468.369500,0.192053
468.705680,0.188275
469.041820,0.195833
469.377920,0.189805
469.713980,0.194645
470.050000,0.194203
470.385980,0.196673
470.721920,0.192948
471.057820,0.196881
471.393680,0.192703
471.729500,0.195551
472.065280,0.201252
472.401020,0.199468
472.736720,0.192845
473.072380,0.202873
473.408000,0.193211
473.743580,0.198962
474.079120,0.198966
474.414620,0.191688
474.750080,0.194467
475.085500,0.195724
475.420880,0.201499
475.756220,0.195421
476.091520,0.199488
476.426780,0.199029
476.762000,0.197104
477.097180,0.196800
477.432320,0.199515
477.767420,0.203431
478.102480,0.200787
478.437500,0.203612
478.772480,0.204886
479.107420,0.199349
479.442320,0.194245
479.777180,0.211615
480.112000,0.199538
480.446780,0.203429
480.781520,0.206924
481.116220,0.206144
481.450880,0.202966
481.785500,0.207278
482.120080,0.209248
482.454620,0.213675
482.789120,0.206210
483.123580,0.211059
483.458000,0.209652
483.792380,0.210863
484.126720,0.216216
484.461020,0.209992
484.795280,0.209715
485.129500,0.219018
485.463680,0.206202
485.797820,0.221617
486.131920,0.207345
486.465980,0.216216
486.800000,0.215267
487.133980,0.217523
487.467920,0.211171
487.801820,0.222731
488.135680,0.219864
488.469500,0.211800
488.803280,0.209510
489.137020,0.213187
489.470720,0.221068
489.804380,0.221975
490.138000,0.226261
490.471580,0.228445
490.805120,0.220872
491.138620,0.218905
491.472080,0.229682
491.805500,0.228731
492.138880,0.220292
492.472220,0.220761
492.805520,0.238128
493.138780,0.232254
493.472000,0.231438
493.805180,0.238745
494.138320,0.230153
494.471420,0.229818
494.804480,0.221863
495.137500,0.222080
495.470480,0.235182
495.803420,0.232368
496.136320,0.234962
496.469180,0.232658
496.802000,0.225550
497.134780,0.234081
497.467520,0.236697
497.800220,0.231722
498.132880,0.240447
498.465500,0.246234
498.798080,0.237443
499.130620,0.232454
499.463120,0.237507
499.795580,0.239274
500.128000,0.242507
500.460380,0.234123
500.792720,0.233298
501.125020,0.239622
501.457280,0.242820
501.789500,0.243285
502.121680,0.242613
502.453820,0.239164
502.785920,0.244622
503.117980,0.241413
503.450000,0.245605
503.781980,0.251121
504.113920,0.244666
504.445820,0.248906
504.777680,0.242353
505.109500,0.253846
505.441280,0.244742
505.773020,0.244716
506.104720,0.246350
506.436380,0.247515
506.768000,0.248363
507.099580,0.248970
507.431120,0.247307
507.762620,0.253289
508.094080,0.246582
508.425500,0.256769
508.756880,0.253315
509.088220,0.251150
509.419520,0.254655
509.750780,0.255858
510.082000,0.257929
510.413180,0.254261
510.744320,0.262770
511.075420,0.258937
511.406480,0.259520
511.737500,0.257870
512.068480,0.270207
512.399420,0.255869
512.730320,0.260046
513.061180,0.266889
513.392000,0.261240
513.722780,0.261768
514.053520,0.263057
514.384220,0.258801
514.714880,0.265199
515.045500,0.263889
515.376080,0.263438
515.706620,0.266439
516.037120,0.271078
516.367580,0.267620
516.698000,0.271078
517.028380,0.277061
517.358720,0.271111
517.689020,0.267062
518.019280,0.275464
518.349500,0.279270
518.679680,0.279152
519.009820,0.279858
519.339920,0.272044
519.669980,0.274736
520.000000,0.273561
520.329980,0.274235
520.659920,0.275051
520.989820,0.280186
521.319680,0.286523
521.649500,0.280720
521.979280,0.279228
522.309020,0.274378
522.638720,0.273425
522.968380,0.286970
523.298000,0.287056
523.627580,0.281428
523.957120,0.280000
524.286620,0.289213
524.616080,0.284902
524.945500,0.284755
525.274880,0.282709
525.604220,0.288302
525.933520,0.291405
526.262780,0.282818
526.592000,0.292237
526.921180,0.292026
527.250320,0.296296
527.579420,0.296614
527.908480,0.292959
528.237500,0.299901
528.566480,0.296906
528.895420,0.298176
529.224320,0.298663
529.553180,0.293976
529.882000,0.301217
530.210780,0.298745
530.539520,0.300096
530.868220,0.299665
531.196880,0.292403
531.525500,0.310412
531.854080,0.303002
532.182620,0.301728
532.511120,0.302552
532.839580,0.309437
533.168000,0.303099
533.496380,0.312329
533.824720,0.315388
534.153020,0.304503
534.481280,0.308370
534.809500,0.317942
535.137680,0.316840
535.465820,0.308419
535.793920,0.307953
536.121980,0.311792
536.450000,0.317970
536.777980,0.315878
537.105920,0.316729
537.433820,0.322831
537.761680,0.328571
538.089500,0.322137
538.417280,0.318345
538.745020,0.319334
539.072720,0.321359
539.400380,0.323621
539.728000,0.326195
540.055580,0.324345
540.383120,0.326136
540.710620,0.314360
541.038080,0.326448
541.365500,0.325000
541.692880,0.332122
542.020220,0.326017
542.347520,0.325197
542.674780,0.329570
543.002000,0.325052
543.329180,0.338127
543.656320,0.336146
543.983420,0.328547
544.310480,0.333333
544.637500,0.336404
544.964480,0.330754
545.291420,0.333666
545.618320,0.336653
545.945180,0.333223
546.272000,0.334862
546.598780,0.333661
546.925520,0.334982
547.252220,0.337405
547.578880,0.338547
547.905500,0.341503
548.232080,0.341455
548.558620,0.344289
548.885120,0.345110
549.211580,0.344262
549.538000,0.344034
549.864380,0.339228
550.190720,0.346787
550.517020,0.352673
550.843280,0.357329
551.169500,0.335242
551.495680,0.351183
551.821820,0.356956
552.147920,0.350358
552.473980,0.351334
552.800000,0.348921
553.125980,0.351670
553.451920,0.355674
553.777820,0.355430
554.103680,0.353556
554.429500,0.350854
554.755280,0.355474
555.081020,0.352941
555.406720,0.357602
555.732380,0.352423
556.058000,0.356415
556.383580,0.355015
556.709120,0.360096
557.034620,0.356528
557.360080,0.356131
557.685500,0.362379
558.010880,0.361525
558.336220,0.355360
558.661520,0.360510
558.986780,0.362863
559.312000,0.370370
559.637180,0.369838
559.962320,0.363475
560.287420,0.374824
560.612480,0.371008
560.937500,0.370778
561.262480,0.370968
561.587420,0.373957
561.912320,0.371776
562.237180,0.375648
562.562000,0.377104
562.886780,0.374210
563.211520,0.371088
563.536220,0.374768
563.860880,0.371181
564.185500,0.378987
564.510080,0.384500
564.834620,0.376256
565.159120,0.372556
565.483580,0.379704
565.808000,0.373061
566.132380,0.375233
566.456720,0.384732
566.781020,0.387097
567.105280,0.376560
567.429500,0.387709
567.753680,0.387802
568.077820,0.381136
568.401920,0.385027
568.725980,0.387856
569.050000,0.384411
569.373980,0.385611
569.697920,0.379977
570.021820,0.386517
570.345680,0.392269
570.669500,0.391072
570.993280,0.385382
571.317020,0.393497
571.640720,0.396443
571.964380,0.391240
572.288000,0.391691
572.611580,0.398727
572.935120,0.400299
573.258620,0.390426
573.582080,0.391952
573.905500,0.400968
574.228880,0.398293
574.552220,0.407109
574.875520,0.399479
575.198780,0.395013
575.522000,0.404692
575.845180,0.398281
576.168320,0.408193
576.491420,0.411701
576.814480,0.412658
577.137500,0.410173
577.460480,0.407394
577.783420,0.403716
578.106320,0.412749
578.429180,0.412160
578.752000,0.412296
579.074780,0.416049
579.397520,0.419626
579.720220,0.410232
580.042880,0.409977
580.365500,0.413964
580.688080,0.411465
581.010620,0.424570
581.333120,0.414496
581.655580,0.420579
581.978000,0.425341
582.300380,0.418046
582.622720,0.424522
582.945020,0.428153
583.267280,0.422989
583.589500,0.420225
583.911680,0.428390
584.233820,0.420523
584.555920,0.428616
584.877980,0.423681
585.200000,0.427256
585.521980,0.432808
585.843920,0.429225
586.165820,0.425655
586.487680,0.428528
586.809500,0.435644
587.131280,0.431233
587.453020,0.436905
587.774720,0.434654
588.096380,0.436406
588.418000,0.437518
588.739580,0.441794
589.061120,0.438470
589.382620,0.434097
589.704080,0.438149
590.025500,0.442637
590.346880,0.437886
590.668220,0.439373
590.989520,0.442596
591.310780,0.447114
591.632000,0.446175
591.953180,0.444783
592.274320,0.443079
592.595420,0.447468
592.916480,0.443901
593.237500,0.451091
593.558480,0.448211
593.879420,0.452387
594.200320,0.450844
594.521180,0.450730
594.842000,0.453788
595.162780,0.450053
595.483520,0.451210
595.804220,0.453276
596.124880,0.452172
596.445500,0.451926
596.766080,0.460608
597.086620,0.453556
597.407120,0.451553
597.727580,0.458499
598.048000,0.455964
598.368380,0.454235
598.688720,0.454784
599.009020,0.451699
599.329280,0.463012
599.649500,0.458531
599.969680,0.454327
600.289820,0.465812
600.609920,0.461662
600.929980,0.458846
601.250000,0.465135
601.569980,0.460708
601.889920,0.456830
602.209820,0.461039
602.529680,0.466081
602.849500,0.465630
603.169280,0.469000
603.489020,0.473568
603.808720,0.465716
604.128380,0.472958
604.448000,0.469337
604.767580,0.473184
605.087120,0.461773
605.406620,0.468514
605.726080,0.475050
606.045500,0.464475
606.364880,0.473207
606.684220,0.477727
607.003520,0.466456
607.322780,0.471859
607.642000,0.480471
607.961180,0.470945
608.280320,0.476508
608.599420,0.463789
608.918480,0.479179
609.237500,0.483862
609.556480,0.483279
609.875420,0.483166
610.194320,0.478299
610.513180,0.480320
610.832000,0.482430
611.150780,0.488435
611.469520,0.477526
611.788220,0.480653
612.106880,0.473160
612.425500,0.483557
612.744080,0.482610
613.062620,0.488379
613.381120,0.484156
613.699580,0.487431
614.018000,0.489865
614.336380,0.484269
614.654720,0.481860
614.973020,0.484727
615.291280,0.489619
615.609500,0.491918
615.927680,0.490729
616.245820,0.493197
616.563920,0.492073
616.881980,0.490490
617.200000,0.494557
617.517980,0.491910
617.835920,0.499223
618.153820,0.490208
618.471680,0.495814
618.789500,0.494651
619.107280,0.495775
619.425020,0.500159
619.742720,0.495606
620.060380,0.497023
620.378000,0.501888
620.695580,0.495211
621.013120,0.491654
621.330620,0.503922
621.648080,0.494953
621.965500,0.498745
622.282880,0.505990
622.600220,0.498421
622.917520,0.503781
623.234780,0.512375
623.552000,0.505411
623.869180,0.508982
624.186320,0.510347
624.503420,0.511912
624.820480,0.510210
625.137500,0.510894
625.454480,0.507971
625.771420,0.511980
626.088320,0.506305
626.405180,0.509645
626.722000,0.512547
627.038780,0.510652
627.355520,0.512500
627.672220,0.509487
627.988880,0.512286
628.305500,0.517607
628.622080,0.518278
628.938620,0.512844
629.255120,0.522402
629.571580,0.511186
629.888000,0.511813
630.204380,0.509972
630.520720,0.515844
630.837020,0.518964
631.153280,0.519185
631.469500,0.518799
631.785680,0.515371
632.101820,0.519602
632.417920,0.520119
632.733980,0.518007
633.050000,0.530625
633.365980,0.528156
633.681920,0.519391
633.997820,0.526300
634.313680,0.525214
634.629500,0.531112
634.945280,0.531378
635.261020,0.530085
635.576720,0.524075
635.892380,0.530061
636.208000,0.531087
636.523580,0.527039
636.839120,0.530979
637.154620,0.531304
637.470080,0.530560
637.785500,0.541032
638.100880,0.535766
638.416220,0.534081
638.731520,0.530946
639.046780,0.531314
639.362000,0.533257
639.677180,0.535408
639.992320,0.530307
640.307420,0.537230
640.622480,0.538225
640.937500,0.532871
641.252480,0.540352
641.567420,0.543905
641.882320,0.533408
642.197180,0.540427
642.512000,0.544920
642.826780,0.538974
643.141520,0.542095
643.456220,0.539568
643.770880,0.542012
644.085500,0.538010
644.400080,0.544663
644.714620,0.550446
645.029120,0.543454
645.343580,0.546901
645.658000,0.545101
645.972380,0.548095
646.286720,0.549741
646.601020,0.554110
646.915280,0.553880
647.229500,0.546429
647.543680,0.549848
647.857820,0.548858
648.171920,0.539609
648.485980,0.545355
648.800000,0.552218
649.113980,0.553215
649.427920,0.553398
649.741820,0.550426
650.055680,0.556775
650.369500,0.555493
650.683280,0.543840
650.997020,0.552530
651.310720,0.548707
651.624380,0.548901
651.938000,0.555125
652.251580,0.548288
652.565120,0.552823
652.878620,0.555743
653.192080,0.557303
653.505500,0.551753
653.818880,0.567529
654.132220,0.558530
654.445520,0.566364
654.758780,0.550708
655.072000,0.552149
655.385180,0.553780
655.698320,0.563018
656.011420,0.563485
656.324480,0.559312
656.637500,0.553592
656.950480,0.560482
657.263420,0.558085
657.576320,0.555588
657.889180,0.557063
658.202000,0.567935
658.514780,0.567133
658.827520,0.568127
659.140220,0.561582
659.452880,0.563576
659.765500,0.566225
660.078080,0.556124
660.390620,0.564314
660.703120,0.565842
661.015580,0.560429
661.328000,0.568640
661.640380,0.568500
661.952720,0.564310
662.265020,0.573094
662.577280,0.570929
662.889500,0.559760
663.201680,0.568922
663.513820,0.569315
663.825920,0.564841
664.137980,0.572721
664.450000,0.562020
664.761980,0.569885
665.073920,0.567997
665.385820,0.570353
665.697680,0.568264
666.009500,0.581975
666.321280,0.578529
666.633020,0.579787
666.944720,0.574992
667.256380,0.573688
667.568000,0.574389
667.879580,0.582313
668.191120,0.582761
668.502620,0.572407
668.814080,0.582807
669.125500,0.568936
669.436880,0.572960
669.748220,0.571132
670.059520,0.576681
670.370780,0.581072
670.682000,0.581593
670.993180,0.583157
671.304320,0.580169
671.615420,0.572798
671.926480,0.578779
672.237500,0.576635
672.548480,0.576295
672.859420,0.582559
673.170320,0.584694
673.481180,0.586169
673.792000,0.582402
674.102780,0.573429
674.413520,0.583303
674.724220,0.588748
675.034880,0.592593
675.345500,0.582786
675.656080,0.585481
675.966620,0.591852
676.277120,0.589161
676.587580,0.586892
676.898000,0.596865
677.208380,0.587800
677.518720,0.576222
677.829020,0.581301
678.139280,0.590808
678.449500,0.586706
678.759680,0.587111
679.069820,0.582528
679.379920,0.584308
679.689980,0.580022
680.000000,0.591028
680.309980,0.587231
680.619920,0.594850
680.929820,0.591265
681.239680,0.579764
681.549500,0.586296
681.859280,0.597461
682.169020,0.592689
682.478720,0.597233
682.788380,0.590255
683.098000,0.593867
683.407580,0.590994
683.717120,0.591592
684.026620,0.593373
684.336080,0.597954
684.645500,0.585859
684.954880,0.596902
685.264220,0.590789
685.573520,0.599543
685.882780,0.599540
686.192000,0.597818
686.501180,0.595157
686.810320,0.597233
687.119420,0.603953
687.428480,0.595139
687.737500,0.599770
688.046480,0.594325
688.355420,0.600905
688.664320,0.603290
688.973180,0.600306
689.282000,0.607253
689.590780,0.603911
689.899520,0.598937
690.208220,0.605887
690.516880,0.603666
690.825500,0.595849
691.134080,0.589598
691.442620,0.600610
691.751120,0.605612
692.059580,0.611005
692.368000,0.597501
692.676380,0.608015
692.984720,0.598092
693.293020,0.604483
693.601280,0.605876
693.909500,0.608021
694.217680,0.603960
694.525820,0.613481
694.833920,0.606257
695.141980,0.610490
695.450000,0.600382
695.757980,0.605042
696.065920,0.602330
696.373820,0.610085
696.681680,0.601074
696.989500,0.615206
697.297280,0.605212
697.605020,0.622619
697.912720,0.606841
698.220380,0.606454
698.528000,0.617484
698.835580,0.606875
699.143120,0.609509
699.450620,0.615354
699.758080,0.605098
700.065500,0.606943
700.372880,0.615600
700.680220,0.618668
700.987520,0.617063
701.294780,0.621655
701.602000,0.613312
701.909180,0.615262
702.216320,0.609699
702.523420,0.616417
702.830480,0.613465
703.137500,0.606391
703.444480,0.615385
703.751420,0.617357
704.058320,0.627226
704.365180,0.610804
704.672000,0.621386
704.978780,0.621927
705.285520,0.615023
705.592220,0.615686
705.898880,0.621355
706.205500,0.622066
706.512080,0.620458
706.818620,0.621904
707.125120,0.615385
707.431580,0.615475
707.738000,0.615234
708.044380,0.622926
708.350720,0.620940
708.657020,0.623290
708.963280,0.610248
709.269500,0.613307
709.575680,0.623576
709.881820,0.628145
710.187920,0.624903
710.493980,0.628782
710.800000,0.615179
711.105980,0.613328
711.411920,0.620024
711.717820,0.621053
712.023680,0.615624
712.329500,0.632886
712.635280,0.628295
712.941020,0.628141
713.246720,0.629249
713.552380,0.632261
713.858000,0.625936
714.163580,0.617206
714.469120,0.621336
714.774620,0.626135
715.080080,0.628975
715.385500,0.633493
715.690880,0.624063
715.996220,0.621236
716.301520,0.629644
716.606780,0.626179
716.912000,0.634087
717.217180,0.640064
717.522320,0.621074
717.827420,0.627746
718.132480,0.625853
718.437500,0.626987
718.742480,0.620968
719.047420,0.623382
719.352320,0.638854
719.657180,0.632461
719.962000,0.631927
720.266780,0.624844
720.571520,0.634217
720.876220,0.635025
721.180880,0.630853
721.485500,0.629753
721.790080,0.619108
722.094620,0.640652
722.399120,0.639810
722.703580,0.622803
723.008000,0.634756
723.312380,0.625915
723.616720,0.624309
723.921020,0.636639
724.225280,0.629581
724.529500,0.626095
724.833680,0.637900
725.137820,0.637004
725.441920,0.629514
725.745980,0.632662
726.050000,0.633288
726.353980,0.626859
726.657920,0.625281
726.961820,0.637900
727.265680,0.639390
727.569500,0.627971
727.873280,0.639261
728.177020,0.627821
728.480720,0.633796
728.784380,0.638328
729.088000,0.646255
729.391580,0.633823
729.695120,0.646353
729.998620,0.635277
730.302080,0.647765
730.605500,0.645803
730.908880,0.637923
731.212220,0.632713
731.515520,0.629449
731.818780,0.629612
732.122000,0.632874
732.425180,0.634303
732.728320,0.640555
733.031420,0.627569
733.334480,0.638776
733.637500,0.628528
733.940480,0.645855
734.243420,0.638634
734.546320,0.644710
734.849180,0.639463
735.152000,0.644191
735.454780,0.634298
735.757520,0.632771
736.060220,0.632965
736.362880,0.634454
736.665500,0.629243
736.968080,0.649651
737.270620,0.641263
737.573120,0.631004
737.875580,0.651457
738.178000,0.641263
738.480380,0.635135
738.782720,0.647764
739.085020,0.638767
739.387280,0.636364
739.689500,0.642695
739.991680,0.637844
740.293820,0.635710
740.595920,0.643294
740.897980,0.647092
741.200000,0.633763
741.501980,0.651003
741.803920,0.630631
742.105820,0.643542
742.407680,0.643564
742.709500,0.635795
743.011280,0.642438
743.313020,0.643478
743.614720,0.637841
743.916380,0.635465
744.218000,0.637828
744.519580,0.646739
744.821120,0.639521
745.122620,0.645297
745.424080,0.632812
745.725500,0.643331
746.026880,0.655172
746.328220,0.646116
746.629520,0.628537
746.930780,0.647672
747.232000,0.642551
747.533180,0.642465
747.834320,0.639684
748.135420,0.650715
748.436480,0.638802
748.737500,0.635578
749.038480,0.631032
749.339420,0.647169
749.640320,0.660591
749.941180,0.657089
750.242000,0.653266
750.542780,0.650124
750.843520,0.645740
751.144220,0.637821
751.444880,0.652505
751.745500,0.644805
752.046080,0.651700
752.346620,0.657216
752.647120,0.637492
752.947580,0.633894
753.248000,0.640877
753.548380,0.642811
753.848720,0.650998
754.149020,0.640877
754.449280,0.657255
754.749500,0.642999
755.049680,0.640667
755.349820,0.651768
755.649920,0.658295
755.949980,0.647644
756.250000,0.647600
756.549980,0.642244
756.849920,0.654657
757.149820,0.642715
757.449680,0.648845
757.749500,0.658487
758.049280,0.657338
758.349020,0.645341
758.648720,0.645273
758.948380,0.646735
759.248000,0.642183
759.547580,0.655010
759.847120,0.655410
760.146620,0.654939
760.446080,0.655914
760.745500,0.665035
761.044880,0.664062
761.344220,0.648610
761.643520,0.661017
761.942780,0.659902
762.242000,0.652758
762.541180,0.650704
762.840320,0.652388
763.139420,0.654712
763.438480,0.650034
763.737500,0.656099
764.036480,0.649895
764.335420,0.633028
764.634320,0.658351
764.933180,0.652740
765.232000,0.654407
765.530780,0.647018
765.829520,0.657343
766.128220,0.636743
766.426880,0.659559
766.725500,0.660727
767.024080,0.654321
767.322620,0.656985
767.621120,0.648374
767.919580,0.656655
768.218000,0.652531
768.516380,0.665991
768.814720,0.662551
769.113020,0.650586
769.411280,0.656077
769.709500,0.652233
770.007680,0.658487
770.305820,0.656525
770.603920,0.653639
770.901980,0.649590
771.200000,0.653533
771.497980,0.644772
771.795920,0.650836
772.093820,0.646390
772.391680,0.652604
772.689500,0.652703
772.987280,0.659259
773.285020,0.668489
773.582720,0.654054
773.880380,0.665752
774.178000,0.663940
774.475580,0.650368
774.773120,0.652610
775.070620,0.670723
775.368080,0.660655
775.665500,0.650101
775.962880,0.646431
776.260220,0.672275
776.557520,0.664443
776.854780,0.654496
777.152000,0.643899
777.449180,0.658800
777.746320,0.653898
778.043420,0.665757
778.340480,0.662382
778.637500,0.657877
778.934480,0.648285
779.231420,0.656716
779.528320,0.650635
779.825180,0.656785
780.122000,0.646082
780.418780,0.667579
780.715520,0.658618
781.012220,0.673288
781.308880,0.665991
781.605500,0.658219
781.902080,0.652977
782.198620,0.656869
782.495120,0.673525
782.791580,0.672627
783.088000,0.658385
783.384380,0.665750
783.680720,0.662791
783.977020,0.660702
784.273280,0.669231
784.569500,0.669462
784.865680,0.672462
785.161820,0.663889
785.457920,0.663202
785.753980,0.657362
786.050000,0.654696
786.345980,0.655556
786.641920,0.664816
786.937820,0.683048
787.233680,0.654836
787.529500,0.653953
787.825280,0.669972
788.121020,0.666431
788.416720,0.664079
788.712380,0.671368
789.008000,0.664306
789.303580,0.662191
789.599120,0.662545
789.894620,0.662094
790.190080,0.659173
790.485500,0.666667
790.780880,0.654480
791.076220,0.658730
791.371520,0.659405
791.666780,0.678545
791.962000,0.667157
792.257180,0.658126
792.552320,0.664249
792.847420,0.653566
793.142480,0.665934
793.437500,0.651230
793.732480,0.660571
794.027420,0.658012
794.322320,0.668904
794.617180,0.664933
794.912000,0.667905
795.206780,0.659210
795.501520,0.666920
795.796220,0.665926
796.090880,0.685757
796.385500,0.652174
796.680080,0.661182
796.974620,0.639970
797.269120,0.651022
797.563580,0.649618
797.858000,0.656796
798.152380,0.669760
798.446720,0.666923
798.741020,0.666410
799.035280,0.669255
799.329500,0.666667
799.623680,0.676744
