399.985280,0.243243
400.329500,0.202703
400.673680,0.164557
401.017820,0.176471
401.361920,0.136364
401.705980,0.170732
402.050000,0.155844
402.393980,0.247059
402.737920,0.224719
403.081820,0.206186
403.425680,0.186047
403.769500,0.156250
404.113280,0.080460
404.457020,0.213483
404.800720,0.228261
405.144380,0.202020
405.488000,0.193548
405.831580,0.206186
406.175120,0.148936
406.518620,0.170000
406.862080,0.144330
407.205500,0.104167
407.548880,0.132653
407.892220,0.186275
408.235520,0.170213
408.578780,0.152381
408.922000,0.144231
409.265180,0.191919
409.608320,0.171717
409.951420,0.226804
410.294480,0.176471
410.637500,0.173913
410.980480,0.215686
411.323420,0.204082
411.666320,0.201835
412.009180,0.190909
412.352000,0.128713
412.694780,0.192661
413.037520,0.155963
413.380220,0.198198
413.722880,0.205357
414.065500,0.234234
414.408080,0.194690
414.750620,0.168142
415.093120,0.132231
415.435580,0.184874
415.778000,0.212121
416.120380,0.168067
416.462720,0.174603
416.805020,0.172932
417.147280,0.179104
417.489500,0.185714
417.831680,0.150685
418.173820,0.127660
418.515920,0.174825
418.857980,0.177215
419.200000,0.185897
419.541980,0.195266
419.883920,0.185393
420.225820,0.202312
420.567680,0.195531
420.909500,0.169399
421.251280,0.218750
421.593020,0.173469
421.934720,0.176768
422.276380,0.174359
422.618000,0.186275
422.959580,0.196078
423.301120,0.205479
423.642620,0.160870
423.984080,0.176744
424.325500,0.156951
424.666880,0.176724
425.008220,0.184874
425.349520,0.169492
425.690780,0.150000
426.032000,0.152941
426.373180,0.182573
426.714320,0.167969
427.055420,0.146718
427.396480,0.179775
427.737500,0.162055
428.078480,0.189723
428.419420,0.180723
428.760320,0.168582
429.101180,0.196850
429.442000,0.187739
429.782780,0.169231
430.123520,0.172549
430.464220,0.162362
430.804880,0.195402
431.145500,0.170909
431.486080,0.179775
431.826620,0.186047
432.167120,0.158088
432.507580,0.202899
432.848000,0.165468
433.188380,0.187726
433.528720,0.162264
433.869020,0.178571
434.209280,0.143860
434.549500,0.177700
434.889680,0.171717
435.229820,0.156997
435.569920,0.166090
435.909980,0.168285
436.250000,0.200000
436.589980,0.157895
436.929920,0.200000
437.269820,0.172414
437.609680,0.186391
437.949500,0.171687
438.289280,0.164306
438.629020,0.188953
438.968720,0.174419
439.308380,0.178862
439.648000,0.202740
439.987580,0.179894
440.327120,0.186667
440.666620,0.174026
441.006080,0.191816
441.345500,0.186732
441.684880,0.181818
442.024220,0.183623
442.363520,0.183333
442.702780,0.184091
443.042000,0.162996
443.381180,0.185345
443.720320,0.200864
444.059420,0.172269
444.398480,0.175732
444.737500,0.180328
445.076480,0.190476
445.415420,0.179641
445.754320,0.172557
446.093180,0.170642
446.432000,0.171053
446.770780,0.178368
447.109520,0.194853
447.448220,0.186047
447.786880,0.193202
448.125500,0.179310
448.464080,0.176786
448.802620,0.173759
449.141120,0.190311
449.479580,0.183566
449.818000,0.182444
450.156380,0.192308
450.494720,0.178512
450.833020,0.185315
451.171280,0.179795
451.509500,0.189895
451.847680,0.188870
452.185820,0.196213
452.523920,0.192440
452.861980,0.182125
453.200000,0.179402
453.537980,0.179832
453.875920,0.191597
454.213820,0.184932
454.551680,0.187086
454.889500,0.188870
455.227280,0.170819
455.565020,0.192630
455.902720,0.199667
456.240380,0.173045
456.578000,0.189895
456.915580,0.183074
457.253120,0.184211
457.590620,0.188834
457.928080,0.191919
458.265500,0.185811
458.602880,0.188312
458.940220,0.192893
459.277520,0.187200
459.614780,0.189853
459.952000,0.175466
460.289180,0.200949
460.626320,0.196850
460.963420,0.200323
461.300480,0.191131
461.637500,0.192604
461.974480,0.203364
462.311420,0.192250
462.648320,0.188873
462.985180,0.200861
463.322000,0.196429
463.658780,0.182320
463.995520,0.184319
464.332220,0.193906
464.668880,0.208333
465.005500,0.197051
465.342080,0.180538
465.678620,0.200492
466.015120,0.205692
466.351580,0.211125
466.688000,0.213155
467.024380,0.200486
467.360720,0.194318
467.697020,0.203872
468.033280,0.205556
468.369500,0.203091
468.705680,0.199549
469.041820,0.200000
469.377920,0.208243
469.713980,0.197734
470.050000,0.206763
470.385980,0.198630
470.721920,0.201763
471.057820,0.198830
471.393680,0.199252
471.729500,0.200185
472.065280,0.218247
472.401020,0.201241
472.736720,0.204188
473.072380,0.209156
473.408000,0.202785
473.743580,0.202422
474.079120,0.202412
474.414620,0.198473
474.750080,0.205045
475.085500,0.208882
475.420880,0.208160
475.756220,0.204415
476.091520,0.198636
476.426780,0.211974
476.762000,0.204344
477.097180,0.213600
477.432320,0.206785
477.767420,0.205882
478.102480,0.207087
478.437500,0.211002
478.772480,0.208826
479.107420,0.205858
479.442320,0.206235
479.777180,0.217184
480.112000,0.206471
480.446780,0.204209
480.781520,0.214171
481.116220,0.219887
481.450880,0.217799
481.785500,0.223101
482.120080,0.216301
482.454620,0.221445
482.789120,0.216561
483.123580,0.215732
483.458000,0.219937
483.792380,0.226038
484.126720,0.220077
484.461020,0.220141
484.795280,0.213570
485.129500,0.226812
485.463680,0.221705
485.797820,0.227061
486.131920,0.215761
486.465980,0.217761
486.800000,0.225954
487.133980,0.222810
487.467920,0.227238
487.801820,0.225019
488.135680,0.225171
488.469500,0.217095
488.803280,0.219168
489.137020,0.229304
489.470720,0.228487
489.804380,0.227171
490.138000,0.230712
490.471580,0.243920
490.805120,0.235168
491.138620,0.228856
491.472080,0.233922
491.805500,0.236402
492.138880,0.242530
492.472220,0.240830
492.805520,0.243715
493.138780,0.237078
493.472000,0.241472
493.805180,0.234652
494.138320,0.236157
494.471420,0.233073
494.804480,0.239974
495.137500,0.241977
495.470480,0.244742
495.803420,0.240554
496.136320,0.246241
496.469180,0.241252
496.802000,0.244499
497.134780,0.246816
497.467520,0.253211
497.800220,0.239976
498.132880,0.251029
498.465500,0.246234
498.798080,0.242580
499.130620,0.250421
499.463120,0.247614
499.795580,0.251925
500.128000,0.245777
500.460380,0.243811
500.792720,0.246023
501.125020,0.250131
501.457280,0.251697
501.789500,0.250000
502.121680,0.260238
502.453820,0.248853
502.785920,0.252126
503.117980,0.250245
503.450000,0.259166
503.781980,0.254609
504.113920,0.251778
504.445820,0.255226
504.777680,0.256471
505.109500,0.255769
505.441280,0.261950
505.773020,0.256458
506.104720,0.256241
506.436380,0.267866
506.768000,0.264733
507.099580,0.254462
507.431120,0.259953
507.762620,0.263158
508.094080,0.256153
508.425500,0.264239
508.756880,0.258345
509.088220,0.266789
509.419520,0.259777
509.750780,0.261481
510.082000,0.269123
510.413180,0.266697
510.744320,0.267372
511.075420,0.265811
511.406480,0.267513
511.737500,0.264352
512.068480,0.271147
512.399420,0.268545
512.730320,0.266975
513.061180,0.271170
513.392000,0.268339
513.722780,0.277618
514.053520,0.276473
514.384220,0.274500
514.714880,0.279081
515.045500,0.270115
515.376080,0.280872
515.706620,0.280078
516.037120,0.280392
516.367580,0.276491
516.698000,0.278922
517.028380,0.280040
517.358720,0.280988
517.689020,0.283383
518.019280,0.282990
518.349500,0.281298
518.679680,0.281676
519.009820,0.280870
519.339920,0.287575
519.669980,0.283275
520.000000,0.284259
520.329980,0.291861
520.659920,0.290389
520.989820,0.289474
521.319680,0.290638
521.649500,0.288946
521.979280,0.295929
522.309020,0.287863
522.638720,0.290835
522.968380,0.295243
523.298000,0.294363
523.627580,0.286084
523.957120,0.294545
524.286620,0.297030
524.616080,0.298862
524.945500,0.302842
525.274880,0.299128
525.604220,0.296066
525.933520,0.299790
526.262780,0.297516
526.592000,0.303399
526.921180,0.300660
527.250320,0.301370
527.579420,0.313290
527.908480,0.304284
528.237500,0.307845
528.566480,0.306387
528.895420,0.307048
529.224320,0.316989
529.553180,0.306024
529.882000,0.313869
530.210780,0.305985
530.539520,0.312081
530.868220,0.309239
531.196880,0.312948
531.525500,0.320097
531.854080,0.313790
532.182620,0.304531
532.511120,0.323898
532.839580,0.324410
533.168000,0.315861
533.496380,0.313699
533.824720,0.316285
534.153020,0.320553
534.481280,0.322467
534.809500,0.326737
535.137680,0.315972
535.465820,0.324313
535.793920,0.323181
536.121980,0.324381
536.450000,0.325159
536.777980,0.332216
537.105920,0.332088
537.433820,0.327741
537.761680,0.328163
538.089500,0.335896
538.417280,0.330680
538.745020,0.340333
539.072720,0.331902
539.400380,0.340715
539.728000,0.335373
540.055580,0.337828
540.383120,0.335815
540.710620,0.340402
541.038080,0.336038
541.365500,0.332353
541.692880,0.337936
542.020220,0.342209
542.347520,0.346734
542.674780,0.341920
543.002000,0.339748
543.329180,0.344441
543.656320,0.349859
543.983420,0.339487
544.310480,0.338430
544.637500,0.349710
544.964480,0.345222
545.291420,0.346627
545.618320,0.343958
545.945180,0.345089
546.272000,0.341743
546.598780,0.346116
546.925520,0.345532
547.252220,0.353582
547.578880,0.349951
547.905500,0.354575
548.232080,0.351527
548.558620,0.350146
548.885120,0.347727
549.211580,0.360334
549.538000,0.351816
549.864380,0.350804
550.190720,0.358088
550.517020,0.356910
550.843280,0.360912
551.169500,0.352417
551.495680,0.357753
551.821820,0.365121
552.147920,0.359792
552.473980,0.367468
552.800000,0.365598
553.125980,0.365750
553.451920,0.366954
553.777820,0.364091
554.103680,0.370745
554.429500,0.360897
554.755280,0.367156
555.081020,0.370989
555.406720,0.367084
555.732380,0.363944
556.058000,0.367617
556.383580,0.368367
556.709120,0.365265
557.034620,0.369273
557.360080,0.370639
557.685500,0.379668
558.010880,0.371577
558.336220,0.376801
558.661520,0.376462
558.986780,0.385188
559.312000,0.376781
559.637180,0.376661
559.962320,0.378426
560.287420,0.383286
560.612480,0.378543
560.937500,0.377019
561.262480,0.381598
561.587420,0.381211
561.912320,0.381724
562.237180,0.378979
562.562000,0.387579
562.886780,0.392419
563.211520,0.378167
563.536220,0.381447
563.860880,0.381743
564.185500,0.388743
564.510080,0.392777
564.834620,0.383699
565.159120,0.390977
565.483580,0.390726
565.808000,0.391222
566.132380,0.389780
566.456720,0.389645
566.781020,0.389722
567.105280,0.390170
567.429500,0.393399
567.753680,0.398926
568.077820,0.396212
568.401920,0.398014
568.725980,0.394307
569.050000,0.400760
569.373980,0.395508
569.697920,0.400455
570.021820,0.398876
570.345680,0.398010
570.669500,0.399084
570.993280,0.407900
571.317020,0.398246
571.640720,0.403483
571.964380,0.403860
572.288000,0.396142
572.611580,0.408461
572.935120,0.409652
573.258620,0.406133
573.582080,0.408346
573.905500,0.404691
574.228880,0.411284
574.552220,0.417735
574.875520,0.412137
575.198780,0.417781
575.522000,0.408358
575.845180,0.407951
576.168320,0.411786
576.491420,0.422965
576.814480,0.418445
577.137500,0.420274
577.460480,0.417180
577.783420,0.425509
578.106320,0.425214
578.429180,0.427006
578.752000,0.418201
579.074780,0.425826
579.397520,0.421240
579.720220,0.422136
580.042880,0.431450
580.365500,0.430510
580.688080,0.431140
581.010620,0.425920
581.333120,0.432198
581.655580,0.433566
581.978000,0.430994
582.300380,0.423888
582.622720,0.431773
582.945020,0.431730
583.267280,0.434061
583.589500,0.432745
583.911680,0.431883
584.233820,0.432169
584.555920,0.439647
584.877980,0.437814
585.200000,0.426335
585.521980,0.433735
585.843920,0.436547
586.165820,0.438452
586.487680,0.438760
586.809500,0.446445
587.131280,0.438628
587.453020,0.447917
587.774720,0.449438
588.096380,0.443991
588.418000,0.452444
588.739580,0.448980
589.061120,0.447671
589.382620,0.448711
589.704080,0.447966
590.025500,0.452055
590.346880,0.449972
590.668220,0.452534
590.989520,0.452579
591.310780,0.449047
591.632000,0.455738
591.953180,0.454747
592.274320,0.450450
592.595420,0.447468
592.916480,0.452866
593.237500,0.457828
593.558480,0.457627
593.879420,0.452657
594.200320,0.458880
594.521180,0.463745
594.842000,0.459430
595.162780,0.458600
595.483520,0.462643
595.804220,0.464823
596.124880,0.465494
596.445500,0.455593
596.766080,0.461683
597.086620,0.463641
597.407120,0.463138
597.727580,0.467780
598.048000,0.462047
598.368380,0.467386
598.688720,0.465007
599.009020,0.467887
599.329280,0.469931
599.649500,0.472530
599.969680,0.466880
600.289820,0.466346
600.609920,0.474753
600.929980,0.470337
601.250000,0.473514
601.569980,0.469079
601.889920,0.469928
602.209820,0.469156
602.529680,0.477891
602.849500,0.472722
603.169280,0.476991
603.489020,0.485469
603.808720,0.472024
604.128380,0.480960
604.448000,0.475138
604.767580,0.475140
605.087120,0.475069
605.406620,0.483907
605.726080,0.483319
606.045500,0.473948
606.364880,0.482280
606.684220,0.488292
607.003520,0.480218
607.322780,0.475270
607.642000,0.479035
607.961180,0.483955
608.280320,0.484919
608.599420,0.482619
608.918480,0.482111
609.237500,0.488556
609.556480,0.489198
609.875420,0.487596
610.194320,0.484500
610.513180,0.486830
610.832000,0.482132
611.150780,0.489937
611.469520,0.492308
611.788220,0.494559
612.106880,0.486731
612.425500,0.495737
612.744080,0.496768
613.062620,0.491743
613.381120,0.486898
613.699580,0.495095
614.018000,0.495086
614.336380,0.485503
614.654720,0.498605
614.973020,0.494600
615.291280,0.507592
615.609500,0.505230
615.927680,0.498146
616.245820,0.501855
616.563920,0.502331
616.881980,0.496726
617.200000,0.499533
617.517980,0.495333
617.835920,0.500466
618.153820,0.491141
618.471680,0.504496
618.789500,0.500000
619.107280,0.508920
619.425020,0.501110
619.742720,0.504708
620.060380,0.498590
620.378000,0.512587
620.695580,0.512452
621.013120,0.508031
621.330620,0.512708
621.648080,0.499054
621.965500,0.505019
622.282880,0.510404
622.600220,0.507265
622.917520,0.509452
623.234780,0.522340
623.552000,0.516550
623.869180,0.510243
624.186320,0.514804
624.503420,0.513793
624.820480,0.515237
625.137500,0.516261
625.454480,0.517974
625.771420,0.513871
626.088320,0.527427
626.405180,0.525513
626.722000,0.524467
627.038780,0.510652
627.355520,0.518750
627.672220,0.516019
627.988880,0.516641
628.305500,0.519788
628.622080,0.530979
628.938620,0.523547
629.255120,0.524580
629.571580,0.520686
629.888000,0.517030
630.204380,0.524087
630.520720,0.524985
630.837020,0.521739
631.153280,0.521283
631.469500,0.532444
631.785680,0.524412
632.101820,0.532871
632.417920,0.526080
632.733980,0.527311
633.050000,0.539721
633.365980,0.526971
633.681920,0.532220
633.997820,0.539749
634.313680,0.536715
634.629500,0.532881
634.945280,0.536657
635.261020,0.534781
635.576720,0.538462
635.892380,0.539065
636.208000,0.536026
636.523580,0.540485
636.839120,0.533874
637.154620,0.534783
637.470080,0.537446
637.785500,0.545721
638.100880,0.539820
638.416220,0.543860
638.731520,0.538109
639.046780,0.540052
639.362000,0.538131
639.677180,0.536265
639.992320,0.544968
640.307420,0.545940
640.622480,0.539625
640.937500,0.542025
641.252480,0.551801
641.567420,0.543905
641.882320,0.541759
642.197180,0.551937
642.512000,0.547999
642.826780,0.551734
643.141520,0.550709
643.456220,0.550636
643.770880,0.552239
644.085500,0.551425
644.400080,0.548034
644.714620,0.547938
645.029120,0.550880
645.343580,0.549643
645.658000,0.548709
645.972380,0.551658
646.286720,0.556282
646.601020,0.556048
646.915280,0.558267
647.229500,0.561813
647.543680,0.555924
647.857820,0.554363
648.171920,0.559143
648.485980,0.556317
648.800000,0.554974
649.113980,0.557095
649.427920,0.561720
649.741820,0.554823
650.055680,0.558694
650.369500,0.562780
650.683280,0.557159
650.997020,0.559681
651.310720,0.554210
651.624380,0.556044
651.938000,0.562604
652.251580,0.562483
652.565120,0.562605
652.878620,0.563626
653.192080,0.564607
653.505500,0.561010
653.818880,0.569804
654.132220,0.560239
654.445520,0.569767
654.758780,0.565156
655.072000,0.567049
655.385180,0.562340
655.698320,0.565304
656.011420,0.571510
656.324480,0.566599
656.637500,0.563152
656.950480,0.564885
657.263420,0.574047
657.576320,0.570412
657.889180,0.563845
658.202000,0.570954
658.514780,0.572194
658.827520,0.572029
659.140220,0.566677
659.452880,0.570220
659.765500,0.566225
660.078080,0.566055
660.390620,0.571036
660.703120,0.579896
661.015580,0.575153
661.328000,0.579345
661.640380,0.577509
661.952720,0.576767
662.265020,0.575614
662.577280,0.568384
662.889500,0.577420
663.201680,0.579451
663.513820,0.570280
663.825920,0.570605
664.137980,0.580802
664.450000,0.564258
664.761980,0.571849
665.073920,0.572866
665.385820,0.581479
665.697680,0.580826
666.009500,0.586299
666.321280,0.579192
666.633020,0.581117
666.944720,0.581058
667.256380,0.583109
667.568000,0.577785
667.879580,0.589796
668.191120,0.589629
668.502620,0.580623
668.814080,0.590175
669.125500,0.582963
669.436880,0.584371
669.748220,0.578747
670.059520,0.585084
670.370780,0.581072
670.682000,0.591504
670.993180,0.587385
671.304320,0.581927
671.615420,0.591619
671.926480,0.583038
672.237500,0.588424
672.548480,0.581263
672.859420,0.579700
673.170320,0.593399
673.481180,0.598117
673.792000,0.587811
674.102780,0.585637
674.413520,0.587313
674.724220,0.583666
675.034880,0.593326
675.345500,0.586798
675.656080,0.585481
675.966620,0.584576
676.277120,0.589161
676.587580,0.596834
676.898000,0.596491
677.208380,0.592976
677.518720,0.596645
677.829020,0.592757
678.139280,0.594885
678.449500,0.599703
678.759680,0.597602
679.069820,0.586245
679.379920,0.603169
679.689980,0.590791
680.000000,0.590654
680.309980,0.596140
680.619920,0.593715
680.929820,0.594625
681.239680,0.588626
681.549500,0.597778
681.859280,0.598208
682.169020,0.597538
682.478720,0.605460
682.788380,0.604282
683.098000,0.599102
683.407580,0.592871
683.717120,0.593468
684.026620,0.595633
684.336080,0.596438
684.645500,0.591096
684.954880,0.601813
685.264220,0.598339
685.573520,0.610963
685.882780,0.610664
686.192000,0.598947
686.501180,0.597806
686.810320,0.602998
687.119420,0.603573
687.428480,0.605013
687.737500,0.603607
688.046480,0.606979
688.355420,0.601660
688.664320,0.602142
688.973180,0.602603
689.282000,0.606481
689.590780,0.605828
689.899520,0.600836
690.208220,0.610856
690.516880,0.600611
690.825500,0.601887
691.134080,0.603265
691.442620,0.604421
691.751120,0.608267
692.059580,0.613680
692.368000,0.608482
692.676380,0.618702
692.984720,0.596947
693.293020,0.610182
693.601280,0.609691
693.909500,0.602724
694.217680,0.615004
694.525820,0.610053
694.833920,0.605876
695.141980,0.609333
695.450000,0.609160
695.757980,0.613445
696.065920,0.606602
696.373820,0.615089
696.681680,0.604143
696.989500,0.619452
697.297280,0.604434
697.605020,0.621429
697.912720,0.613374
698.220380,0.610783
698.528000,0.607991
698.835580,0.603714
699.143120,0.611847
699.450620,0.615752
699.758080,0.609412
700.065500,0.613727
700.372880,0.623600
700.680220,0.606701
700.987520,0.617857
701.294780,0.626115
701.602000,0.614501
701.909180,0.624801
702.216320,0.612045
702.523420,0.617995
702.830480,0.624158
703.137500,0.621980
703.444480,0.622485
703.751420,0.621302
704.058320,0.616541
704.365180,0.614353
704.672000,0.620594
704.978780,0.621147
705.285520,0.611502
705.592220,0.614510
705.898880,0.623719
706.205500,0.625587
706.512080,0.621643
706.818620,0.627709
707.125120,0.620769
707.431580,0.628761
707.738000,0.625391
708.044380,0.622540
708.350720,0.619029
708.657020,0.636577
708.963280,0.625000
709.269500,0.626223
709.575680,0.632613
709.881820,0.627358
710.187920,0.626459
710.493980,0.623351
710.800000,0.617468
711.105980,0.614458
711.411920,0.622389
711.717820,0.624951
712.023680,0.616012
712.329500,0.632098
712.635280,0.638372
712.941020,0.629300
713.246720,0.624506
713.552380,0.638540
713.858000,0.623571
714.163580,0.630624
714.469120,0.625635
714.774620,0.625345
715.080080,0.629761
715.385500,0.637490
715.690880,0.632347
715.996220,0.637480
716.301520,0.634783
716.606780,0.626965
716.912000,0.631664
717.217180,0.640862
717.522320,0.633797
717.827420,0.639138
718.132480,0.633079
718.437500,0.635141
718.742480,0.625000
719.047420,0.624595
719.352320,0.641345
719.657180,0.642682
719.962000,0.640199
720.266780,0.634815
720.571520,0.629246
720.876220,0.629296
721.180880,0.629599
721.485500,0.633514
721.790080,0.630573
722.094620,0.638079
722.399120,0.642396
722.703580,0.630090
723.008000,0.643381
723.312380,0.633663
723.616720,0.629409
723.921020,0.631875
724.225280,0.631763
724.529500,0.633975
724.833680,0.641459
725.137820,0.628194
725.441920,0.637539
725.745980,0.641163
726.050000,0.647271
726.353980,0.631365
726.657920,0.634728
726.961820,0.635616
727.265680,0.638465
727.569500,0.627971
727.873280,0.631871
728.177020,0.635652
728.480720,0.642593
728.784380,0.646783
729.088000,0.637306
729.391580,0.630033
729.695120,0.643954
729.998620,0.641969
730.302080,0.632869
730.605500,0.642407
730.908880,0.635473
731.212220,0.639569
731.515520,0.634812
731.818780,0.640291
732.122000,0.637303
732.425180,0.635288
732.728320,0.634606
733.031420,0.638596
733.334480,0.655102
733.637500,0.630544
733.940480,0.643296
734.243420,0.635576
734.546320,0.639523
734.849180,0.639463
735.152000,0.634855
735.454780,0.633781
735.757520,0.643836
736.060220,0.640337
736.362880,0.640231
736.665500,0.630287
736.968080,0.657174
737.270620,0.639085
737.573120,0.644651
737.875580,0.645410
738.178000,0.646162
738.480380,0.635676
738.782720,0.638495
739.085020,0.642070
739.387280,0.638027
739.689500,0.648358
739.991680,0.639528
740.293820,0.640133
740.595920,0.651085
740.897980,0.642575
741.200000,0.637689
741.501980,0.645845
741.803920,0.634572
742.105820,0.642978
742.407680,0.649388
742.709500,0.633523
743.011280,0.643025
743.313020,0.652174
743.614720,0.644225
743.916380,0.639535
744.218000,0.640811
744.519580,0.635266
744.821120,0.647904
745.122620,0.648292
745.424080,0.643630
745.725500,0.644538
746.026880,0.655788
746.328220,0.652898
746.629520,0.636364
746.930780,0.645833
747.232000,0.628449
747.533180,0.649176
747.834320,0.643944
748.135420,0.646986
748.436480,0.638802
748.737500,0.644842
749.038480,0.635308
749.339420,0.663348
749.640320,0.651791
749.941180,0.645222
750.242000,0.648241
750.542780,0.646402
750.843520,0.641896
751.144220,0.660256
751.444880,0.656944
751.745500,0.649351
752.046080,0.660038
752.346620,0.653351
752.647120,0.662312
752.947580,0.642303
753.248000,0.643456
753.548380,0.642811
753.848720,0.650354
754.149020,0.639587
754.449280,0.642154
754.749500,0.649635
755.049680,0.654000
755.349820,0.646431
755.649920,0.650364
755.949980,0.658261
756.250000,0.654832
756.549980,0.642244
756.849920,0.653297
757.149820,0.637392
757.449680,0.640264
757.749500,0.661213
758.049280,0.653925
758.349020,0.643255
758.648720,0.665286
758.948380,0.650172
759.248000,0.651617
759.547580,0.669132
759.847120,0.658167
760.146620,0.648173
760.446080,0.645833
760.745500,0.644755
761.044880,0.651989
761.344220,0.647185
761.643520,0.653955
761.942780,0.662701
762.242000,0.649222
762.541180,0.650704
762.840320,0.662921
763.139420,0.657525
763.438480,0.653452
763.737500,0.662302
764.036480,0.661775
764.335420,0.652788
764.634320,0.639640
764.933180,0.654795
765.232000,0.651631
765.530780,0.649123
765.829520,0.660839
766.128220,0.658316
766.426880,0.657427
766.725500,0.655929
767.024080,0.650892
767.322620,0.658368
767.621120,0.652439
767.919580,0.649147
768.218000,0.659371
768.516380,0.656525
768.814720,0.650206
769.113020,0.654721
769.411280,0.663674
769.709500,0.659675
770.007680,0.647580
770.305820,0.661934
770.603920,0.654313
770.901980,0.658470
771.200000,0.663043
771.497980,0.650804
771.795920,0.659532
772.093820,0.641043
772.391680,0.656559
772.689500,0.650676
772.987280,0.655892
773.285020,0.658237
773.582720,0.665541
773.880380,0.668497
774.178000,0.668030
774.475580,0.653717
774.773120,0.653280
775.070620,0.663962
775.368080,0.661323
775.665500,0.644728
775.962880,0.646431
776.260220,0.661507
776.557520,0.655103
776.854780,0.658553
777.152000,0.641247
777.449180,0.670937
777.746320,0.655242
778.043420,0.657572
778.340480,0.680650
778.637500,0.666667
778.934480,0.659045
779.231420,0.654003
779.528320,0.651303
779.825180,0.653491
780.122000,0.647410
780.418780,0.670315
780.715520,0.668679
781.012220,0.674658
781.308880,0.659905
781.605500,0.654795
781.902080,0.663244
782.198620,0.656869
782.495120,0.664609
782.791580,0.656809
783.088000,0.653554
783.384380,0.672627
783.680720,0.655267
783.977020,0.650379
784.273280,0.664336
784.569500,0.663871
784.865680,0.667594
785.161820,0.659028
785.457920,0.662509
785.753980,0.657362
786.050000,0.659530
786.345980,0.659028
786.641920,0.664122
786.937820,0.678063
787.233680,0.658316
787.529500,0.660194
787.825280,0.678470
788.121020,0.657932
788.416720,0.656316
788.712380,0.674894
789.008000,0.659348
789.303580,0.659364
789.599120,0.666909
789.894620,0.666426
790.190080,0.659898
790.485500,0.663067
790.780880,0.653047
791.076220,0.660895
791.371520,0.655773
791.666780,0.674909
791.962000,0.689934
792.257180,0.666179
792.552320,0.662074
792.847420,0.671033
793.142480,0.672527
793.437500,0.663531
793.732480,0.663497
794.027420,0.662463
794.322320,0.657718
794.617180,0.673105
794.912000,0.670134
795.206780,0.662938
795.501520,0.673764
795.796220,0.665185
796.090880,0.667671
796.385500,0.664918
796.680080,0.652954
796.974620,0.663922
797.269120,0.663134
797.563580,0.667939
797.858000,0.658314
798.152380,0.662800
798.446720,0.672308
798.741020,0.667951
799.035280,0.670031
799.329500,0.658968
799.623680,0.665891
