399.985280,0.202703
400.329500,0.162162
400.673680,0.189873
401.017820,0.250000
401.361920,0.166667
401.705980,0.146341
402.050000,0.207792
402.393980,0.235294
402.737920,0.179775
403.081820,0.185567
403.425680,0.162791
403.769500,0.177083
404.113280,0.126437
404.457020,0.168539
404.800720,0.130435
405.144380,0.191919
405.488000,0.193548
405.831580,0.185567
406.175120,0.170213
406.518620,0.190000
406.862080,0.195876
407.205500,0.145833
407.548880,0.163265
407.892220,0.166667
408.235520,0.191489
408.578780,0.152381
408.922000,0.153846
409.265180,0.212121
409.608320,0.131313
409.951420,0.154639
410.294480,0.274510
410.637500,0.206522
410.980480,0.205882
411.323420,0.163265
411.666320,0.201835
412.009180,0.190909
412.352000,0.158416
412.694780,0.174312
413.037520,0.155963
413.380220,0.180180
413.722880,0.205357
414.065500,0.198198
414.408080,0.194690
414.750620,0.159292
415.093120,0.165289
415.435580,0.168067
415.778000,0.196970
416.120380,0.210084
416.462720,0.174603
416.805020,0.218045
417.147280,0.194030
417.489500,0.192857
417.831680,0.184932
418.173820,0.191489
418.515920,0.167832
418.857980,0.189873
419.200000,0.211538
419.541980,0.183432
419.883920,0.207865
420.225820,0.208092
420.567680,0.184358
420.909500,0.196721
421.251280,0.213542
421.593020,0.188776
421.934720,0.191919
422.276380,0.174359
422.618000,0.176471
422.959580,0.196078
423.301120,0.182648
423.642620,0.182609
423.984080,0.204651
424.325500,0.179372
424.666880,0.206897
425.008220,0.172269
425.349520,0.182203
425.690780,0.176923
426.032000,0.188235
426.373180,0.174274
426.714320,0.167969
427.055420,0.200772
427.396480,0.183521
427.737500,0.185771
428.078480,0.193676
428.419420,0.196787
428.760320,0.176245
429.101180,0.204724
429.442000,0.191571
429.782780,0.180769
430.123520,0.184314
430.464220,0.180812
430.804880,0.187739
431.145500,0.170909
431.486080,0.187266
431.826620,0.186047
432.167120,0.180147
432.507580,0.188406
432.848000,0.197842
433.188380,0.176895
433.528720,0.181132
433.869020,0.189286
434.209280,0.171930
434.549500,0.209059
434.889680,0.208754
435.229820,0.187713
435.569920,0.190311
435.909980,0.158576
436.250000,0.193220
436.589980,0.182663
436.929920,0.206349
437.269820,0.181818
437.609680,0.215976
437.949500,0.198795
438.289280,0.186969
438.629020,0.191860
438.968720,0.194767
439.308380,0.162602
439.648000,0.186301
439.987580,0.203704
440.327120,0.194667
440.666620,0.187013
441.006080,0.212276
441.345500,0.201474
441.684880,0.191388
442.024220,0.186104
442.363520,0.192857
442.702780,0.193182
443.042000,0.198238
443.381180,0.204741
443.720320,0.196544
444.059420,0.193277
444.398480,0.188285
444.737500,0.206967
445.076480,0.192460
445.415420,0.197605
445.754320,0.193347
446.093180,0.200000
446.432000,0.199248
446.770780,0.199241
447.109520,0.200368
447.448220,0.194991
447.786880,0.187835
448.125500,0.203448
448.464080,0.187500
448.802620,0.203901
449.141120,0.192042
449.479580,0.195804
449.818000,0.206540
450.156380,0.204013
450.494720,0.204959
450.833020,0.199301
451.171280,0.207192
451.509500,0.209059
451.847680,0.207420
452.185820,0.218589
452.523920,0.207904
452.861980,0.214165
453.200000,0.204319
453.537980,0.194958
453.875920,0.215126
454.213820,0.207192
454.551680,0.225166
454.889500,0.204047
455.227280,0.192171
455.565020,0.209380
455.902720,0.212978
456.240380,0.202995
456.578000,0.210801
456.915580,0.222798
457.253120,0.202303
457.590620,0.221675
457.928080,0.223906
458.265500,0.221284
458.602880,0.219156
458.940220,0.206430
459.277520,0.216000
459.614780,0.230769
459.952000,0.208075
460.289180,0.216772
460.626320,0.207874
460.963420,0.226171
461.300480,0.220183
461.637500,0.223421
461.974480,0.211009
462.311420,0.216095
462.648320,0.219619
462.985180,0.210904
463.322000,0.212798
463.658780,0.214088
463.995520,0.211829
464.332220,0.222992
464.668880,0.227151
465.005500,0.225201
465.342080,0.221511
465.678620,0.214022
466.015120,0.226391
466.351580,0.233881
466.688000,0.235079
467.024380,0.216282
467.360720,0.215909
467.697020,0.215262
468.033280,0.224444
468.369500,0.236203
468.705680,0.225479
469.041820,0.223958
469.377920,0.212581
469.713980,0.222451
470.050000,0.230918
470.385980,0.231898
470.721920,0.229187
471.057820,0.231969
471.393680,0.226380
471.729500,0.228916
472.065280,0.228980
472.401020,0.237589
472.736720,0.233857
473.072380,0.222621
473.408000,0.236728
473.743580,0.233564
474.079120,0.239449
474.414620,0.219678
474.750080,0.238405
475.085500,0.237664
475.420880,0.235637
475.756220,0.240392
476.091520,0.239557
476.426780,0.231392
476.762000,0.230893
477.097180,0.249600
477.432320,0.235057
477.767420,0.247549
478.102480,0.240157
478.437500,0.239737
478.772480,0.238771
479.107420,0.243287
479.442320,0.240608
479.777180,0.245823
480.112000,0.238829
480.446780,0.240062
480.781520,0.238325
481.116220,0.244947
481.450880,0.245121
481.785500,0.253956
482.120080,0.248433
482.454620,0.252525
482.789120,0.246815
483.123580,0.250000
483.458000,0.238924
483.792380,0.253195
484.126720,0.251737
484.461020,0.247463
484.795280,0.255204
485.129500,0.254871
485.463680,0.253488
485.797820,0.255054
486.131920,0.254782
486.465980,0.250193
486.800000,0.254962
487.133980,0.253776
487.467920,0.260138
487.801820,0.260107
488.135680,0.264594
488.469500,0.265507
488.803280,0.257058
489.137020,0.259341
489.470720,0.267062
489.804380,0.264291
490.138000,0.267804
490.471580,0.268976
490.805120,0.263760
491.138620,0.262260
491.472080,0.267845
491.805500,0.274059
492.138880,0.264072
492.472220,0.276817
492.805520,0.278631
493.138780,0.279807
493.472000,0.268227
493.805180,0.268076
494.138320,0.274183
494.471420,0.273437
494.804480,0.271022
495.137500,0.273427
495.470480,0.288082
495.803420,0.276448
496.136320,0.284461
496.469180,0.278085
496.802000,0.276284
497.134780,0.284415
497.467520,0.287462
497.800220,0.291274
498.132880,0.276308
498.465500,0.288528
498.798080,0.281393
499.130620,0.289725
499.463120,0.284672
499.795580,0.285479
500.128000,0.285014
500.460380,0.289559
500.792720,0.292153
501.125020,0.285339
501.457280,0.286684
501.789500,0.287707
502.121680,0.288751
502.453820,0.285059
502.785920,0.287644
503.117980,0.290972
503.450000,0.297840
503.781980,0.295466
504.113920,0.284969
504.445820,0.288770
504.777680,0.291765
505.109500,0.300962
505.441280,0.297323
505.773020,0.298262
506.104720,0.298163
506.436380,0.299574
506.768000,0.297942
507.099580,0.288330
507.431120,0.296487
507.762620,0.305451
508.094080,0.300365
508.425500,0.301587
508.756880,0.299497
509.088220,0.306808
509.419520,0.306331
509.750780,0.301312
510.082000,0.298041
510.413180,0.310917
510.744320,0.301427
511.075420,0.306599
511.406480,0.310766
511.737500,0.310185
512.068480,0.306861
512.399420,0.301878
512.730320,0.301617
513.061180,0.305423
513.392000,0.313772
513.722780,0.319885
514.053520,0.315285
514.384220,0.313987
514.714880,0.310675
515.045500,0.312261
515.376080,0.313317
515.706620,0.312226
516.037120,0.308824
516.367580,0.313948
516.698000,0.312255
517.028380,0.316286
517.358720,0.318025
517.689020,0.315529
518.019280,0.322629
518.349500,0.324886
518.679680,0.328117
519.009820,0.321862
519.339920,0.330160
519.669980,0.319940
520.000000,0.325522
520.329980,0.324520
520.659920,0.329243
520.989820,0.330753
521.319680,0.332819
521.649500,0.327506
521.979280,0.330376
522.309020,0.335062
522.638720,0.327189
522.968380,0.338159
523.298000,0.327766
523.627580,0.329540
523.957120,0.330909
524.286620,0.347577
524.616080,0.340228
524.945500,0.331266
525.274880,0.341714
525.604220,0.332298
525.933520,0.336478
526.262780,0.339584
526.592000,0.339929
526.921180,0.342306
527.250320,0.341958
527.579420,0.345124
527.908480,0.339242
528.237500,0.347071
528.566480,0.350299
528.895420,0.349926
529.224320,0.347202
529.553180,0.348916
529.882000,0.351825
530.210780,0.345077
530.539520,0.343720
530.868220,0.351843
531.196880,0.346871
531.525500,0.363680
531.854080,0.349437
532.182620,0.354507
532.511120,0.355916
532.839580,0.363884
533.168000,0.356882
533.496380,0.363014
533.824720,0.362943
534.153020,0.358003
534.481280,0.358590
534.809500,0.364116
535.137680,0.357639
535.465820,0.365979
535.793920,0.370135
536.121980,0.374318
536.450000,0.364905
536.777980,0.371596
537.105920,0.368618
537.433820,0.369067
537.761680,0.375102
538.089500,0.376771
538.417280,0.377636
538.745020,0.370840
539.072720,0.364311
539.400380,0.366744
539.728000,0.376673
540.055580,0.376404
540.383120,0.373418
540.710620,0.376116
541.038080,0.374769
541.365500,0.376838
541.692880,0.370276
542.020220,0.378553
542.347520,0.384781
542.674780,0.378264
543.002000,0.379986
543.329180,0.385479
543.656320,0.388186
543.983420,0.379487
544.310480,0.380904
544.637500,0.390310
544.964480,0.381898
545.291420,0.387836
545.618320,0.387782
545.945180,0.391892
546.272000,0.383355
546.598780,0.387742
546.925520,0.393999
547.252220,0.394190
547.578880,0.391984
547.905500,0.392157
548.232080,0.393437
548.558620,0.391800
548.885120,0.392215
549.211580,0.388621
549.538000,0.403048
549.864380,0.400000
550.190720,0.389409
550.517020,0.392112
550.843280,0.400977
551.169500,0.395992
551.495680,0.399146
551.821820,0.398106
552.147920,0.398829
552.473980,0.402041
552.800000,0.401570
553.125980,0.408317
553.451920,0.414068
553.777820,0.408061
554.103680,0.409505
554.429500,0.405424
554.755280,0.412550
555.081020,0.409091
555.406720,0.404673
555.732380,0.400542
556.058000,0.412424
556.383580,0.410818
556.709120,0.407650
557.034620,0.416466
557.360080,0.409326
557.685500,0.417012
558.010880,0.407279
558.336220,0.404218
558.661520,0.419709
558.986780,0.416726
559.312000,0.416667
559.637180,0.407540
559.962320,0.410110
560.287420,0.417489
560.612480,0.420524
560.937500,0.417401
561.262480,0.417522
561.587420,0.425825
561.912320,0.422255
562.237180,0.421910
562.562000,0.427984
562.886780,0.418432
563.211520,0.421013
563.536220,0.424861
563.860880,0.428140
564.185500,0.425891
564.510080,0.433409
564.834620,0.427242
565.159120,0.432707
565.483580,0.431775
565.808000,0.425274
566.132380,0.425960
566.456720,0.427060
566.781020,0.426107
567.105280,0.432892
567.429500,0.434750
567.753680,0.438435
568.077820,0.431388
568.401920,0.446142
568.725980,0.438330
569.050000,0.438783
569.373980,0.440046
569.697920,0.436102
570.021820,0.438202
570.345680,0.444317
570.669500,0.441435
570.993280,0.441491
571.317020,0.436244
571.640720,0.443498
571.964380,0.442836
572.288000,0.443620
572.611580,0.452639
572.935120,0.441452
573.258620,0.450636
573.582080,0.451565
573.905500,0.454579
574.228880,0.453972
574.552220,0.451447
574.875520,0.446389
575.198780,0.450307
575.522000,0.453812
575.845180,0.440544
576.168320,0.448796
576.491420,0.458212
576.814480,0.461844
577.137500,0.457431
577.460480,0.460674
577.783420,0.460164
578.106320,0.452991
578.429180,0.453871
578.752000,0.458145
579.074780,0.466285
579.397520,0.464170
579.720220,0.460746
580.042880,0.465808
580.365500,0.463600
580.688080,0.459634
581.010620,0.463719
581.333120,0.463928
581.655580,0.464202
581.978000,0.476555
582.300380,0.463161
582.622720,0.472314
582.945020,0.473342
583.267280,0.473136
583.589500,0.464205
583.911680,0.467768
584.233820,0.470570
584.555920,0.482194
584.877980,0.471734
585.200000,0.460712
585.521980,0.479147
585.843920,0.482611
586.165820,0.480195
586.487680,0.477580
586.809500,0.481548
587.131280,0.477078
587.453020,0.488095
587.774720,0.479302
588.096380,0.478413
588.418000,0.477319
588.739580,0.488359
589.061120,0.485049
589.382620,0.486246
589.704080,0.480785
590.025500,0.487443
590.346880,0.487634
590.668220,0.486418
590.989520,0.478092
591.310780,0.488815
591.632000,0.491803
591.953180,0.482425
592.274320,0.490035
592.595420,0.488685
592.916480,0.483293
593.237500,0.497979
593.558480,0.496099
593.879420,0.493661
594.200320,0.495848
594.521180,0.496414
594.842000,0.499194
595.162780,0.499733
595.483520,0.497208
595.804220,0.496778
596.124880,0.503864
596.445500,0.496201
596.766080,0.507394
597.086620,0.500796
597.407120,0.498420
597.727580,0.502254
598.048000,0.500661
598.368380,0.497370
598.688720,0.495413
599.009020,0.501592
599.329280,0.510378
599.649500,0.496302
599.969680,0.505342
600.289820,0.506677
600.609920,0.496660
600.929980,0.501336
601.250000,0.510270
601.569980,0.512287
601.889920,0.505213
602.209820,0.501894
602.529680,0.513870
602.849500,0.503001
603.169280,0.510058
603.489020,0.511486
603.808720,0.509600
604.128380,0.510210
604.448000,0.510221
604.767580,0.518156
605.087120,0.504432
605.406620,0.520011
605.726080,0.520673
606.045500,0.509613
606.364880,0.516870
606.684220,0.515991
607.003520,0.511755
607.322780,0.510802
607.642000,0.512062
607.961180,0.518647
608.280320,0.517981
608.599420,0.519699
608.918480,0.521114
609.237500,0.520246
609.556480,0.523824
609.875420,0.525694
610.194320,0.513138
610.513180,0.521456
610.832000,0.517272
611.150780,0.531691
611.469520,0.526697
611.788220,0.530230
612.106880,0.523824
612.425500,0.522229
612.744080,0.525392
613.062620,0.517737
613.381120,0.527118
613.699580,0.530043
614.018000,0.526413
614.336380,0.540407
614.654720,0.525891
614.973020,0.526072
615.291280,0.531763
615.609500,0.543265
615.927680,0.523486
616.245820,0.532158
616.563920,0.531551
616.881980,0.530714
617.200000,0.534370
617.517980,0.531425
617.835920,0.533706
618.153820,0.525334
618.471680,0.524651
618.789500,0.527690
619.107280,0.535211
619.425020,0.534095
619.742720,0.533584
620.060380,0.539956
620.378000,0.536186
620.695580,0.541826
621.013120,0.540787
621.330620,0.542516
621.648080,0.535647
621.965500,0.537955
622.282880,0.535624
622.600220,0.534428
622.917520,0.545684
623.234780,0.534555
623.552000,0.546149
623.869180,0.541759
624.186320,0.546323
624.503420,0.547335
624.820480,0.543198
625.137500,0.545311
625.454480,0.547046
625.771420,0.543821
626.088320,0.546343
626.405180,0.550716
626.722000,0.549561
627.038780,0.539474
627.355520,0.547813
627.672220,0.555832
627.988880,0.546812
628.305500,0.554690
628.622080,0.552664
628.938620,0.545260
629.255120,0.559739
629.571580,0.549801
629.888000,0.551396
630.204380,0.552930
630.520720,0.554845
630.837020,0.556892
631.153280,0.562050
631.469500,0.563372
631.785680,0.562990
632.101820,0.556393
632.417920,0.557973
632.733980,0.554022
633.050000,0.564585
633.365980,0.559573
633.681920,0.566527
633.997820,0.563658
634.313680,0.559422
634.629500,0.558537
634.945280,0.556598
635.261020,0.563252
635.576720,0.567528
635.892380,0.559105
636.208000,0.565078
636.523580,0.563870
636.839120,0.564852
637.154620,0.567246
637.470080,0.556385
637.785500,0.568875
638.100880,0.573414
638.416220,0.573195
638.731520,0.562464
639.046780,0.573260
639.362000,0.564220
639.677180,0.571388
639.992320,0.571187
640.307420,0.570666
640.622480,0.562027
640.937500,0.575035
641.252480,0.578609
641.567420,0.578573
641.882320,0.576281
642.197180,0.578888
642.512000,0.578785
642.826780,0.574757
643.141520,0.574048
643.456220,0.574709
643.770880,0.577391
644.085500,0.577418
644.400080,0.579213
644.714620,0.585284
645.029120,0.578383
645.343580,0.578168
645.658000,0.581182
645.972380,0.582351
646.286720,0.576724
646.601020,0.581788
646.915280,0.583767
647.229500,0.575000
647.543680,0.576360
647.857820,0.577209
648.171920,0.585458
648.485980,0.590025
648.800000,0.582254
649.113980,0.584812
649.427920,0.584743
649.741820,0.581753
650.055680,0.585299
650.369500,0.590807
650.683280,0.584073
650.997020,0.587184
651.310720,0.585581
651.624380,0.584341
651.938000,0.582825
652.251580,0.584470
652.565120,0.580492
652.878620,0.587838
653.192080,0.592697
653.505500,0.591024
653.818880,0.588570
654.132220,0.592709
654.445520,0.584231
654.758780,0.584136
655.072000,0.587966
655.385180,0.586591
655.698320,0.583024
656.011420,0.588994
656.324480,0.596328
656.637500,0.588355
656.950480,0.590135
657.263420,0.595034
657.576320,0.585236
657.889180,0.597759
658.202000,0.597524
658.514780,0.593331
658.827520,0.592737
659.140220,0.584357
659.452880,0.594986
659.765500,0.594220
660.078080,0.585916
660.390620,0.590284
660.703120,0.602505
661.015580,0.593558
661.328000,0.598237
661.640380,0.601740
661.952720,0.596387
662.265020,0.591367
662.577280,0.595738
662.889500,0.591611
663.201680,0.597320
663.513820,0.592795
663.825920,0.605508
664.137980,0.604396
664.450000,0.593990
664.761980,0.600327
665.073920,0.591691
665.385820,0.602421
665.697680,0.602645
666.009500,0.610243
666.321280,0.614977
666.633020,0.600731
666.944720,0.605325
667.256380,0.608008
667.568000,0.607337
667.879580,0.600680
668.191120,0.611607
668.502620,0.610065
668.814080,0.607719
669.125500,0.606569
669.436880,0.610650
669.748220,0.603323
670.059520,0.610644
670.370780,0.605428
670.682000,0.610973
670.993180,0.613108
671.304320,0.608298
671.615420,0.599787
671.926480,0.604684
672.237500,0.599143
672.548480,0.607168
672.859420,0.603645
673.170320,0.616250
673.481180,0.607169
673.792000,0.606924
674.102780,0.609695
674.413520,0.607000
674.724220,0.607260
675.034880,0.618629
675.345500,0.609409
675.656080,0.611978
675.966620,0.606402
676.277120,0.597949
676.587580,0.608984
676.898000,0.609183
677.208380,0.610721
677.518720,0.605398
677.829020,0.616778
678.139280,0.613417
678.449500,0.612328
678.759680,0.619333
679.069820,0.610409
679.379920,0.613731
679.689980,0.617527
680.000000,0.611589
680.309980,0.605419
680.619920,0.611889
680.929820,0.617768
681.239680,0.610783
681.549500,0.615556
681.859280,0.615758
682.169020,0.620291
682.478720,0.619671
682.788380,0.622739
683.098000,0.620793
683.407580,0.621764
683.717120,0.616366
684.026620,0.610316
684.336080,0.617279
684.645500,0.607183
684.954880,0.614658
685.264220,0.607022
685.573520,0.623525
685.882780,0.629843
686.192000,0.615500
686.501180,0.618994
686.810320,0.620292
687.119420,0.622577
687.428480,0.622484
687.737500,0.628933
688.046480,0.626534
688.355420,0.615994
688.664320,0.625861
688.973180,0.629786
689.282000,0.627315
689.590780,0.624233
689.899520,0.619825
690.208220,0.624618
690.516880,0.629630
690.825500,0.623774
691.134080,0.623386
691.442620,0.629573
691.751120,0.634433
692.059580,0.633932
692.368000,0.626657
692.676380,0.633969
692.984720,0.626718
693.293020,0.635258
693.601280,0.627242
693.909500,0.626182
694.217680,0.617289
694.525820,0.623762
694.833920,0.628768
695.141980,0.629772
695.450000,0.633588
695.757980,0.616119
696.065920,0.631068
696.373820,0.631255
696.681680,0.622171
696.989500,0.626013
697.297280,0.627382
697.605020,0.637698
697.912720,0.622598
698.220380,0.634002
698.528000,0.630538
698.835580,0.625840
699.143120,0.619641
699.450620,0.630072
699.758080,0.625882
700.065500,0.636872
700.372880,0.637200
700.680220,0.636617
700.987520,0.631746
701.294780,0.645174
701.602000,0.636688
701.909180,0.636725
702.216320,0.627298
702.523420,0.632991
702.830480,0.632475
703.137500,0.630553
703.444480,0.639448
703.751420,0.644181
704.058320,0.635140
704.365180,0.636041
704.672000,0.646337
704.978780,0.634023
705.285520,0.629108
705.592220,0.628627
705.898880,0.633964
706.205500,0.642801
706.512080,0.633096
706.818620,0.642802
707.125120,0.651923
707.431580,0.635404
707.738000,0.634375
708.044380,0.632960
708.350720,0.636225
708.657020,0.646346
708.963280,0.646351
709.269500,0.637965
709.575680,0.640472
709.881820,0.643475
710.187920,0.643580
710.493980,0.637704
710.800000,0.632723
711.105980,0.631777
711.411920,0.638944
711.717820,0.641326
712.023680,0.636222
712.329500,0.656151
712.635280,0.646124
712.941020,0.633939
713.246720,0.640316
713.552380,0.642072
713.858000,0.643279
714.163580,0.642068
714.469120,0.640094
714.774620,0.643506
715.080080,0.645858
715.385500,0.652278
715.690880,0.643393
715.996220,0.647385
716.301520,0.644664
716.606780,0.640723
716.912000,0.650646
717.217180,0.648444
717.522320,0.642147
717.827420,0.650122
718.132480,0.643517
718.437500,0.650632
718.742480,0.642339
719.047420,0.643608
719.352320,0.650477
719.657180,0.650450
719.962000,0.643921
720.266780,0.645617
720.571520,0.642088
720.876220,0.649755
721.180880,0.638378
721.485500,0.650648
721.790080,0.639915
722.094620,0.660806
722.399120,0.649720
722.703580,0.637805
723.008000,0.653730
723.312380,0.644425
723.616720,0.647259
723.921020,0.648766
724.225280,0.641361
724.529500,0.635289
724.833680,0.646352
725.137820,0.644934
725.441920,0.650468
725.745980,0.650112
726.050000,0.651782
726.353980,0.638125
726.657920,0.634728
726.961820,0.652055
727.265680,0.650485
727.569500,0.648080
727.873280,0.636490
728.177020,0.646246
728.480720,0.648611
728.784380,0.649131
729.088000,0.651437
729.391580,0.645192
729.695120,0.650672
729.998620,0.654876
730.302080,0.640557
730.605500,0.659874
730.908880,0.647232
731.212220,0.650833
731.515520,0.641151
731.818780,0.639320
732.122000,0.656988
732.425180,0.640217
732.728320,0.643034
733.031420,0.650627
733.334480,0.661735
733.637500,0.636089
733.940480,0.644831
734.243420,0.652905
734.546320,0.650934
734.849180,0.646178
735.152000,0.662344
735.454780,0.652893
735.757520,0.652266
736.060220,0.658768
736.362880,0.655987
736.665500,0.630287
736.968080,0.656636
737.270620,0.653783
737.573120,0.645742
737.875580,0.658604
738.178000,0.654872
738.480380,0.661081
738.782720,0.649400
739.085020,0.657489
739.387280,0.649113
739.689500,0.655719
739.991680,0.658057
740.293820,0.650083
740.595920,0.654981
740.897980,0.667420
741.200000,0.652271
741.501980,0.670487
741.803920,0.648086
742.105820,0.653130
742.407680,0.661619
742.709500,0.647727
743.011280,0.655920
743.313020,0.659710
743.614720,0.644225
743.916380,0.650581
744.218000,0.655131
744.519580,0.656401
744.821120,0.667665
745.122620,0.653086
745.424080,0.638221
745.725500,0.645745
746.026880,0.645936
746.328220,0.657213
746.629520,0.637568
746.930780,0.650735
747.232000,0.646229
747.533180,0.661989
747.834320,0.663421
748.135420,0.650093
748.436480,0.658141
748.737500,0.642372
749.038480,0.650580
749.339420,0.663348
749.640320,0.663105
749.941180,0.650843
750.242000,0.660176
750.542780,0.661911
750.843520,0.664958
751.144220,0.651923
751.444880,0.667724
751.745500,0.656494
752.046080,0.661963
752.346620,0.656572
752.647120,0.655127
752.947580,0.652005
753.248000,0.654417
753.548380,0.661679
753.848720,0.651642
754.149020,0.640232
754.449280,0.655286
754.749500,0.645654
755.049680,0.650667
755.349820,0.659773
755.649920,0.653668
755.949980,0.656934
756.250000,0.658120
756.549980,0.640924
756.849920,0.664854
757.149820,0.646041
757.449680,0.649505
757.749500,0.670757
758.049280,0.662799
758.349020,0.652990
758.648720,0.654934
758.948380,0.657045
759.248000,0.675202
759.547580,0.664425
759.847120,0.665059
760.146620,0.657645
760.446080,0.659946
760.745500,0.650350
761.044880,0.660511
761.344220,0.668567
761.643520,0.661017
761.942780,0.663401
762.242000,0.666195
762.541180,0.668310
762.840320,0.670646
763.139420,0.651899
763.438480,0.656869
763.737500,0.653343
764.036480,0.654088
764.335420,0.666196
764.634320,0.648649
764.933180,0.643836
765.232000,0.666204
765.530780,0.661053
765.829520,0.666434
766.128220,0.655532
766.426880,0.661692
766.725500,0.652502
767.024080,0.652949
767.322620,0.658368
767.621120,0.652439
767.919580,0.664164
768.218000,0.658687
768.516380,0.657877
768.814720,0.659808
769.113020,0.660924
769.411280,0.667127
769.709500,0.669147
770.007680,0.653033
770.305820,0.654496
770.603920,0.650270
770.901980,0.665984
771.200000,0.661005
771.497980,0.664209
771.795920,0.664214
772.093820,0.652406
772.391680,0.657218
772.689500,0.650000
772.987280,0.654545
773.285020,0.665755
773.582720,0.667568
773.880380,0.669870
774.178000,0.676892
774.475580,0.658406
774.773120,0.655957
775.070620,0.674104
775.368080,0.665999
775.665500,0.654802
775.962880,0.651101
776.260220,0.663526
776.557520,0.674450
776.854780,0.663286
777.152000,0.648541
777.449180,0.672960
777.746320,0.653898
778.043420,0.654843
778.340480,0.667794
778.637500,0.659229
778.934480,0.648958
779.231420,0.654681
779.528320,0.645959
779.825180,0.646245
780.122000,0.656042
780.418780,0.675787
780.715520,0.671362
781.012220,0.667808
781.308880,0.666667
781.605500,0.650000
781.902080,0.657084
782.198620,0.666439
782.495120,0.669410
782.791580,0.665062
783.088000,0.672878
783.384380,0.675378
783.680720,0.655951
783.977020,0.664831
784.273280,0.680420
784.569500,0.662474
784.865680,0.668289
785.161820,0.660417
785.457920,0.663895
785.753980,0.654571
786.050000,0.642265
786.345980,0.656944
786.641920,0.662040
786.937820,0.670940
787.233680,0.647878
787.529500,0.657420
787.825280,0.674929
788.121020,0.654391
788.416720,0.675371
788.712380,0.664316
789.008000,0.667139
789.303580,0.665018
789.599120,0.674909
789.894620,0.663538
790.190080,0.654822
790.485500,0.669546
790.780880,0.652330
791.076220,0.658730
791.371520,0.668845
791.666780,0.668364
791.962000,0.664217
792.257180,0.669107
792.552320,0.655547
792.847420,0.659389
793.142480,0.652015
793.437500,0.653401
793.732480,0.645940
794.027420,0.660979
794.322320,0.671141
794.617180,0.676077
794.912000,0.670877
795.206780,0.661447
795.501520,0.675285
795.796220,0.659259
796.090880,0.681236
796.385500,0.648426
796.680080,0.665669
796.974620,0.663922
797.269120,0.662377
797.563580,0.672519
797.858000,0.659833
798.152380,0.677494
798.446720,0.651538
798.741020,0.656394
799.035280,0.680124
799.329500,0.656659
799.623680,0.665891
