399.985280,0.081081
400.329500,0.202703
400.673680,0.164557
401.017820,0.132353
401.361920,0.166667
401.705980,0.170732
402.050000,0.168831
402.393980,0.223529
402.737920,0.213483
403.081820,0.195876
403.425680,0.174419
403.769500,0.135417
404.113280,0.160920
404.457020,0.168539
404.800720,0.173913
405.144380,0.242424
405.488000,0.150538
405.831580,0.154639
406.175120,0.148936
406.518620,0.170000
406.862080,0.206186
407.205500,0.156250
407.548880,0.153061
407.892220,0.205882
408.235520,0.159574
408.578780,0.219048
408.922000,0.134615
409.265180,0.191919
409.608320,0.161616
409.951420,0.268041
410.294480,0.254902
410.637500,0.163043
410.980480,0.235294
411.323420,0.153061
411.666320,0.201835
412.009180,0.181818
412.352000,0.118812
412.694780,0.247706
413.037520,0.137615
413.380220,0.198198
413.722880,0.214286
414.065500,0.198198
414.408080,0.194690
414.750620,0.168142
415.093120,0.181818
415.435580,0.184874
415.778000,0.196970
416.120380,0.142857
416.462720,0.150794
416.805020,0.187970
417.147280,0.164179
417.489500,0.178571
417.831680,0.191781
418.173820,0.219858
418.515920,0.174825
418.857980,0.177215
419.200000,0.192308
419.541980,0.183432
419.883920,0.157303
420.225820,0.208092
420.567680,0.189944
420.909500,0.218579
421.251280,0.213542
421.593020,0.173469
421.934720,0.161616
422.276380,0.174359
422.618000,0.205882
422.959580,0.210784
423.301120,0.205479
423.642620,0.178261
423.984080,0.200000
424.325500,0.183857
424.666880,0.163793
425.008220,0.176471
425.349520,0.207627
425.690780,0.180769
426.032000,0.160784
426.373180,0.199170
426.714320,0.175781
427.055420,0.177606
427.396480,0.172285
427.737500,0.166008
428.078480,0.189723
428.419420,0.164659
428.760320,0.172414
429.101180,0.188976
429.442000,0.191571
429.782780,0.184615
430.123520,0.152941
430.464220,0.202952
430.804880,0.206897
431.145500,0.174545
431.486080,0.179775
431.826620,0.178295
432.167120,0.176471
432.507580,0.217391
432.848000,0.194245
433.188380,0.184116
433.528720,0.184906
433.869020,0.192857
434.209280,0.168421
434.549500,0.184669
434.889680,0.188552
435.229820,0.180887
435.569920,0.173010
435.909980,0.177994
436.250000,0.206780
436.589980,0.185759
436.929920,0.203175
437.269820,0.200627
437.609680,0.198225
437.949500,0.192771
438.289280,0.189802
438.629020,0.186047
438.968720,0.194767
439.308380,0.184282
439.648000,0.197260
439.987580,0.206349
440.327120,0.184000
440.666620,0.192208
441.006080,0.189258
441.345500,0.191646
441.684880,0.196172
442.024220,0.181141
442.363520,0.190476
442.702780,0.197727
443.042000,0.185022
443.381180,0.191810
443.720320,0.187905
444.059420,0.180672
444.398480,0.177824
444.737500,0.188525
445.076480,0.180556
445.415420,0.183633
445.754320,0.185031
446.093180,0.183486
446.432000,0.189850
446.770780,0.208729
447.109520,0.198529
447.448220,0.187835
447.786880,0.196780
448.125500,0.191379
448.464080,0.176786
448.802620,0.207447
449.141120,0.190311
449.479580,0.201049
449.818000,0.203098
450.156380,0.192308
450.494720,0.200000
450.833020,0.194056
451.171280,0.188356
451.509500,0.202091
451.847680,0.190556
452.185820,0.208262
452.523920,0.201031
452.861980,0.195616
453.200000,0.199336
453.537980,0.196639
453.875920,0.200000
454.213820,0.195205
454.551680,0.205298
454.889500,0.202361
455.227280,0.188612
455.565020,0.211055
455.902720,0.204659
456.240380,0.194676
456.578000,0.209059
456.915580,0.202073
457.253120,0.200658
457.590620,0.213465
457.928080,0.210438
458.265500,0.206081
458.602880,0.202922
458.940220,0.204738
459.277520,0.198400
459.614780,0.211129
459.952000,0.212733
460.289180,0.215190
460.626320,0.209449
460.963420,0.208401
461.300480,0.201835
461.637500,0.203390
461.974480,0.214067
462.311420,0.217586
462.648320,0.206442
462.985180,0.222382
463.322000,0.218750
463.658780,0.211326
463.995520,0.214580
464.332220,0.222992
464.668880,0.225806
465.005500,0.210456
465.342080,0.216389
465.678620,0.218942
466.015120,0.219922
466.351580,0.226296
466.688000,0.222899
467.024380,0.217497
467.360720,0.218182
467.697020,0.226651
468.033280,0.223333
468.369500,0.225166
468.705680,0.229989
469.041820,0.228125
469.377920,0.211497
469.713980,0.227600
470.050000,0.220290
470.385980,0.223092
470.721920,0.214496
471.057820,0.218324
471.393680,0.215154
471.729500,0.217794
472.065280,0.221825
472.401020,0.219858
472.736720,0.219023
473.072380,0.220826
473.408000,0.221932
473.743580,0.220588
474.079120,0.223084
474.414620,0.222222
474.750080,0.221318
475.085500,0.232730
475.420880,0.224813
475.756220,0.224039
476.091520,0.231884
476.426780,0.227346
476.762000,0.226870
477.097180,0.234400
477.432320,0.235057
477.767420,0.228758
478.102480,0.233071
478.437500,0.231527
478.772480,0.233255
479.107420,0.236778
479.442320,0.234213
479.777180,0.227526
480.112000,0.231125
480.446780,0.226033
480.781520,0.239130
481.116220,0.231205
481.450880,0.241218
481.785500,0.242089
482.120080,0.238245
482.454620,0.236208
482.789120,0.241242
483.123580,0.235981
483.458000,0.249209
483.792380,0.238818
484.126720,0.231660
484.461020,0.240437
484.795280,0.240555
485.129500,0.248636
485.463680,0.247287
485.797820,0.246501
486.131920,0.247896
486.465980,0.243243
486.800000,0.248855
487.133980,0.241692
487.467920,0.250191
487.801820,0.258581
488.135680,0.258529
488.469500,0.255673
488.803280,0.246657
489.137020,0.249084
489.470720,0.254451
489.804380,0.253898
490.138000,0.258902
490.471580,0.256448
490.805120,0.250893
491.138620,0.250178
491.472080,0.267138
491.805500,0.265690
492.138880,0.261987
492.472220,0.262284
492.805520,0.263966
493.138780,0.259821
493.472000,0.258194
493.805180,0.272169
494.138320,0.260841
494.471420,0.268880
494.804480,0.267141
495.137500,0.265083
495.470480,0.273423
495.803420,0.269521
496.136320,0.270677
496.469180,0.267035
496.802000,0.267726
497.134780,0.271680
497.467520,0.281957
497.800220,0.272406
498.132880,0.275132
498.465500,0.271147
498.798080,0.268836
499.130620,0.270073
499.463120,0.279057
499.795580,0.275028
500.128000,0.276294
500.460380,0.274489
500.792720,0.269883
501.125020,0.271151
501.457280,0.279373
501.789500,0.280475
502.121680,0.281493
502.453820,0.273330
502.785920,0.276138
503.117980,0.283121
503.450000,0.284782
503.781980,0.295964
504.113920,0.281650
504.445820,0.283422
504.777680,0.277176
505.109500,0.287019
505.441280,0.284895
505.773020,0.283701
506.104720,0.284503
506.436380,0.283483
506.768000,0.285781
507.099580,0.280549
507.431120,0.283841
507.762620,0.287124
508.094080,0.283500
508.425500,0.291317
508.756880,0.295382
509.088220,0.293928
509.419520,0.298883
509.750780,0.294752
510.082000,0.298974
510.413180,0.294334
510.744320,0.294984
511.075420,0.294684
511.406480,0.293841
511.737500,0.288426
512.068480,0.302162
512.399420,0.297183
512.730320,0.290993
513.061180,0.296384
513.392000,0.297681
513.722780,0.305476
514.053520,0.302348
514.384220,0.303520
514.714880,0.303016
515.045500,0.296456
515.376080,0.307990
515.706620,0.309303
516.037120,0.308333
516.367580,0.310498
516.698000,0.309314
517.028380,0.306852
517.358720,0.315062
517.689020,0.314045
518.019280,0.308580
518.349500,0.312722
518.679680,0.307420
519.009820,0.309717
519.339920,0.318136
519.669980,0.310397
520.000000,0.319409
520.329980,0.321928
520.659920,0.312883
520.989820,0.319917
521.319680,0.310700
521.649500,0.313625
521.979280,0.328288
522.309020,0.313278
522.638720,0.315412
522.968380,0.324716
523.298000,0.326200
523.627580,0.324366
523.957120,0.327273
524.286620,0.331423
524.616080,0.322130
524.945500,0.326615
525.274880,0.326321
525.604220,0.328675
525.933520,0.319182
526.262780,0.322859
526.592000,0.326738
526.921180,0.326562
527.250320,0.328767
527.579420,0.328954
527.908480,0.337765
528.237500,0.341609
528.566480,0.340818
528.895420,0.337605
529.224320,0.341258
529.553180,0.334940
529.882000,0.340633
530.210780,0.339286
530.539520,0.338926
530.868220,0.350886
531.196880,0.344004
531.525500,0.345278
531.854080,0.341463
532.182620,0.343765
532.511120,0.342923
532.839580,0.356624
533.168000,0.346399
533.496380,0.348402
533.824720,0.347241
534.153020,0.347749
534.481280,0.346256
534.809500,0.359279
535.137680,0.348524
535.465820,0.353522
535.793920,0.352369
536.121980,0.349559
536.450000,0.357717
536.777980,0.366988
537.105920,0.357410
537.433820,0.356383
537.761680,0.360408
538.089500,0.362202
538.417280,0.362515
538.745020,0.364897
539.072720,0.354939
539.400380,0.367910
539.728000,0.364818
540.055580,0.362172
540.383120,0.364110
540.710620,0.362351
541.038080,0.367761
541.365500,0.376838
541.692880,0.363372
542.020220,0.363440
542.347520,0.368629
542.674780,0.375794
543.002000,0.374038
543.329180,0.380919
543.656320,0.376231
543.983420,0.370598
544.310480,0.371050
544.637500,0.378710
544.964480,0.375168
545.291420,0.376205
545.618320,0.379482
545.945180,0.366842
546.272000,0.375819
546.598780,0.370698
546.925520,0.379163
547.252220,0.378673
547.578880,0.376996
547.905500,0.379412
548.232080,0.386615
548.558620,0.385291
548.885120,0.387635
549.211580,0.378978
549.538000,0.380674
549.864380,0.379421
550.190720,0.386180
550.517020,0.391786
550.843280,0.385016
551.169500,0.385496
551.495680,0.392576
551.821820,0.391574
552.147920,0.397202
552.473980,0.388871
552.800000,0.387508
553.125980,0.391290
553.451920,0.396151
553.777820,0.400400
554.103680,0.396360
554.429500,0.399397
554.755280,0.394192
555.081020,0.395722
555.406720,0.396546
555.732380,0.398848
556.058000,0.395791
556.383580,0.398836
556.709120,0.400414
557.034620,0.401998
557.360080,0.396546
557.685500,0.395574
558.010880,0.398960
558.336220,0.393322
558.661520,0.401985
558.986780,0.403614
559.312000,0.405627
559.637180,0.405745
559.962320,0.410466
560.287420,0.410790
560.612480,0.411195
560.937500,0.414464
561.262480,0.410924
561.587420,0.406601
561.912320,0.408990
562.237180,0.417469
562.562000,0.419005
562.886780,0.412858
563.211520,0.406110
563.536220,0.407421
563.860880,0.418710
564.185500,0.415760
564.510080,0.418360
564.834620,0.417194
565.159120,0.416165
565.483580,0.416192
565.808000,0.417707
566.132380,0.419620
566.456720,0.424036
566.781020,0.415979
567.105280,0.417391
567.429500,0.426404
567.753680,0.429229
568.077820,0.417472
568.401920,0.425516
568.725980,0.431499
569.050000,0.425475
569.373980,0.428626
569.697920,0.425484
570.021820,0.428464
570.345680,0.432453
570.669500,0.438001
570.993280,0.436323
571.317020,0.426379
571.640720,0.434976
571.964380,0.433185
572.288000,0.443991
572.611580,0.442156
572.935120,0.430602
573.258620,0.441660
573.582080,0.437034
573.905500,0.437826
574.228880,0.451745
574.552220,0.440821
574.875520,0.432614
575.198780,0.436213
575.522000,0.446481
575.845180,0.437321
576.168320,0.435501
576.491420,0.441860
576.814480,0.437251
577.137500,0.446609
577.460480,0.453063
577.783420,0.448732
578.106320,0.448362
578.429180,0.449982
578.752000,0.447030
579.074780,0.448078
579.397520,0.456423
579.720220,0.449807
580.042880,0.457218
580.365500,0.453342
580.688080,0.457598
581.010620,0.453932
581.333120,0.450902
581.655580,0.461538
581.978000,0.460925
582.300380,0.458942
582.622720,0.462096
582.945020,0.460013
583.267280,0.461413
583.589500,0.465169
583.911680,0.463639
584.233820,0.465534
584.555920,0.464229
584.877980,0.471734
585.200000,0.458870
585.521980,0.468953
585.843920,0.459121
586.165820,0.471054
586.487680,0.462233
586.809500,0.468947
587.131280,0.465543
587.453020,0.475298
587.774720,0.468362
588.096380,0.473746
588.418000,0.474978
588.739580,0.473987
589.061120,0.478723
589.382620,0.471060
589.704080,0.474334
590.025500,0.474886
590.346880,0.478640
590.668220,0.479137
590.989520,0.475319
591.310780,0.475559
591.632000,0.471038
591.953180,0.483255
592.274320,0.473655
592.595420,0.478448
592.916480,0.481391
593.237500,0.487739
593.558480,0.489642
593.879420,0.486647
594.200320,0.489954
594.521180,0.484462
594.842000,0.487372
595.162780,0.487714
595.483520,0.491093
595.804220,0.490064
596.124880,0.489209
596.445500,0.487818
596.766080,0.499059
597.086620,0.492569
597.407120,0.492101
597.727580,0.492442
598.048000,0.495636
598.368380,0.488953
598.688720,0.495413
599.009020,0.496285
599.329280,0.493880
599.649500,0.501057
599.969680,0.499466
600.289820,0.498665
600.609920,0.502805
600.929980,0.493052
601.250000,0.497027
601.569980,0.494464
601.889920,0.491312
602.209820,0.503788
602.529680,0.510025
602.849500,0.496727
603.169280,0.508680
603.489020,0.506781
603.808720,0.505485
604.128380,0.507450
604.448000,0.495856
604.767580,0.503073
605.087120,0.496676
605.406620,0.503219
605.726080,0.512974
606.045500,0.504319
606.364880,0.504962
606.684220,0.508567
607.003520,0.505447
607.322780,0.508528
607.642000,0.512349
607.961180,0.508239
608.280320,0.510151
608.599420,0.508691
608.918480,0.511144
609.237500,0.514085
609.556480,0.512874
609.875420,0.510927
610.194320,0.513729
610.513180,0.503403
610.832000,0.519357
611.150780,0.515771
611.469520,0.516742
611.788220,0.519045
612.106880,0.517793
612.425500,0.521620
612.744080,0.526316
613.062620,0.519878
613.381120,0.520719
613.699580,0.519007
614.018000,0.514435
614.336380,0.524368
614.654720,0.521240
614.973020,0.518976
615.291280,0.527425
615.609500,0.528368
615.927680,0.525649
616.245820,0.521027
616.563920,0.525334
616.881980,0.529467
617.200000,0.528460
617.517980,0.514312
617.835920,0.523765
618.153820,0.517252
618.471680,0.524031
618.789500,0.528634
619.107280,0.532394
619.425020,0.525531
619.742720,0.522599
620.060380,0.526794
620.378000,0.527376
620.695580,0.536398
621.013120,0.528504
621.330620,0.530907
621.648080,0.529968
621.965500,0.534818
622.282880,0.527427
622.600220,0.535692
622.917520,0.531821
623.234780,0.538412
623.552000,0.537556
623.869180,0.529467
624.186320,0.541866
624.503420,0.542006
624.820480,0.537857
625.137500,0.541206
625.454480,0.539231
625.771420,0.544451
626.088320,0.543506
626.405180,0.545115
626.722000,0.537641
627.038780,0.536028
627.355520,0.539062
627.672220,0.543701
627.988880,0.539036
628.305500,0.541602
628.622080,0.557311
628.938620,0.542202
629.255120,0.546360
629.571580,0.546123
629.888000,0.544339
630.204380,0.538509
630.520720,0.545094
630.837020,0.546099
631.153280,0.544964
631.469500,0.552153
631.785680,0.552743
632.101820,0.553679
632.417920,0.552012
632.733980,0.551020
633.050000,0.557914
633.365980,0.553349
633.681920,0.554594
633.997820,0.555888
634.313680,0.555293
634.629500,0.553229
634.945280,0.559238
635.261020,0.557382
635.576720,0.567528
635.892380,0.557363
636.208000,0.563335
636.523580,0.564455
636.839120,0.562247
637.154620,0.560580
637.470080,0.553802
637.785500,0.567702
638.100880,0.562409
638.416220,0.562266
638.731520,0.559026
639.046780,0.561317
639.362000,0.554759
639.677180,0.561965
639.992320,0.559346
640.307420,0.566170
640.622480,0.562307
640.937500,0.566436
641.252480,0.566043
641.567420,0.573743
641.882320,0.559577
642.197180,0.570466
642.512000,0.567310
642.826780,0.561997
643.141520,0.567936
643.456220,0.567515
643.770880,0.576562
644.085500,0.570430
644.400080,0.569944
644.714620,0.568283
645.029120,0.575358
645.343580,0.575699
645.658000,0.577852
645.972380,0.573856
646.286720,0.569910
646.601020,0.576806
646.915280,0.576913
647.229500,0.573901
647.543680,0.571665
647.857820,0.577759
648.171920,0.575692
648.485980,0.577418
648.800000,0.570130
649.113980,0.576220
649.427920,0.576699
649.741820,0.576257
650.055680,0.582008
650.369500,0.580998
650.683280,0.580744
650.997020,0.577558
651.310720,0.575674
651.624380,0.578022
651.938000,0.580055
652.251580,0.580017
652.565120,0.577977
652.878620,0.585304
653.192080,0.580337
653.505500,0.584572
653.818880,0.586579
654.132220,0.588721
654.445520,0.581679
654.758780,0.570822
655.072000,0.578510
655.385180,0.584879
655.698320,0.578451
656.011420,0.582402
656.324480,0.583503
656.637500,0.584009
656.950480,0.582208
657.263420,0.585279
657.576320,0.588497
657.889180,0.582424
658.202000,0.592089
658.514780,0.584400
658.827520,0.592737
659.140220,0.588553
659.452880,0.591060
659.765500,0.588200
660.078080,0.583509
660.390620,0.586923
660.703120,0.591506
661.015580,0.587117
661.328000,0.595718
661.640380,0.593352
661.952720,0.593585
662.265020,0.597984
662.577280,0.589059
662.889500,0.588143
663.201680,0.592214
663.513820,0.587649
663.825920,0.597182
664.137980,0.595346
664.450000,0.592072
664.761980,0.595417
665.073920,0.591366
665.385820,0.600458
665.697680,0.601322
666.009500,0.600599
666.321280,0.597747
666.633020,0.600731
666.944720,0.596899
667.256380,0.596904
667.568000,0.587976
667.879580,0.601361
668.191120,0.599245
668.502620,0.596713
668.814080,0.606316
669.125500,0.603832
669.436880,0.598548
669.748220,0.598823
670.059520,0.599440
670.370780,0.600557
670.682000,0.605310
670.993180,0.609937
671.304320,0.598805
671.615420,0.597656
671.926480,0.606458
672.237500,0.599143
672.548480,0.599361
672.859420,0.604718
673.170320,0.605005
673.481180,0.606083
673.792000,0.597548
674.102780,0.602154
674.413520,0.613562
674.724220,0.613067
675.034880,0.608361
675.345500,0.606856
675.656080,0.603630
675.966620,0.602401
676.277120,0.604540
676.587580,0.604934
676.898000,0.611422
677.208380,0.602957
677.518720,0.607586
677.829020,0.617886
678.139280,0.607487
678.449500,0.603416
678.759680,0.609592
679.069820,0.607435
679.379920,0.615617
679.689980,0.610100
680.000000,0.608972
680.309980,0.616184
680.619920,0.615297
680.929820,0.614035
681.239680,0.605982
681.549500,0.608519
681.859280,0.607543
682.169020,0.618426
682.478720,0.632012
682.788380,0.613880
683.098000,0.621541
683.407580,0.622514
683.717120,0.605856
684.026620,0.614458
684.336080,0.613490
684.645500,0.601945
684.954880,0.612769
685.264220,0.618724
685.573520,0.619338
685.882780,0.623322
686.192000,0.617758
686.501180,0.613318
686.810320,0.622982
687.119420,0.622957
687.428480,0.624763
687.737500,0.621642
688.046480,0.618482
688.355420,0.610336
688.664320,0.620122
688.973180,0.616386
689.282000,0.628858
689.590780,0.616948
689.899520,0.607672
690.208220,0.621560
690.516880,0.619702
690.825500,0.614340
691.134080,0.621109
691.442620,0.617378
691.751120,0.622677
692.059580,0.621704
692.368000,0.621734
692.676380,0.630153
692.984720,0.616031
693.293020,0.618921
693.601280,0.618848
693.909500,0.622399
694.217680,0.617669
694.525820,0.629474
694.833920,0.621137
695.141980,0.628616
695.450000,0.621374
695.757980,0.621085
696.065920,0.621748
696.373820,0.616243
696.681680,0.609896
696.989500,0.619452
697.297280,0.627771
697.605020,0.636508
697.912720,0.619523
698.220380,0.623770
698.528000,0.627373
698.835580,0.623864
699.143120,0.622369
699.450620,0.631663
699.758080,0.624314
700.065500,0.629689
700.372880,0.634400
700.680220,0.619465
700.987520,0.631349
701.294780,0.636253
701.602000,0.639461
701.909180,0.635930
702.216320,0.618694
702.523420,0.640489
702.830480,0.639208
703.137500,0.623539
703.444480,0.640631
703.751420,0.636686
704.058320,0.639098
704.365180,0.637224
704.672000,0.634455
704.978780,0.630901
705.285520,0.621283
705.592220,0.631373
705.898880,0.631206
706.205500,0.629108
706.512080,0.633096
706.818620,0.638545
707.125120,0.636923
707.431580,0.633060
707.738000,0.639453
708.044380,0.632188
708.350720,0.628964
708.657020,0.636186
708.963280,0.637422
709.269500,0.631703
709.575680,0.642436
709.881820,0.632862
710.187920,0.638132
710.493980,0.639255
710.800000,0.626240
711.105980,0.620858
711.411920,0.644856
711.717820,0.641715
712.023680,0.630781
712.329500,0.644322
712.635280,0.637209
712.941020,0.637031
713.246720,0.641502
713.552380,0.644427
713.858000,0.642491
714.163580,0.638911
714.469120,0.635404
714.774620,0.645480
715.080080,0.645465
715.385500,0.644684
715.690880,0.637081
715.996220,0.639065
716.301520,0.641107
716.606780,0.643868
716.912000,0.651858
717.217180,0.650838
717.522320,0.635785
717.827420,0.650529
718.132480,0.643918
718.437500,0.644925
718.742480,0.634677
719.047420,0.636731
719.352320,0.652553
719.657180,0.642273
719.962000,0.641853
720.266780,0.642709
720.571520,0.634631
720.876220,0.644026
721.180880,0.643813
721.485500,0.644797
721.790080,0.641614
722.094620,0.648370
722.399120,0.637225
722.703580,0.639520
723.008000,0.639931
723.312380,0.641412
723.616720,0.631534
723.921020,0.637505
724.225280,0.635253
724.529500,0.644483
724.833680,0.649911
725.137820,0.644493
725.441920,0.645118
725.745980,0.651902
726.050000,0.649526
726.353980,0.644885
726.657920,0.638776
726.961820,0.652055
727.265680,0.646787
727.569500,0.641682
727.873280,0.638799
728.177020,0.656380
728.480720,0.640741
728.784380,0.657116
729.088000,0.657560
729.391580,0.658929
729.695120,0.655470
729.998620,0.651052
730.302080,0.647765
730.605500,0.650170
730.908880,0.653601
731.212220,0.653281
731.515520,0.645539
731.818780,0.649515
732.122000,0.651575
732.425180,0.638245
732.728320,0.643034
733.031420,0.637594
733.334480,0.651020
733.637500,0.639617
733.940480,0.654043
734.243420,0.646279
734.546320,0.659751
734.849180,0.642562
735.152000,0.645747
735.454780,0.647211
735.757520,0.649631
736.060220,0.649816
736.362880,0.650735
736.665500,0.637076
736.968080,0.658248
737.270620,0.657594
737.573120,0.649017
737.875580,0.662452
738.178000,0.652150
738.480380,0.649189
738.782720,0.652126
739.085020,0.649229
739.387280,0.656319
739.689500,0.648924
739.991680,0.658619
740.293820,0.652294
740.595920,0.659989
740.897980,0.651045
741.200000,0.651150
741.501980,0.665903
741.803920,0.652027
742.105820,0.654822
742.407680,0.655795
742.709500,0.639773
743.011280,0.644783
743.313020,0.645217
743.614720,0.644806
743.916380,0.654070
744.218000,0.656325
744.519580,0.652778
744.821120,0.654491
745.122620,0.654883
745.424080,0.652043
745.725500,0.643935
746.026880,0.652094
746.328220,0.654131
746.629520,0.636966
746.930780,0.650123
747.232000,0.641324
747.533180,0.649786
747.834320,0.659160
748.135420,0.646364
748.436480,0.648160
748.737500,0.650401
749.038480,0.643250
749.339420,0.658370
749.640320,0.648020
749.941180,0.645222
750.242000,0.662688
750.542780,0.663772
750.843520,0.661755
751.144220,0.654487
751.444880,0.654407
751.745500,0.649351
752.046080,0.659397
752.346620,0.657216
752.647120,0.655781
752.947580,0.653946
753.248000,0.645390
753.548380,0.653221
753.848720,0.656149
754.149020,0.638298
754.449280,0.659882
754.749500,0.656934
755.049680,0.653333
755.349820,0.655103
755.649920,0.647720
755.949980,0.646981
756.250000,0.654832
756.549980,0.643564
756.849920,0.658736
757.149820,0.636061
757.449680,0.649505
757.749500,0.659850
758.049280,0.654608
758.349020,0.652990
758.648720,0.669427
758.948380,0.648797
759.248000,0.654987
759.547580,0.669805
759.847120,0.649207
760.146620,0.655616
760.446080,0.662634
760.745500,0.660839
761.044880,0.664773
761.344220,0.655025
761.643520,0.657486
761.942780,0.671798
762.242000,0.662659
762.541180,0.653521
762.840320,0.657303
763.139420,0.653305
763.438480,0.658920
763.737500,0.665059
764.036480,0.655486
764.335420,0.662668
764.634320,0.653500
764.933180,0.652740
765.232000,0.650937
765.530780,0.658246
765.829520,0.662937
766.128220,0.656228
766.426880,0.662402
766.725500,0.660727
767.024080,0.657064
767.322620,0.665975
767.621120,0.657182
767.919580,0.651195
768.218000,0.664843
768.516380,0.664638
768.814720,0.658436
769.113020,0.669194
769.411280,0.678867
769.709500,0.665088
770.007680,0.650307
770.305820,0.656525
770.603920,0.654313
770.901980,0.656421
771.200000,0.651495
771.497980,0.652815
771.795920,0.663545
772.093820,0.652406
772.391680,0.652604
772.689500,0.663514
772.987280,0.656566
773.285020,0.655502
773.582720,0.656757
773.880380,0.668497
774.178000,0.672120
774.475580,0.668453
774.773120,0.668675
775.070620,0.661258
775.368080,0.656647
775.665500,0.660175
775.962880,0.651768
776.260220,0.660834
776.557520,0.681788
776.854780,0.671400
777.152000,0.653846
777.449180,0.670937
777.746320,0.659946
778.043420,0.663711
778.340480,0.658999
778.637500,0.665314
778.934480,0.652993
779.231420,0.653324
779.528320,0.661323
779.825180,0.657444
780.122000,0.656707
780.418780,0.660055
780.715520,0.663984
781.012220,0.669863
781.308880,0.665991
781.605500,0.657534
781.902080,0.658453
782.198620,0.660971
782.495120,0.669410
782.791580,0.678817
783.088000,0.672878
783.384380,0.676754
783.680720,0.657319
783.977020,0.664143
784.273280,0.668531
784.569500,0.677149
784.865680,0.669680
785.161820,0.662500
785.457920,0.672904
785.753980,0.673412
786.050000,0.661602
786.345980,0.661111
786.641920,0.660652
786.937820,0.671652
787.233680,0.658316
787.529500,0.655340
787.825280,0.669972
788.121020,0.661473
788.416720,0.659845
788.712380,0.657969
789.008000,0.666431
789.303580,0.662191
789.599120,0.678545
789.894620,0.674368
790.190080,0.659173
790.485500,0.657307
790.780880,0.663799
791.076220,0.653680
791.371520,0.664488
791.666780,0.669091
791.962000,0.664217
792.257180,0.663250
792.552320,0.663524
792.847420,0.662300
793.142480,0.673993
793.437500,0.679450
793.732480,0.662765
794.027420,0.669881
794.322320,0.672632
794.617180,0.669391
794.912000,0.670134
795.206780,0.659955
795.501520,0.673764
795.796220,0.657778
796.090880,0.674454
796.385500,0.673163
796.680080,0.657442
796.974620,0.664671
797.269120,0.666919
797.563580,0.675573
797.858000,0.665907
798.152380,0.665893
798.446720,0.670769
798.741020,0.677196
799.035280,0.666925
799.329500,0.674365
799.623680,0.668217
