399.985280,0.175676
400.329500,0.270270
400.673680,0.265823
401.017820,0.176471
401.361920,0.151515
401.705980,0.170732
402.050000,0.220779
402.393980,0.200000
402.737920,0.157303
403.081820,0.216495
403.425680,0.186047
403.769500,0.166667
404.113280,0.160920
404.457020,0.179775
404.800720,0.141304
405.144380,0.171717
405.488000,0.107527
405.831580,0.237113
406.175120,0.191489
406.518620,0.220000
406.862080,0.185567
407.205500,0.177083
407.548880,0.163265
407.892220,0.176471
408.235520,0.191489
408.578780,0.219048
408.922000,0.173077
409.265180,0.242424
409.608320,0.212121
409.951420,0.268041
410.294480,0.215686
410.637500,0.239130
410.980480,0.245098
411.323420,0.183673
411.666320,0.211009
412.009180,0.190909
412.352000,0.148515
412.694780,0.229358
413.037520,0.146789
413.380220,0.216216
413.722880,0.205357
414.065500,0.261261
414.408080,0.168142
414.750620,0.168142
415.093120,0.190083
415.435580,0.210084
415.778000,0.234848
416.120380,0.184874
416.462720,0.198413
416.805020,0.218045
417.147280,0.194030
417.489500,0.192857
417.831680,0.164384
418.173820,0.163121
418.515920,0.202797
418.857980,0.202532
419.200000,0.230769
419.541980,0.213018
419.883920,0.207865
420.225820,0.190751
420.567680,0.201117
420.909500,0.229508
421.251280,0.208333
421.593020,0.193878
421.934720,0.222222
422.276380,0.200000
422.618000,0.200980
422.959580,0.215686
423.301120,0.214612
423.642620,0.204348
423.984080,0.204651
424.325500,0.188341
424.666880,0.202586
425.008220,0.201681
425.349520,0.182203
425.690780,0.215385
426.032000,0.188235
426.373180,0.215768
426.714320,0.191406
427.055420,0.212355
427.396480,0.213483
427.737500,0.201581
428.078480,0.221344
428.419420,0.188755
428.760320,0.199234
429.101180,0.220472
429.442000,0.210728
429.782780,0.200000
430.123520,0.203922
430.464220,0.202952
430.804880,0.233716
431.145500,0.189091
431.486080,0.217228
431.826620,0.197674
432.167120,0.216912
432.507580,0.228261
432.848000,0.194245
433.188380,0.212996
433.528720,0.207547
433.869020,0.228571
434.209280,0.224561
434.549500,0.236934
434.889680,0.235690
435.229820,0.228669
435.569920,0.207612
435.909980,0.213592
436.250000,0.220339
436.589980,0.216718
436.929920,0.231746
437.269820,0.197492
437.609680,0.227811
437.949500,0.222892
438.289280,0.223796
438.629020,0.229651
438.968720,0.218023
439.308380,0.211382
439.648000,0.219178
439.987580,0.219577
440.327120,0.224000
440.666620,0.228571
441.006080,0.222506
441.345500,0.213759
441.684880,0.220096
442.024220,0.215881
442.363520,0.209524
442.702780,0.220455
443.042000,0.233480
443.381180,0.232759
443.720320,0.237581
444.059420,0.212185
444.398480,0.211297
444.737500,0.229508
445.076480,0.222222
445.415420,0.221557
445.754320,0.228690
446.093180,0.222018
446.432000,0.231203
446.770780,0.225806
447.109520,0.246324
447.448220,0.230769
447.786880,0.239714
448.125500,0.234483
448.464080,0.223214
448.802620,0.232270
449.141120,0.223183
449.479580,0.220280
449.818000,0.240964
450.156380,0.222408
450.494720,0.221488
450.833020,0.234266
451.171280,0.217466
451.509500,0.236934
451.847680,0.237774
452.185820,0.232358
452.523920,0.233677
452.861980,0.251265
453.200000,0.235880
453.537980,0.243697
453.875920,0.226891
454.213820,0.234589
454.551680,0.235099
454.889500,0.232715
455.227280,0.233096
455.565020,0.241206
455.902720,0.236273
456.240380,0.227953
456.578000,0.263066
456.915580,0.241796
457.253120,0.245066
457.590620,0.249589
457.928080,0.252525
458.265500,0.239865
458.602880,0.250000
458.940220,0.245347
459.277520,0.249600
459.614780,0.248773
459.952000,0.256211
460.289180,0.251582
460.626320,0.248819
460.963420,0.252019
461.300480,0.255352
461.637500,0.246533
461.974480,0.253823
462.311420,0.253353
462.648320,0.250366
462.985180,0.239598
463.322000,0.258929
463.658780,0.248619
463.995520,0.259972
464.332220,0.264543
464.668880,0.250000
465.005500,0.256032
465.342080,0.261204
465.678620,0.255843
466.015120,0.252264
466.351580,0.262958
466.688000,0.257004
467.024380,0.262454
467.360720,0.262500
467.697020,0.266515
468.033280,0.266667
468.369500,0.271523
468.705680,0.267193
469.041820,0.267708
469.377920,0.262473
469.713980,0.263646
470.050000,0.262802
470.385980,0.260274
470.721920,0.259549
471.057820,0.266082
471.393680,0.258185
471.729500,0.265987
472.065280,0.272809
472.401020,0.270390
472.736720,0.272251
473.072380,0.269300
473.408000,0.265448
473.743580,0.264706
474.079120,0.272179
474.414620,0.268872
474.750080,0.268511
475.085500,0.266447
475.420880,0.275604
475.756220,0.269828
476.091520,0.267690
476.426780,0.272654
476.762000,0.270314
477.097180,0.270400
477.432320,0.272213
477.767420,0.277778
478.102480,0.266929
478.437500,0.280788
478.772480,0.267928
479.107420,0.265256
479.442320,0.282174
479.777180,0.288783
480.112000,0.275809
480.446780,0.284489
480.781520,0.278583
481.116220,0.283751
481.450880,0.284934
481.785500,0.294304
482.120080,0.285266
482.454620,0.286713
482.789120,0.283439
483.123580,0.286604
483.458000,0.274525
483.792380,0.288339
484.126720,0.291120
484.461020,0.292740
484.795280,0.294526
485.129500,0.296960
485.463680,0.289922
485.797820,0.297045
486.131920,0.290742
486.465980,0.294208
486.800000,0.296183
487.133980,0.285498
487.467920,0.293803
487.801820,0.297483
488.135680,0.298711
488.469500,0.295008
488.803280,0.301634
489.137020,0.292308
489.470720,0.303412
489.804380,0.296956
490.138000,0.312315
490.471580,0.313928
490.805120,0.300214
491.138620,0.302061
491.472080,0.298233
491.805500,0.299163
492.138880,0.302293
492.472220,0.319031
492.805520,0.306564
493.138780,0.317712
493.472000,0.303679
493.805180,0.309686
494.138320,0.314209
494.471420,0.308594
494.804480,0.314360
495.137500,0.317715
495.470480,0.314850
495.803420,0.311083
496.136320,0.313910
496.469180,0.309392
496.802000,0.306235
497.134780,0.315343
497.467520,0.318654
497.800220,0.313679
498.132880,0.322751
498.465500,0.319815
498.798080,0.321918
499.130620,0.321168
499.463120,0.323414
499.795580,0.326183
500.128000,0.323161
500.460380,0.324004
500.792720,0.317603
501.125020,0.325801
501.457280,0.333681
501.789500,0.329545
502.121680,0.336962
502.453820,0.328914
502.785920,0.326163
503.117980,0.331698
503.450000,0.332998
503.781980,0.337818
504.113920,0.331437
504.445820,0.333495
504.777680,0.323294
505.109500,0.334615
505.441280,0.336520
505.773020,0.335369
506.104720,0.331606
506.436380,0.333649
506.768000,0.329280
507.099580,0.328146
507.431120,0.334426
507.762620,0.342105
508.094080,0.328168
508.425500,0.341270
508.756880,0.334248
509.088220,0.344526
509.419520,0.343110
509.750780,0.346767
510.082000,0.334888
510.413180,0.339936
510.744320,0.343304
511.075420,0.340055
511.406480,0.339445
511.737500,0.338426
512.068480,0.342105
512.399420,0.344131
512.730320,0.349654
513.061180,0.346813
513.392000,0.348320
513.722780,0.362152
514.053520,0.346909
514.384220,0.341579
514.714880,0.349928
515.045500,0.345785
515.376080,0.349153
515.706620,0.359474
516.037120,0.352941
516.367580,0.364712
516.698000,0.359314
517.028380,0.357001
517.358720,0.351605
517.689020,0.363501
518.019280,0.357752
518.349500,0.366954
518.679680,0.365472
519.009820,0.360830
519.339920,0.368737
519.669980,0.357609
520.000000,0.370352
520.329980,0.364956
520.659920,0.366053
520.989820,0.373065
521.319680,0.364198
521.649500,0.360925
521.979280,0.374217
522.309020,0.372407
522.638720,0.368664
522.968380,0.376939
523.298000,0.372129
523.627580,0.378686
523.957120,0.369870
524.286620,0.376759
524.616080,0.371251
524.945500,0.377778
525.274880,0.388917
525.604220,0.373706
525.933520,0.377358
526.262780,0.372022
526.592000,0.375951
526.921180,0.387506
527.250320,0.379503
527.579420,0.383527
527.908480,0.378631
528.237500,0.383813
528.566480,0.382236
528.895420,0.390340
529.224320,0.390788
529.553180,0.382169
529.882000,0.387835
530.210780,0.391892
530.539520,0.388303
530.868220,0.400670
531.196880,0.393215
531.525500,0.401453
531.854080,0.383677
532.182620,0.379262
532.511120,0.399072
532.839580,0.405172
533.168000,0.391522
533.496380,0.400000
533.824720,0.392104
534.153020,0.402140
534.481280,0.394273
534.809500,0.402814
535.137680,0.398872
535.465820,0.400773
535.793920,0.398054
536.121980,0.401595
536.450000,0.411839
536.777980,0.406368
537.105920,0.406808
537.433820,0.407529
537.761680,0.406122
538.089500,0.409551
538.417280,0.404696
538.745020,0.413233
539.072720,0.410777
539.400380,0.414530
539.728000,0.416826
540.055580,0.405243
540.383120,0.412509
540.710620,0.406994
541.038080,0.414607
541.365500,0.413235
541.692880,0.413881
542.020220,0.415977
542.347520,0.419598
542.674780,0.414961
543.002000,0.425822
543.329180,0.427569
543.656320,0.422996
543.983420,0.420513
544.310480,0.422358
544.637500,0.425452
544.964480,0.425639
545.291420,0.424726
545.618320,0.421979
545.945180,0.420237
546.272000,0.419069
546.598780,0.421173
546.925520,0.427629
547.252220,0.426543
547.578880,0.426197
547.905500,0.426144
548.232080,0.431124
548.558620,0.431826
548.885120,0.431469
549.211580,0.430087
549.538000,0.432555
549.864380,0.436013
550.190720,0.432354
550.517020,0.439048
550.843280,0.431596
551.169500,0.430025
551.495680,0.434954
551.821820,0.442521
552.147920,0.437866
552.473980,0.437274
552.800000,0.437541
553.125980,0.436477
553.451920,0.435634
553.777820,0.437375
554.103680,0.447590
554.429500,0.434884
554.755280,0.441255
555.081020,0.441845
555.406720,0.441246
555.732380,0.443240
556.058000,0.442634
556.383580,0.445738
556.709120,0.450724
557.034620,0.452635
557.360080,0.448705
557.685500,0.447095
558.010880,0.447834
558.336220,0.446046
558.661520,0.447714
558.986780,0.453579
559.312000,0.460114
559.637180,0.447038
559.962320,0.448914
560.287420,0.451340
560.612480,0.454970
560.937500,0.455213
561.262480,0.455279
561.587420,0.452666
561.912320,0.457627
562.237180,0.452258
562.562000,0.464646
562.886780,0.465255
563.211520,0.460507
563.536220,0.458256
563.860880,0.457186
564.185500,0.446529
564.510080,0.464259
564.834620,0.470413
565.159120,0.467293
565.483580,0.467503
565.808000,0.462353
566.132380,0.467736
566.456720,0.469388
566.781020,0.460990
567.105280,0.463138
567.429500,0.474203
567.753680,0.476026
568.077820,0.474295
568.401920,0.472880
568.725980,0.472865
569.050000,0.473764
569.373980,0.473925
569.697920,0.468714
570.021820,0.477528
570.345680,0.474933
570.669500,0.473483
570.993280,0.470284
571.317020,0.473877
571.640720,0.479807
571.964380,0.478471
572.288000,0.474777
572.611580,0.493823
572.935120,0.481481
573.258620,0.483171
573.582080,0.479508
573.905500,0.476545
574.228880,0.483296
574.552220,0.483327
574.875520,0.482502
575.198780,0.481026
575.522000,0.485337
575.845180,0.480659
576.168320,0.478620
576.491420,0.495276
576.814480,0.490778
577.137500,0.491703
577.460480,0.490395
577.783420,0.492676
578.106320,0.494302
578.429180,0.496642
578.752000,0.493227
579.074780,0.492920
579.397520,0.493544
579.720220,0.494530
580.042880,0.502478
580.365500,0.496029
580.688080,0.496947
581.010620,0.501181
581.333120,0.499666
581.655580,0.503497
581.978000,0.508148
582.300380,0.498864
582.622720,0.513514
582.945020,0.500650
583.267280,0.498209
583.589500,0.503692
583.911680,0.503652
584.233820,0.500157
584.555920,0.502364
584.877980,0.505967
585.200000,0.496931
585.521980,0.512203
585.843920,0.505796
586.165820,0.505789
586.487680,0.506169
586.809500,0.510051
587.131280,0.506951
587.453020,0.519643
587.774720,0.515376
588.096380,0.513711
588.418000,0.516828
588.739580,0.519402
589.061120,0.512076
589.382620,0.516905
589.704080,0.514446
590.025500,0.523687
590.346880,0.522203
590.668220,0.515262
590.989520,0.516084
591.310780,0.518641
591.632000,0.520219
591.953180,0.515638
592.274320,0.510511
592.595420,0.513739
592.916480,0.518066
593.237500,0.520345
593.558480,0.525693
593.879420,0.525762
594.200320,0.523172
594.521180,0.517397
594.842000,0.533315
595.162780,0.530449
595.483520,0.524329
595.804220,0.534640
596.124880,0.525979
596.445500,0.528163
596.766080,0.532401
597.086620,0.531847
597.407120,0.529489
597.727580,0.532220
598.048000,0.529754
598.368380,0.531562
598.688720,0.524509
599.009020,0.529193
599.329280,0.537520
599.649500,0.526677
599.969680,0.532318
600.289820,0.530716
600.609920,0.534598
600.929980,0.531534
601.250000,0.534595
601.569980,0.537402
601.889920,0.528201
602.209820,0.531926
602.529680,0.549300
602.849500,0.533552
603.169280,0.540369
603.489020,0.546360
603.808720,0.535656
604.128380,0.546082
604.448000,0.535083
604.767580,0.539944
605.087120,0.534626
605.406620,0.539882
605.726080,0.546621
606.045500,0.535247
606.364880,0.537284
606.684220,0.540834
607.003520,0.538704
607.322780,0.544912
607.642000,0.538484
607.961180,0.549581
608.280320,0.542633
608.599420,0.537949
608.918480,0.544868
609.237500,0.546655
609.556480,0.547499
609.875420,0.551388
610.194320,0.546797
610.513180,0.548091
610.832000,0.551519
611.150780,0.555722
611.469520,0.556863
611.788220,0.556227
612.106880,0.549759
612.425500,0.551462
612.744080,0.558633
613.062620,0.551682
613.381120,0.549055
613.699580,0.562845
614.018000,0.552518
614.336380,0.549352
614.654720,0.556279
614.973020,0.553841
615.291280,0.556864
615.609500,0.564501
615.927680,0.553461
616.245820,0.558442
616.563920,0.560771
616.881980,0.555348
617.200000,0.561431
617.517980,0.550093
617.835920,0.557627
618.153820,0.554865
618.471680,0.560310
618.789500,0.561674
619.107280,0.564006
619.425020,0.558833
619.742720,0.569680
620.060380,0.553745
620.378000,0.566079
620.695580,0.570243
621.013120,0.558740
621.330620,0.569815
621.648080,0.557098
621.965500,0.565872
622.282880,0.567465
622.600220,0.556538
622.917520,0.568368
623.234780,0.574092
623.552000,0.577339
623.869180,0.567286
624.186320,0.574658
624.503420,0.574608
624.820480,0.575558
625.137500,0.580044
625.454480,0.571429
625.771420,0.572509
626.088320,0.568411
626.405180,0.578096
626.722000,0.571518
627.038780,0.562030
627.355520,0.576875
627.672220,0.580404
627.988880,0.574184
628.305500,0.575569
628.622080,0.575589
628.938620,0.579511
629.255120,0.583385
629.571580,0.574318
629.888000,0.566738
630.204380,0.571034
630.520720,0.578001
630.837020,0.579710
631.153280,0.580036
631.469500,0.585810
631.785680,0.581374
632.101820,0.582630
632.417920,0.576751
632.733980,0.578331
633.050000,0.592177
633.365980,0.582395
633.681920,0.577864
633.997820,0.581590
634.313680,0.580065
634.629500,0.578590
634.945280,0.585924
635.261020,0.591136
635.576720,0.584850
635.892380,0.591054
636.208000,0.581929
636.523580,0.591932
636.839120,0.590041
637.154620,0.592754
637.470080,0.583070
637.785500,0.595252
638.100880,0.597162
638.416220,0.593328
638.731520,0.581089
639.046780,0.583746
639.362000,0.587443
639.677180,0.585094
639.992320,0.586129
640.307420,0.590615
640.622480,0.593951
640.937500,0.589182
641.252480,0.598995
641.567420,0.598465
641.882320,0.597160
642.197180,0.605839
642.512000,0.602575
642.826780,0.590569
643.141520,0.601278
643.456220,0.595185
643.770880,0.590934
644.085500,0.591671
644.400080,0.596910
644.714620,0.591973
645.029120,0.596260
645.343580,0.597916
645.658000,0.602553
645.972380,0.605645
646.286720,0.602617
646.601020,0.603930
646.915280,0.603784
647.229500,0.604670
647.543680,0.605358
647.857820,0.603358
648.171920,0.598481
648.485980,0.600438
648.800000,0.596859
649.113980,0.598670
649.427920,0.605825
649.741820,0.599615
650.055680,0.605047
650.369500,0.610706
650.683280,0.600721
650.997020,0.608086
651.310720,0.601816
651.624380,0.601648
651.938000,0.607756
652.251580,0.611467
652.565120,0.601733
652.878620,0.608108
653.192080,0.603371
653.505500,0.598878
653.818880,0.615013
654.132220,0.609798
654.445520,0.604084
654.758780,0.602266
655.072000,0.608023
655.385180,0.604565
655.698320,0.607031
656.011420,0.607624
656.324480,0.603323
656.637500,0.604287
656.950480,0.614210
657.263420,0.611883
657.576320,0.608953
657.889180,0.607196
658.202000,0.616848
658.514780,0.612385
658.827520,0.613145
659.140220,0.610129
659.452880,0.614316
659.765500,0.603251
660.078080,0.602468
660.390620,0.608616
660.703120,0.617171
661.015580,0.615031
661.328000,0.614295
661.640380,0.607021
661.952720,0.607599
662.265020,0.617832
662.577280,0.615776
662.889500,0.608641
663.201680,0.620613
663.513820,0.611451
663.825920,0.617675
664.137980,0.615061
664.450000,0.611893
664.761980,0.610802
665.073920,0.606621
665.385820,0.617147
665.697680,0.616529
666.009500,0.622547
666.321280,0.629225
666.633020,0.618019
666.944720,0.618133
667.256380,0.617766
667.568000,0.618886
667.879580,0.629592
668.191120,0.622253
668.502620,0.612119
668.814080,0.621053
669.125500,0.616148
669.436880,0.616528
669.748220,0.611976
670.059520,0.622199
670.370780,0.617954
670.682000,0.625841
670.993180,0.627202
671.304320,0.617089
671.615420,0.622159
671.926480,0.628460
672.237500,0.618792
672.548480,0.621718
672.859420,0.618656
673.170320,0.626406
673.481180,0.629978
673.792000,0.621709
674.102780,0.620826
674.413520,0.630696
674.724220,0.623956
675.034880,0.629263
675.345500,0.633115
675.656080,0.623230
675.966620,0.622772
676.277120,0.634932
676.587580,0.622239
676.898000,0.627100
677.208380,0.624399
677.518720,0.625821
677.829020,0.624538
678.139280,0.634544
678.449500,0.623840
678.759680,0.626827
679.069820,0.628253
679.379920,0.635609
679.689980,0.633494
680.000000,0.625794
680.309980,0.632146
680.619920,0.632336
680.929820,0.618514
681.239680,0.623708
681.549500,0.630000
681.859280,0.626587
682.169020,0.631481
682.478720,0.634630
682.788380,0.626061
683.098000,0.633508
683.407580,0.635647
683.717120,0.630631
684.026620,0.628012
684.336080,0.633194
684.645500,0.624766
684.954880,0.634681
685.264220,0.634202
685.573520,0.637990
685.882780,0.635213
686.192000,0.621520
686.501180,0.634506
686.810320,0.639508
687.119420,0.634740
687.428480,0.624383
687.737500,0.636608
688.046480,0.640721
688.355420,0.638250
688.664320,0.638868
688.973180,0.638208
689.282000,0.639660
689.590780,0.635353
689.899520,0.633878
690.208220,0.644878
690.516880,0.648339
690.825500,0.630943
691.134080,0.636674
691.442620,0.636052
691.751120,0.631020
692.059580,0.636989
692.368000,0.636123
692.676380,0.644656
692.984720,0.629389
693.293020,0.635638
693.601280,0.630675
693.909500,0.636020
694.217680,0.637091
694.525820,0.648515
694.833920,0.638306
695.141980,0.644042
695.450000,0.640458
695.757980,0.632926
696.065920,0.643107
696.373820,0.644342
696.681680,0.629843
696.989500,0.639521
697.297280,0.627771
697.605020,0.651190
697.912720,0.636818
698.220380,0.636364
698.528000,0.643987
698.835580,0.634532
699.143120,0.627825
699.450620,0.639618
699.758080,0.629020
700.065500,0.649641
700.372880,0.646800
700.680220,0.643797
700.987520,0.639286
701.294780,0.640308
701.602000,0.638669
701.909180,0.641892
702.216320,0.641768
702.523420,0.655091
702.830480,0.643564
703.137500,0.647311
703.444480,0.651282
703.751420,0.650888
704.058320,0.657697
704.365180,0.646293
704.672000,0.640396
704.978780,0.643387
705.285520,0.644757
705.592220,0.640784
705.898880,0.645784
706.205500,0.659233
706.512080,0.648499
706.818620,0.647833
707.125120,0.646154
707.431580,0.647519
707.738000,0.644141
708.044380,0.644539
708.350720,0.645395
708.657020,0.658460
708.963280,0.651786
709.269500,0.645010
709.575680,0.653438
709.881820,0.649764
710.187920,0.652529
710.493980,0.647401
710.800000,0.643783
711.105980,0.641190
711.411920,0.644856
711.717820,0.649903
712.023680,0.639332
712.329500,0.657729
712.635280,0.655039
712.941020,0.650174
713.246720,0.647036
713.552380,0.656201
713.858000,0.652345
714.163580,0.655091
714.469120,0.639703
714.774620,0.655744
715.080080,0.658814
715.385500,0.659872
715.690880,0.653254
715.996220,0.651743
716.301520,0.654545
716.606780,0.640330
716.912000,0.658724
717.217180,0.659218
717.522320,0.656064
717.827420,0.660700
718.132480,0.649940
718.437500,0.651855
718.742480,0.660484
719.047420,0.649676
719.352320,0.650477
719.657180,0.647997
719.962000,0.651778
720.266780,0.661820
720.571520,0.644573
720.876220,0.649755
721.180880,0.648411
721.485500,0.649812
721.790080,0.657325
722.094620,0.657804
722.399120,0.660491
722.703580,0.651093
723.008000,0.658042
723.312380,0.658201
723.616720,0.649384
723.921020,0.651797
724.225280,0.649651
724.529500,0.650175
724.833680,0.653915
725.137820,0.643612
725.441920,0.646901
725.745980,0.657718
726.050000,0.654488
726.353980,0.653898
726.657920,0.651822
726.961820,0.667580
727.265680,0.668516
727.569500,0.654479
727.873280,0.657275
728.177020,0.655919
728.480720,0.652315
728.784380,0.658995
729.088000,0.659915
729.391580,0.655613
729.695120,0.657869
729.998620,0.655354
730.302080,0.663143
730.605500,0.664241
730.908880,0.651151
731.212220,0.646425
731.515520,0.648464
731.818780,0.647087
732.122000,0.664370
732.425180,0.651060
732.728320,0.649975
733.031420,0.652632
733.334480,0.651531
733.637500,0.653226
733.940480,0.655578
734.243420,0.645260
734.546320,0.659232
734.849180,0.649277
735.152000,0.656639
735.454780,0.661157
735.757520,0.653319
736.060220,0.662981
736.362880,0.662815
736.665500,0.644386
736.968080,0.650725
737.270620,0.664126
737.573120,0.654476
737.875580,0.663002
738.178000,0.657050
738.480380,0.645946
738.782720,0.652126
739.085020,0.652533
739.387280,0.657428
739.689500,0.661382
739.991680,0.654127
740.293820,0.651741
740.595920,0.659432
740.897980,0.660644
741.200000,0.660684
741.501980,0.665903
741.803920,0.659347
742.105820,0.654822
742.407680,0.666278
742.709500,0.662500
743.011280,0.664127
743.313020,0.668406
743.614720,0.652931
743.916380,0.656395
744.218000,0.662888
744.519580,0.652174
744.821120,0.664671
745.122620,0.678250
745.424080,0.659255
745.725500,0.652987
746.026880,0.650246
746.328220,0.668311
746.629520,0.645394
746.930780,0.651961
747.232000,0.656652
747.533180,0.657108
747.834320,0.660377
748.135420,0.652579
748.436480,0.655022
748.737500,0.657196
749.038480,0.656078
749.339420,0.664592
749.640320,0.678190
749.941180,0.665834
750.242000,0.639447
750.542780,0.649504
750.843520,0.660474
751.144220,0.650641
751.444880,0.657578
751.745500,0.661688
752.046080,0.672226
752.346620,0.661082
752.647120,0.649249
752.947580,0.649418
753.248000,0.644101
753.548380,0.655823
753.848720,0.658081
754.149020,0.645390
754.449280,0.659882
754.749500,0.660252
755.049680,0.659333
755.349820,0.651768
755.649920,0.672174
755.949980,0.656934
756.250000,0.659435
756.549980,0.651485
756.849920,0.664854
757.149820,0.637392
757.449680,0.656106
757.749500,0.668030
758.049280,0.670990
758.349020,0.648818
758.648720,0.655625
758.948380,0.660481
759.248000,0.653639
759.547580,0.667115
759.847120,0.655410
760.146620,0.671854
760.446080,0.671371
760.745500,0.665035
761.044880,0.656250
761.344220,0.661440
761.643520,0.659605
761.942780,0.659202
762.242000,0.666902
762.541180,0.647887
762.840320,0.656601
763.139420,0.651899
763.438480,0.656869
763.737500,0.660234
764.036480,0.663173
764.335420,0.663373
764.634320,0.669439
764.933180,0.644521
765.232000,0.659264
765.530780,0.663158
765.829520,0.656643
766.128220,0.670146
766.426880,0.656716
766.725500,0.663468
767.024080,0.659122
767.322620,0.668741
767.621120,0.658537
767.919580,0.657338
768.218000,0.669631
768.516380,0.672076
768.814720,0.655693
769.113020,0.658856
769.411280,0.652624
769.709500,0.656969
770.007680,0.660532
770.305820,0.661934
770.603920,0.650943
770.901980,0.661202
771.200000,0.659647
771.497980,0.654155
771.795920,0.654181
772.093820,0.657086
772.391680,0.662492
772.689500,0.654730
772.987280,0.663973
773.285020,0.662338
773.582720,0.667568
773.880380,0.664379
774.178000,0.663258
774.475580,0.661085
774.773120,0.666667
775.070620,0.676133
775.368080,0.674683
775.665500,0.653459
775.962880,0.661107
776.260220,0.662853
776.557520,0.664443
776.854780,0.661258
777.152000,0.655172
777.449180,0.663520
777.746320,0.643145
778.043420,0.671896
778.340480,0.656969
778.637500,0.663286
778.934480,0.670477
779.231420,0.656716
779.528320,0.653975
779.825180,0.653491
780.122000,0.649402
780.418780,0.677839
780.715520,0.663313
781.012220,0.683562
781.308880,0.676133
781.605500,0.653425
781.902080,0.668720
782.198620,0.662338
782.495120,0.670782
782.791580,0.667125
783.088000,0.663216
783.384380,0.670564
783.680720,0.659371
783.977020,0.646937
784.273280,0.658741
784.569500,0.667365
784.865680,0.666203
785.161820,0.656250
785.457920,0.662509
785.753980,0.653175
786.050000,0.658149
786.345980,0.661806
786.641920,0.650937
786.937820,0.668803
787.233680,0.665275
787.529500,0.656033
787.825280,0.663598
788.121020,0.667139
788.416720,0.647142
788.712380,0.636107
789.008000,0.659348
789.303580,0.664311
789.599120,0.670545
789.894620,0.666426
790.190080,0.664249
790.485500,0.647228
790.780880,0.648746
791.076220,0.660895
791.371520,0.655047
791.666780,0.665455
791.962000,0.658339
792.257180,0.674963
792.552320,0.667150
792.847420,0.654294
793.142480,0.657143
793.437500,0.659190
793.732480,0.662765
794.027420,0.666172
794.322320,0.660701
794.617180,0.650817
794.912000,0.665676
795.206780,0.653244
795.501520,0.675285
795.796220,0.660741
796.090880,0.657121
796.385500,0.655922
796.680080,0.670157
796.974620,0.658683
797.269120,0.651022
797.563580,0.667939
797.858000,0.677297
798.152380,0.674401
798.446720,0.666923
798.741020,0.655624
799.035280,0.665373
799.329500,0.658199
799.623680,0.669767
