399.985280,0.256757
400.329500,0.175676
400.673680,0.227848
401.017820,0.161765
401.361920,0.136364
401.705980,0.158537
402.050000,0.155844
402.393980,0.211765
402.737920,0.157303
403.081820,0.164948
403.425680,0.162791
403.769500,0.156250
404.113280,0.195402
404.457020,0.179775
404.800720,0.141304
405.144380,0.232323
405.488000,0.279570
405.831580,0.247423
406.175120,0.255319
406.518620,0.230000
406.862080,0.206186
407.205500,0.187500
407.548880,0.224490
407.892220,0.166667
408.235520,0.223404
408.578780,0.257143
408.922000,0.173077
409.265180,0.212121
409.608320,0.202020
409.951420,0.278351
410.294480,0.225490
410.637500,0.163043
410.980480,0.205882
411.323420,0.234694
411.666320,0.174312
412.009180,0.227273
412.352000,0.118812
412.694780,0.220183
413.037520,0.165138
413.380220,0.225225
413.722880,0.214286
414.065500,0.243243
414.408080,0.141593
414.750620,0.176991
415.093120,0.223140
415.435580,0.252101
415.778000,0.250000
416.120380,0.193277
416.462720,0.166667
416.805020,0.233083
417.147280,0.186567
417.489500,0.200000
417.831680,0.239726
418.173820,0.234043
418.515920,0.223776
418.857980,0.196203
419.200000,0.211538
419.541980,0.224852
419.883920,0.207865
420.225820,0.225434
420.567680,0.223464
420.909500,0.245902
421.251280,0.218750
421.593020,0.234694
421.934720,0.222222
422.276380,0.189744
422.618000,0.215686
422.959580,0.200980
423.301120,0.210046
423.642620,0.182609
423.984080,0.190698
424.325500,0.183857
424.666880,0.215517
425.008220,0.201681
425.349520,0.203390
425.690780,0.176923
426.032000,0.176471
426.373180,0.215768
426.714320,0.203125
427.055420,0.216216
427.396480,0.209738
427.737500,0.205534
428.078480,0.229249
428.419420,0.208835
428.760320,0.214559
429.101180,0.212598
429.442000,0.206897
429.782780,0.203846
430.123520,0.231373
430.464220,0.228782
430.804880,0.233716
431.145500,0.207273
431.486080,0.232210
431.826620,0.220930
432.167120,0.224265
432.507580,0.235507
432.848000,0.212230
433.188380,0.220217
433.528720,0.218868
433.869020,0.228571
434.209280,0.207018
434.549500,0.254355
434.889680,0.228956
435.229820,0.215017
435.569920,0.204152
435.909980,0.236246
436.250000,0.233898
436.589980,0.210526
436.929920,0.231746
437.269820,0.216301
437.609680,0.224852
437.949500,0.219880
438.289280,0.232295
438.629020,0.252907
438.968720,0.238372
439.308380,0.222222
439.648000,0.221918
439.987580,0.214286
440.327120,0.240000
440.666620,0.233766
441.006080,0.250639
441.345500,0.238329
441.684880,0.217703
442.024220,0.225806
442.363520,0.238095
442.702780,0.225000
443.042000,0.226872
443.381180,0.226293
443.720320,0.239741
444.059420,0.224790
444.398480,0.242678
444.737500,0.235656
445.076480,0.230159
445.415420,0.235529
445.754320,0.228690
446.093180,0.229358
446.432000,0.233083
446.770780,0.233397
447.109520,0.231618
447.448220,0.241503
447.786880,0.236136
448.125500,0.232759
448.464080,0.233929
448.802620,0.244681
449.141120,0.243945
449.479580,0.237762
449.818000,0.244406
450.156380,0.230769
450.494720,0.224793
450.833020,0.244755
451.171280,0.220890
451.509500,0.235192
451.847680,0.247892
452.185820,0.242685
452.523920,0.243986
452.861980,0.249578
453.200000,0.242525
453.537980,0.247059
453.875920,0.248739
454.213820,0.231164
454.551680,0.243377
454.889500,0.232715
455.227280,0.247331
455.565020,0.249581
455.902720,0.247920
456.240380,0.247920
456.578000,0.256098
456.915580,0.260794
457.253120,0.263158
457.590620,0.264368
457.928080,0.260943
458.265500,0.251689
458.602880,0.243506
458.940220,0.252115
459.277520,0.252800
459.614780,0.274959
459.952000,0.246894
460.289180,0.270570
460.626320,0.251969
460.963420,0.256866
461.300480,0.258410
461.637500,0.266564
461.974480,0.256881
462.311420,0.268256
462.648320,0.260615
462.985180,0.258250
463.322000,0.257440
463.658780,0.262431
463.995520,0.261348
464.332220,0.261773
464.668880,0.264785
465.005500,0.268097
465.342080,0.271447
465.678620,0.261993
466.015120,0.262613
466.351580,0.278129
466.688000,0.271620
467.024380,0.263670
467.360720,0.269318
467.697020,0.277904
468.033280,0.284444
468.369500,0.275938
468.705680,0.277339
469.041820,0.272917
469.377920,0.268980
469.713980,0.268795
470.050000,0.268599
470.385980,0.271037
470.721920,0.274241
471.057820,0.275828
471.393680,0.280636
471.729500,0.268767
472.065280,0.272809
472.401020,0.267730
472.736720,0.275742
473.072380,0.282765
473.408000,0.277633
473.743580,0.277682
474.079120,0.277347
474.414620,0.275657
474.750080,0.279902
475.085500,0.277138
475.420880,0.275604
475.756220,0.276370
476.091520,0.282182
476.426780,0.287217
476.762000,0.271923
477.097180,0.288000
477.432320,0.292407
477.767420,0.285131
478.102480,0.292126
478.437500,0.288177
478.772480,0.284476
479.107420,0.279902
479.442320,0.282174
479.777180,0.288783
480.112000,0.281202
480.446780,0.272798
480.781520,0.284219
481.116220,0.288601
481.450880,0.283372
481.785500,0.291930
482.120080,0.300157
482.454620,0.292152
482.789120,0.293790
483.123580,0.294393
483.458000,0.297468
483.792380,0.298722
484.126720,0.294208
484.461020,0.294301
484.795280,0.292213
485.129500,0.301637
485.463680,0.305426
485.797820,0.311042
486.131920,0.289977
486.465980,0.304247
486.800000,0.304580
487.133980,0.293051
487.467920,0.303749
487.801820,0.306636
488.135680,0.318423
488.469500,0.304841
488.803280,0.312779
489.137020,0.304029
489.470720,0.307864
489.804380,0.308834
490.138000,0.319733
490.471580,0.313928
490.805120,0.310936
491.138620,0.316986
491.472080,0.309541
491.805500,0.310321
492.138880,0.319666
492.472220,0.323183
492.805520,0.326816
493.138780,0.313577
493.472000,0.323746
493.805180,0.321965
494.138320,0.321548
494.471420,0.316406
494.804480,0.318887
495.137500,0.313864
495.470480,0.321861
495.803420,0.315491
496.136320,0.318296
496.469180,0.329650
496.802000,0.320293
497.134780,0.332929
497.467520,0.332110
497.800220,0.327830
498.132880,0.328630
498.465500,0.327926
498.798080,0.331621
499.130620,0.328467
499.463120,0.329590
499.795580,0.327833
500.128000,0.328065
500.460380,0.336921
500.792720,0.335631
501.125020,0.334209
501.457280,0.336292
501.789500,0.331612
502.121680,0.344738
502.453820,0.344722
502.785920,0.340170
503.117980,0.342002
503.450000,0.342039
503.781980,0.348779
504.113920,0.335230
504.445820,0.334468
504.777680,0.337882
505.109500,0.345673
505.441280,0.342734
505.773020,0.338657
506.104720,0.337259
506.436380,0.344061
506.768000,0.343312
507.099580,0.335011
507.431120,0.336300
507.762620,0.344925
508.094080,0.349134
508.425500,0.347339
508.756880,0.347051
509.088220,0.355566
509.419520,0.356611
509.750780,0.355201
510.082000,0.351213
510.413180,0.354215
510.744320,0.354809
511.075420,0.355179
511.406480,0.358721
511.737500,0.349074
512.068480,0.352914
512.399420,0.356808
512.730320,0.354734
513.061180,0.355376
513.392000,0.357785
513.722780,0.354947
514.053520,0.354576
514.384220,0.360133
514.714880,0.362853
515.045500,0.356801
515.376080,0.357869
515.706620,0.365319
516.037120,0.367157
516.367580,0.357319
516.698000,0.359804
517.028380,0.361470
517.358720,0.366914
517.689020,0.366963
518.019280,0.372805
518.349500,0.361379
518.679680,0.369510
519.009820,0.369939
519.339920,0.379760
519.669980,0.378202
520.000000,0.369333
520.329980,0.375842
520.659920,0.370654
520.989820,0.374097
521.319680,0.377058
521.649500,0.378406
521.979280,0.385699
522.309020,0.387448
522.638720,0.377368
522.968380,0.381075
523.298000,0.367432
523.627580,0.376617
523.957120,0.381818
524.286620,0.389265
524.616080,0.383661
524.945500,0.379328
525.274880,0.391483
525.604220,0.391304
525.933520,0.384696
526.262780,0.374050
526.592000,0.389650
526.921180,0.395124
527.250320,0.389650
527.579420,0.388075
527.908480,0.394387
528.237500,0.402185
528.566480,0.390220
528.895420,0.389847
529.224320,0.398217
529.553180,0.399036
529.882000,0.400487
530.210780,0.406371
530.539520,0.397891
530.868220,0.403064
531.196880,0.398949
531.525500,0.403390
531.854080,0.400094
532.182620,0.400747
532.511120,0.397216
532.839580,0.410163
533.168000,0.408842
533.496380,0.404110
533.824720,0.410498
534.153020,0.412840
534.481280,0.406608
534.809500,0.414688
535.137680,0.410590
535.465820,0.409794
535.793920,0.403553
536.121980,0.415862
536.450000,0.424101
536.777980,0.416841
537.105920,0.418846
537.433820,0.406301
537.761680,0.423265
538.089500,0.413598
538.417280,0.417031
538.745020,0.422742
539.072720,0.419367
539.400380,0.417638
539.728000,0.417208
540.055580,0.414607
540.383120,0.418466
540.710620,0.423735
541.038080,0.417927
541.365500,0.427574
541.692880,0.426235
542.020220,0.426772
542.347520,0.427495
542.674780,0.423430
543.002000,0.422673
543.329180,0.431778
543.656320,0.437412
543.983420,0.423932
544.310480,0.429494
544.637500,0.435687
544.964480,0.429341
545.291420,0.434364
545.618320,0.428287
545.945180,0.431773
546.272000,0.427588
546.598780,0.432973
546.925520,0.436531
547.252220,0.434467
547.578880,0.433040
547.905500,0.435621
548.232080,0.435673
548.558620,0.434103
548.885120,0.444881
549.211580,0.439409
549.538000,0.441958
549.864380,0.439871
550.190720,0.442364
550.517020,0.436767
550.843280,0.448534
551.169500,0.438931
551.495680,0.444809
551.821820,0.442521
552.147920,0.448926
552.473980,0.448798
552.800000,0.444081
553.125980,0.448265
553.451920,0.445919
553.777820,0.452698
554.103680,0.449949
554.429500,0.446267
554.755280,0.450601
555.081020,0.447527
555.406720,0.448696
555.732380,0.450017
556.058000,0.461982
556.383580,0.451900
556.709120,0.454170
557.034620,0.454358
557.360080,0.457340
557.685500,0.458852
558.010880,0.460312
558.336220,0.456942
558.661520,0.462602
558.986780,0.458186
559.312000,0.455128
559.637180,0.454937
559.962320,0.454610
560.287420,0.471791
560.612480,0.465734
560.937500,0.462188
561.262480,0.468842
561.587420,0.463185
561.912320,0.465733
562.237180,0.465581
562.562000,0.463150
562.886780,0.467856
563.211520,0.465723
563.536220,0.463822
563.860880,0.471520
564.185500,0.475797
564.510080,0.474417
564.834620,0.464086
565.159120,0.474436
565.483580,0.471304
565.808000,0.466515
566.132380,0.476688
566.456720,0.482237
566.781020,0.471868
567.105280,0.474480
567.429500,0.468892
567.753680,0.480629
568.077820,0.475068
568.401920,0.487013
568.725980,0.484630
569.050000,0.478327
569.373980,0.478112
569.697920,0.483883
570.021820,0.486517
570.345680,0.479143
570.669500,0.473483
570.993280,0.478036
571.317020,0.483376
571.640720,0.487217
571.964380,0.484410
572.288000,0.480712
572.611580,0.492325
572.935120,0.493453
573.258620,0.490277
573.582080,0.491058
573.905500,0.491437
574.228880,0.501485
574.552220,0.494320
574.875520,0.489948
575.198780,0.484640
575.522000,0.486070
575.845180,0.488181
576.168320,0.487963
576.491420,0.501817
576.814480,0.492948
577.137500,0.493867
577.460480,0.502356
577.783420,0.501608
578.106320,0.502849
578.429180,0.495581
578.752000,0.500868
579.074780,0.501011
579.397520,0.506133
579.720220,0.503218
580.042880,0.505451
580.365500,0.505956
580.688080,0.499661
581.010620,0.506244
581.333120,0.505678
581.655580,0.505828
581.978000,0.517459
582.300380,0.509575
582.622720,0.507910
582.945020,0.505202
583.267280,0.509280
583.589500,0.511396
583.911680,0.506192
584.233820,0.503935
584.555920,0.516861
584.877980,0.517274
585.200000,0.503376
585.521980,0.514365
585.843920,0.510982
586.165820,0.508836
586.487680,0.514294
586.809500,0.506751
587.131280,0.511387
587.453020,0.526786
587.774720,0.516854
588.096380,0.519253
588.418000,0.521510
588.739580,0.519115
589.061120,0.528465
589.382620,0.520057
589.704080,0.518093
590.025500,0.523402
590.346880,0.519674
590.668220,0.525063
590.989520,0.523017
591.310780,0.523336
591.632000,0.527869
591.953180,0.531138
592.274320,0.524434
592.595420,0.524784
592.916480,0.529747
593.237500,0.530315
593.558480,0.531342
593.879420,0.531967
594.200320,0.533887
594.521180,0.534661
594.842000,0.532509
595.162780,0.535256
595.483520,0.531242
595.804220,0.536788
596.124880,0.531308
596.445500,0.527116
596.766080,0.541006
597.086620,0.541136
597.407120,0.524750
597.727580,0.537523
598.048000,0.539011
598.368380,0.536823
598.688720,0.532372
599.009020,0.538217
599.329280,0.539117
599.649500,0.542525
599.969680,0.544071
600.289820,0.542735
600.609920,0.537804
600.929980,0.543827
601.250000,0.541892
601.569980,0.543073
601.889920,0.539161
602.209820,0.535985
602.529680,0.545729
602.849500,0.543917
603.169280,0.549738
603.489020,0.541378
603.808720,0.547175
604.128380,0.552980
604.448000,0.545580
604.767580,0.548883
605.087120,0.540166
605.406620,0.545480
605.726080,0.551754
606.045500,0.538590
606.364880,0.546357
606.684220,0.549971
607.003520,0.544725
607.322780,0.545765
607.642000,0.549971
607.961180,0.552761
608.280320,0.551624
608.599420,0.543453
608.918480,0.548680
609.237500,0.546948
609.556480,0.553122
609.875420,0.552569
610.194320,0.553292
610.513180,0.553714
610.832000,0.552412
611.150780,0.561430
611.469520,0.561689
611.788220,0.560157
612.106880,0.555187
612.425500,0.557247
612.744080,0.566020
613.062620,0.553211
613.381120,0.557892
613.699580,0.562538
614.018000,0.557740
614.336380,0.558297
614.654720,0.566512
614.973020,0.560012
615.291280,0.557794
615.609500,0.566403
615.927680,0.563968
616.245820,0.562152
616.563920,0.559217
616.881980,0.565638
617.200000,0.560498
617.517980,0.564095
617.835920,0.555763
618.153820,0.556730
618.471680,0.564961
618.789500,0.564506
619.107280,0.577465
619.425020,0.567079
619.742720,0.567169
620.060380,0.565027
620.378000,0.572687
620.695580,0.565134
621.013120,0.565354
621.330620,0.568560
621.648080,0.558675
621.965500,0.571205
622.282880,0.571564
622.600220,0.564435
622.917520,0.575299
623.234780,0.585342
623.552000,0.576384
623.869180,0.570123
624.186320,0.575613
624.503420,0.575549
624.820480,0.575872
625.137500,0.581939
625.454480,0.567052
625.771420,0.578815
626.088320,0.573140
626.405180,0.578407
626.722000,0.580615
627.038780,0.570175
627.355520,0.583125
627.672220,0.583204
627.988880,0.571073
628.305500,0.579931
628.622080,0.592627
628.938620,0.575841
629.255120,0.582452
629.571580,0.570641
629.888000,0.583615
630.204380,0.583308
630.520720,0.583181
630.837020,0.579402
631.153280,0.580635
631.469500,0.587629
631.785680,0.585895
632.101820,0.581423
632.417920,0.582414
632.733980,0.586735
633.050000,0.593996
633.365980,0.591879
633.681920,0.587709
633.997820,0.586372
634.313680,0.589207
634.629500,0.588322
634.945280,0.595601
635.261020,0.594365
635.576720,0.598649
635.892380,0.589312
636.208000,0.586287
636.523580,0.593978
636.839120,0.595541
637.154620,0.595362
637.470080,0.589383
637.785500,0.600528
638.100880,0.598900
638.416220,0.605982
638.731520,0.587393
639.046780,0.588407
639.362000,0.597477
639.677180,0.590805
639.992320,0.594023
640.307420,0.598764
640.622480,0.591431
640.937500,0.591123
641.252480,0.597040
641.567420,0.599034
641.882320,0.599666
642.197180,0.603313
642.512000,0.594738
642.826780,0.598336
643.141520,0.598777
643.456220,0.598783
643.770880,0.607794
644.085500,0.602571
644.400080,0.610112
644.714620,0.600334
645.029120,0.608086
645.343580,0.603950
645.658000,0.600611
645.972380,0.602631
646.286720,0.603707
646.601020,0.613617
646.915280,0.614478
647.229500,0.605220
647.543680,0.599834
647.857820,0.602257
648.171920,0.601736
648.485980,0.606742
648.800000,0.604023
649.113980,0.607816
649.427920,0.611096
649.741820,0.597417
650.055680,0.602030
650.369500,0.614350
650.683280,0.604051
650.997020,0.602860
651.310720,0.608145
651.624380,0.603022
651.938000,0.611080
652.251580,0.608405
652.565120,0.602012
652.878620,0.613457
653.192080,0.607584
653.505500,0.612062
653.818880,0.621552
654.132220,0.611222
654.445520,0.609472
654.758780,0.603683
655.072000,0.606304
655.385180,0.606277
655.698320,0.610746
656.011420,0.609057
656.324480,0.603614
656.637500,0.603418
656.950480,0.616853
657.263420,0.610109
657.576320,0.605099
657.889180,0.612799
658.202000,0.618357
658.514780,0.610598
658.827520,0.615846
659.140220,0.611927
659.452880,0.622169
659.765500,0.607164
660.078080,0.602468
660.390620,0.606477
660.703120,0.623892
661.015580,0.619939
661.328000,0.619647
661.640380,0.622554
661.952720,0.618187
662.265020,0.623503
662.577280,0.612277
662.889500,0.620624
663.201680,0.623484
663.513820,0.609842
663.825920,0.619597
664.137980,0.621526
664.450000,0.617008
664.761980,0.613748
665.073920,0.618955
665.385820,0.621073
665.697680,0.619174
666.009500,0.623545
666.321280,0.625580
666.633020,0.622008
666.944720,0.619481
667.256380,0.620121
667.568000,0.617867
667.879580,0.621429
668.191120,0.623626
668.502620,0.620336
668.814080,0.633684
669.125500,0.623332
669.436880,0.624136
669.748220,0.618899
670.059520,0.630252
670.370780,0.613431
670.682000,0.631150
670.993180,0.631431
671.304320,0.618847
671.615420,0.620739
671.926480,0.621008
672.237500,0.623080
672.548480,0.620653
672.859420,0.629378
673.170320,0.631483
673.481180,0.632875
673.792000,0.621709
674.102780,0.620108
674.413520,0.632519
674.724220,0.630490
675.034880,0.629996
675.345500,0.623268
675.656080,0.622142
675.966620,0.627501
676.277120,0.639326
676.587580,0.628866
676.898000,0.626726
677.208380,0.635120
677.518720,0.625821
677.829020,0.628603
678.139280,0.629726
678.449500,0.626810
678.759680,0.630948
679.069820,0.620446
679.379920,0.631083
679.689980,0.629038
680.000000,0.629159
680.309980,0.628062
680.619920,0.629686
680.929820,0.636058
681.239680,0.633309
681.549500,0.620370
681.859280,0.631441
682.169020,0.628124
682.478720,0.638369
682.788380,0.624585
683.098000,0.630142
683.407580,0.632645
683.717120,0.634760
684.026620,0.628012
684.336080,0.633194
684.645500,0.629256
684.954880,0.640348
685.264220,0.629672
685.573520,0.639132
685.882780,0.639049
686.192000,0.631678
686.501180,0.631858
686.810320,0.634128
687.119420,0.637780
687.428480,0.643373
687.737500,0.635457
688.046480,0.633052
688.355420,0.625047
688.664320,0.633512
688.973180,0.639740
689.282000,0.640432
689.590780,0.637270
689.899520,0.624383
690.208220,0.634557
690.516880,0.636121
690.825500,0.641887
691.134080,0.632498
691.442620,0.633003
691.751120,0.636708
692.059580,0.644249
692.368000,0.642181
692.676380,0.650763
692.984720,0.640840
693.293020,0.641717
693.601280,0.637543
693.909500,0.642452
694.217680,0.639756
694.525820,0.638233
694.833920,0.639832
695.141980,0.643270
695.450000,0.644275
695.757980,0.646295
696.065920,0.648155
696.373820,0.639338
696.681680,0.632528
696.989500,0.635276
697.297280,0.640996
697.605020,0.651984
697.912720,0.636434
698.220380,0.641086
698.528000,0.647152
698.835580,0.653892
699.143120,0.635230
699.450620,0.646380
699.758080,0.632549
700.065500,0.652035
700.372880,0.639600
700.680220,0.646191
700.987520,0.648016
701.294780,0.647202
701.602000,0.643423
701.909180,0.651033
702.216320,0.650372
702.523420,0.642857
702.830480,0.643960
703.137500,0.646532
703.444480,0.649310
703.751420,0.651677
704.058320,0.641076
704.365180,0.646688
704.672000,0.652673
704.978780,0.636364
705.285520,0.644366
705.592220,0.637647
705.898880,0.644208
706.205500,0.651017
706.512080,0.654423
706.818620,0.639319
707.125120,0.642692
707.431580,0.646346
707.738000,0.648437
708.044380,0.646469
708.350720,0.639282
708.657020,0.649082
708.963280,0.653727
709.269500,0.650881
709.575680,0.650295
709.881820,0.655660
710.187920,0.652140
710.493980,0.650116
710.800000,0.635011
711.105980,0.635919
711.411920,0.649980
711.717820,0.643665
712.023680,0.645550
712.329500,0.659700
712.635280,0.658140
712.941020,0.649401
713.246720,0.652569
713.552380,0.648352
713.858000,0.649586
714.163580,0.649171
714.469120,0.643611
714.774620,0.658508
715.080080,0.654103
715.385500,0.650280
715.690880,0.654043
715.996220,0.647781
716.301520,0.648221
716.606780,0.651336
716.912000,0.656300
717.217180,0.659218
717.522320,0.649702
717.827420,0.659072
718.132480,0.653553
718.437500,0.657970
718.742480,0.646371
719.047420,0.651699
719.352320,0.650477
719.657180,0.654129
719.962000,0.660877
720.266780,0.645201
720.571520,0.654930
720.876220,0.652619
721.180880,0.651756
721.485500,0.649394
721.790080,0.648408
722.094620,0.665952
722.399120,0.660922
722.703580,0.654522
723.008000,0.656317
723.312380,0.660353
723.616720,0.645984
723.921020,0.651797
724.225280,0.646597
724.529500,0.656743
724.833680,0.653470
725.137820,0.640529
725.441920,0.651806
725.745980,0.650112
726.050000,0.662607
726.353980,0.654349
726.657920,0.649573
726.961820,0.652055
727.265680,0.657883
727.569500,0.651737
727.873280,0.651270
728.177020,0.660986
728.480720,0.654167
728.784380,0.658055
729.088000,0.666981
729.391580,0.657982
729.695120,0.663148
729.998620,0.658222
730.302080,0.654493
730.605500,0.657448
730.908880,0.650171
731.212220,0.653771
731.515520,0.650902
731.818780,0.664563
732.122000,0.659941
732.425180,0.655495
732.728320,0.658404
733.031420,0.642105
733.334480,0.654082
733.637500,0.655746
733.940480,0.656090
734.243420,0.658512
734.546320,0.649896
734.849180,0.650310
735.152000,0.662344
735.454780,0.657025
735.757520,0.654373
736.060220,0.649289
736.362880,0.663340
736.665500,0.647520
736.968080,0.668458
737.270620,0.665215
737.573120,0.661026
737.875580,0.667949
738.178000,0.657594
738.480380,0.651892
738.782720,0.643402
739.085020,0.650881
739.387280,0.659091
739.689500,0.669875
739.991680,0.654688
740.293820,0.650636
740.595920,0.660545
740.897980,0.656691
741.200000,0.656197
741.501980,0.667049
741.803920,0.658221
742.105820,0.654258
742.407680,0.660454
742.709500,0.642045
743.011280,0.662368
743.313020,0.663188
743.614720,0.659896
743.916380,0.653488
744.218000,0.658711
744.519580,0.659420
744.821120,0.664671
745.122620,0.657280
745.424080,0.638822
745.725500,0.665057
746.026880,0.655788
746.328220,0.663379
746.629520,0.639374
746.930780,0.656250
747.232000,0.660944
747.533180,0.657718
747.834320,0.658551
748.135420,0.655065
748.436480,0.661260
748.737500,0.651637
749.038480,0.654246
749.339420,0.654636
749.640320,0.667505
749.941180,0.648969
750.242000,0.651382
750.542780,0.646402
750.843520,0.659833
751.144220,0.658333
751.444880,0.652505
751.745500,0.655844
752.046080,0.667094
752.346620,0.644974
752.647120,0.663619
752.947580,0.651358
753.248000,0.662798
753.548380,0.658426
753.848720,0.649710
754.149020,0.645390
754.449280,0.657255
754.749500,0.649635
755.049680,0.652000
755.349820,0.655771
755.649920,0.656312
755.949980,0.654944
756.250000,0.654175
756.549980,0.645545
756.849920,0.660775
757.149820,0.646707
757.449680,0.644884
757.749500,0.658487
758.049280,0.654608
758.349020,0.654381
758.648720,0.663216
758.948380,0.653608
759.248000,0.657682
759.547580,0.661735
759.847120,0.658167
760.146620,0.660352
760.446080,0.658602
760.745500,0.668531
761.044880,0.668324
761.344220,0.660727
761.643520,0.649011
761.942780,0.657103
762.242000,0.659123
762.541180,0.645775
762.840320,0.655899
763.139420,0.656821
763.438480,0.658920
763.737500,0.660924
764.036480,0.656883
764.335420,0.658433
764.634320,0.653500
764.933180,0.652055
765.232000,0.666204
765.530780,0.656140
765.829520,0.664336
766.128220,0.661795
766.426880,0.657427
766.725500,0.653873
767.024080,0.652263
767.322620,0.660443
767.621120,0.652439
767.919580,0.670307
768.218000,0.645691
768.516380,0.668019
768.814720,0.658436
769.113020,0.667815
769.411280,0.666436
769.709500,0.659675
770.007680,0.659850
770.305820,0.659229
770.603920,0.646900
770.901980,0.664617
771.200000,0.650815
771.497980,0.648794
771.795920,0.646154
772.093820,0.646390
772.391680,0.651945
772.689500,0.654730
772.987280,0.650505
773.285020,0.652085
773.582720,0.664865
773.880380,0.663693
774.178000,0.658487
774.475580,0.665104
774.773120,0.647925
775.070620,0.663962
775.368080,0.666667
775.665500,0.640027
775.962880,0.657772
776.260220,0.662180
776.557520,0.659773
776.854780,0.663286
777.152000,0.651857
777.449180,0.659474
777.746320,0.653226
778.043420,0.656889
778.340480,0.668471
778.637500,0.665991
778.934480,0.651648
779.231420,0.656038
779.528320,0.654643
779.825180,0.650856
780.122000,0.655378
780.418780,0.660055
780.715520,0.659289
781.012220,0.658219
781.308880,0.653144
781.605500,0.649315
781.902080,0.657084
782.198620,0.663705
782.495120,0.655007
782.791580,0.666437
783.088000,0.657695
783.384380,0.665062
783.680720,0.653215
783.977020,0.655884
784.273280,0.669930
784.569500,0.658281
784.865680,0.657163
785.161820,0.661806
785.457920,0.655579
785.753980,0.672715
786.050000,0.656077
786.345980,0.664583
786.641920,0.657183
786.937820,0.679487
787.233680,0.645790
787.529500,0.653259
787.825280,0.655807
788.121020,0.665014
788.416720,0.642202
788.712380,0.661495
789.008000,0.662181
789.303580,0.649470
789.599120,0.667636
789.894620,0.664982
790.190080,0.661349
790.485500,0.655868
790.780880,0.658781
791.076220,0.659452
791.371520,0.660131
791.666780,0.667636
791.962000,0.660544
792.257180,0.647877
792.552320,0.663524
792.847420,0.668850
793.142480,0.653480
793.437500,0.654124
793.732480,0.663497
794.027420,0.660979
794.322320,0.652498
794.617180,0.655275
794.912000,0.660475
795.206780,0.654735
795.501520,0.672243
795.796220,0.643704
796.090880,0.669179
796.385500,0.652174
796.680080,0.645475
796.974620,0.661677
797.269120,0.643452
797.563580,0.661832
797.858000,0.670463
798.152380,0.658159
798.446720,0.651538
798.741020,0.658706
799.035280,0.665373
799.329500,0.657429
799.623680,0.660465
