399.985280,0.243243
400.329500,0.189189
400.673680,0.240506
401.017820,0.191176
401.361920,0.166667
401.705980,0.134146
402.050000,0.220779
402.393980,0.258824
402.737920,0.213483
403.081820,0.247423
403.425680,0.220930
403.769500,0.177083
404.113280,0.172414
404.457020,0.224719
404.800720,0.206522
405.144380,0.242424
405.488000,0.204301
405.831580,0.195876
406.175120,0.170213
406.518620,0.230000
406.862080,0.257732
407.205500,0.187500
407.548880,0.214286
407.892220,0.205882
408.235520,0.202128
408.578780,0.285714
408.922000,0.192308
409.265180,0.232323
409.608320,0.202020
409.951420,0.175258
410.294480,0.225490
410.637500,0.184783
410.980480,0.245098
411.323420,0.173469
411.666320,0.220183
412.009180,0.254545
412.352000,0.237624
412.694780,0.238532
413.037520,0.183486
413.380220,0.225225
413.722880,0.187500
414.065500,0.189189
414.408080,0.185841
414.750620,0.238938
415.093120,0.206612
415.435580,0.243697
415.778000,0.265152
416.120380,0.201681
416.462720,0.190476
416.805020,0.210526
417.147280,0.223881
417.489500,0.228571
417.831680,0.171233
418.173820,0.212766
418.515920,0.237762
418.857980,0.221519
419.200000,0.237179
419.541980,0.213018
419.883920,0.280899
420.225820,0.213873
420.567680,0.256983
420.909500,0.224044
421.251280,0.234375
421.593020,0.265306
421.934720,0.227273
422.276380,0.235897
422.618000,0.245098
422.959580,0.245098
423.301120,0.228311
423.642620,0.213043
423.984080,0.223256
424.325500,0.219731
424.666880,0.228448
425.008220,0.210084
425.349520,0.194915
425.690780,0.192308
426.032000,0.227451
426.373180,0.232365
426.714320,0.226562
427.055420,0.204633
427.396480,0.209738
427.737500,0.225296
428.078480,0.241107
428.419420,0.232932
428.760320,0.210728
429.101180,0.248031
429.442000,0.264368
429.782780,0.219231
430.123520,0.258824
430.464220,0.236162
430.804880,0.256705
431.145500,0.203636
431.486080,0.243446
431.826620,0.228682
432.167120,0.224265
432.507580,0.242754
432.848000,0.241007
433.188380,0.238267
433.528720,0.241509
433.869020,0.239286
434.209280,0.221053
434.549500,0.222997
434.889680,0.262626
435.229820,0.228669
435.569920,0.224913
435.909980,0.245955
436.250000,0.257627
436.589980,0.219814
436.929920,0.253968
437.269820,0.219436
437.609680,0.263314
437.949500,0.265060
438.289280,0.249292
438.629020,0.244186
438.968720,0.264535
439.308380,0.243902
439.648000,0.257534
439.987580,0.253968
440.327120,0.269333
440.666620,0.249351
441.006080,0.250639
441.345500,0.267813
441.684880,0.241627
442.024220,0.233251
442.363520,0.252381
442.702780,0.238636
443.042000,0.244493
443.381180,0.269397
443.720320,0.269978
444.059420,0.241597
444.398480,0.246862
444.737500,0.258197
445.076480,0.244048
445.415420,0.259481
445.754320,0.232848
446.093180,0.238532
446.432000,0.261278
446.770780,0.263757
447.109520,0.257353
447.448220,0.262970
447.786880,0.266547
448.125500,0.256897
448.464080,0.244643
448.802620,0.264184
449.141120,0.250865
449.479580,0.258741
449.818000,0.266781
450.156380,0.250836
450.494720,0.247934
450.833020,0.263986
451.171280,0.251712
451.509500,0.252613
451.847680,0.269815
452.185820,0.259897
452.523920,0.259450
452.861980,0.269815
453.200000,0.270764
453.537980,0.267227
453.875920,0.270588
454.213820,0.255137
454.551680,0.263245
454.889500,0.271501
455.227280,0.252669
455.565020,0.264657
455.902720,0.272879
456.240380,0.269551
456.578000,0.273519
456.915580,0.274611
457.253120,0.273026
457.590620,0.282430
457.928080,0.286195
458.265500,0.282095
458.602880,0.284091
458.940220,0.280880
459.277520,0.272000
459.614780,0.266776
459.952000,0.265528
460.289180,0.276899
460.626320,0.280315
460.963420,0.287561
461.300480,0.296636
461.637500,0.275809
461.974480,0.290520
462.311420,0.275708
462.648320,0.276720
462.985180,0.279770
463.322000,0.288690
463.658780,0.273481
463.995520,0.280605
464.332220,0.277008
464.668880,0.279570
465.005500,0.285523
465.342080,0.275288
465.678620,0.281673
466.015120,0.294955
466.351580,0.281922
466.688000,0.277710
467.024380,0.279465
467.360720,0.280682
467.697020,0.281321
468.033280,0.294444
468.369500,0.295806
468.705680,0.297632
469.041820,0.292708
469.377920,0.288503
469.713980,0.295572
470.050000,0.291787
470.385980,0.296477
470.721920,0.291871
471.057820,0.300195
471.393680,0.296539
471.729500,0.297498
472.065280,0.293381
472.401020,0.296986
472.736720,0.292321
473.072380,0.307002
473.408000,0.298520
473.743580,0.299308
474.079120,0.296296
474.414620,0.301103
474.750080,0.293735
475.085500,0.308388
475.420880,0.298085
475.756220,0.301717
476.091520,0.308610
476.426780,0.300162
476.762000,0.296862
477.097180,0.308000
477.432320,0.306139
477.767420,0.300654
478.102480,0.296850
478.437500,0.293103
478.772480,0.310481
479.107420,0.310822
479.442320,0.306954
479.777180,0.311854
480.112000,0.305855
480.446780,0.300078
480.781520,0.309179
481.116220,0.307195
481.450880,0.308353
481.785500,0.316456
482.120080,0.318182
482.454620,0.314685
482.789120,0.318471
483.123580,0.318536
483.458000,0.318038
483.792380,0.317093
484.126720,0.311197
484.461020,0.311475
484.795280,0.317656
485.129500,0.324240
485.463680,0.320930
485.797820,0.321151
486.131920,0.319816
486.465980,0.319691
486.800000,0.319847
487.133980,0.322508
487.467920,0.323642
487.801820,0.331808
488.135680,0.325246
488.469500,0.323752
488.803280,0.330609
489.137020,0.326740
489.470720,0.328635
489.804380,0.327394
490.138000,0.336795
490.471580,0.329403
490.805120,0.326662
491.138620,0.335466
491.472080,0.331449
491.805500,0.332636
492.138880,0.330090
492.472220,0.330104
492.805520,0.350559
493.138780,0.343212
493.472000,0.335117
493.805180,0.345157
494.138320,0.346898
494.471420,0.343750
494.804480,0.335705
495.137500,0.343389
495.470480,0.347992
495.803420,0.347607
496.136320,0.350877
496.469180,0.340700
496.802000,0.339242
497.134780,0.346877
497.467520,0.354128
497.800220,0.353184
498.132880,0.353909
498.465500,0.356895
498.798080,0.342466
499.130620,0.348119
499.463120,0.350365
499.795580,0.345435
500.128000,0.353678
500.460380,0.348762
500.792720,0.346766
501.125020,0.351550
501.457280,0.362924
501.789500,0.361570
502.121680,0.359772
502.453820,0.355941
502.785920,0.354677
503.117980,0.353288
503.450000,0.369161
503.781980,0.367215
504.113920,0.361309
504.445820,0.361206
504.777680,0.355294
505.109500,0.356250
505.441280,0.365201
505.773020,0.359793
506.104720,0.359397
506.436380,0.372929
506.768000,0.365295
507.099580,0.358352
507.431120,0.370492
507.762620,0.365602
508.094080,0.360985
508.425500,0.366947
508.756880,0.362597
509.088220,0.372585
509.419520,0.367784
509.750780,0.373477
510.082000,0.370336
510.413180,0.373561
510.744320,0.378279
511.075420,0.371219
511.406480,0.378937
511.737500,0.365741
512.068480,0.377820
512.399420,0.375117
512.730320,0.375982
513.061180,0.376784
513.392000,0.378609
513.722780,0.382805
514.053520,0.383325
514.384220,0.380590
514.714880,0.384873
515.045500,0.369732
515.376080,0.387893
515.706620,0.384803
516.037120,0.391667
516.367580,0.381469
516.698000,0.383824
517.028380,0.395233
517.358720,0.393086
517.689020,0.384768
518.019280,0.387858
518.349500,0.386214
518.679680,0.390712
519.009820,0.389676
519.339920,0.393788
519.669980,0.394776
520.000000,0.394804
520.329980,0.393468
520.659920,0.405930
520.989820,0.393189
521.319680,0.397119
521.649500,0.390746
521.979280,0.400313
522.309020,0.394191
522.638720,0.390681
522.968380,0.399173
523.298000,0.396138
523.627580,0.405070
523.957120,0.397403
524.286620,0.396040
524.616080,0.400207
524.945500,0.405685
525.274880,0.417137
525.604220,0.407867
525.933520,0.406184
526.262780,0.397364
526.592000,0.410959
526.921180,0.410868
527.250320,0.406900
527.579420,0.411319
527.908480,0.408666
528.237500,0.418570
528.566480,0.416168
528.895420,0.417447
529.224320,0.413076
529.553180,0.422169
529.882000,0.421898
530.210780,0.422780
530.539520,0.418025
530.868220,0.413116
531.196880,0.420927
531.525500,0.435351
531.854080,0.415103
532.182620,0.413358
532.511120,0.422738
532.839580,0.430581
533.168000,0.421604
533.496380,0.431963
533.824720,0.417227
534.153020,0.430227
534.481280,0.427753
534.809500,0.436675
535.137680,0.425781
535.465820,0.431701
535.793920,0.422166
536.121980,0.430969
536.450000,0.435518
536.777980,0.445329
537.105920,0.444168
537.433820,0.438216
537.761680,0.439184
538.089500,0.439903
538.417280,0.437326
538.745020,0.440571
539.072720,0.436939
539.400380,0.441725
539.728000,0.440153
540.055580,0.441199
540.383120,0.443410
540.710620,0.442336
541.038080,0.443010
541.365500,0.446691
541.692880,0.439680
542.020220,0.445484
542.347520,0.446518
542.674780,0.443543
543.002000,0.442967
543.329180,0.456682
543.656320,0.457806
543.983420,0.437265
544.310480,0.443085
544.637500,0.452747
544.964480,0.445828
545.291420,0.454636
545.618320,0.449867
545.945180,0.449242
546.272000,0.444626
546.598780,0.452966
546.925520,0.452028
547.252220,0.456916
547.578880,0.462691
547.905500,0.458170
548.232080,0.455491
548.558620,0.452327
548.885120,0.464181
549.211580,0.459659
549.538000,0.461414
549.864380,0.456592
550.190720,0.460446
550.517020,0.466102
550.843280,0.460586
551.169500,0.454835
551.495680,0.463863
551.821820,0.462443
552.147920,0.458686
552.473980,0.462957
552.800000,0.465337
553.125980,0.464964
553.451920,0.474784
553.777820,0.471019
554.103680,0.475902
554.429500,0.468698
554.755280,0.467957
555.081020,0.466578
555.406720,0.477142
555.732380,0.461877
556.058000,0.483707
556.383580,0.471414
556.709120,0.474845
557.034620,0.478126
557.360080,0.478756
557.685500,0.468880
558.010880,0.471404
558.336220,0.471353
558.661520,0.473236
558.986780,0.481573
559.312000,0.476496
559.637180,0.485458
559.962320,0.475614
560.287420,0.474965
560.612480,0.488339
560.937500,0.486050
561.262480,0.485337
561.587420,0.479507
561.912320,0.484893
562.237180,0.484086
562.562000,0.491208
562.886780,0.489409
563.211520,0.482116
563.536220,0.486085
563.860880,0.481705
564.185500,0.484428
564.510080,0.489466
564.834620,0.487533
565.159120,0.496241
565.483580,0.488788
565.808000,0.487325
566.132380,0.490862
566.456720,0.489796
566.781020,0.491373
567.105280,0.491493
567.429500,0.491275
567.753680,0.494438
568.077820,0.485118
568.401920,0.495416
568.725980,0.496774
569.050000,0.492015
569.373980,0.489532
569.697920,0.496397
570.021820,0.503745
570.345680,0.491772
570.669500,0.500191
570.993280,0.501661
571.317020,0.495798
571.640720,0.504261
571.964380,0.493318
572.288000,0.501484
572.611580,0.506926
572.935120,0.508418
573.258620,0.506358
573.582080,0.502981
573.905500,0.505212
574.228880,0.510765
574.552220,0.505680
574.875520,0.501862
575.198780,0.503433
575.522000,0.507331
575.845180,0.504298
576.168320,0.509522
576.491420,0.510901
576.814480,0.511031
577.137500,0.510823
577.460480,0.520478
577.783420,0.515184
578.106320,0.514601
578.429180,0.515376
578.752000,0.515804
579.074780,0.519555
579.397520,0.511943
579.720220,0.521236
580.042880,0.524612
580.365500,0.514229
580.688080,0.527476
581.010620,0.522106
581.333120,0.522712
581.655580,0.527140
581.978000,0.521117
582.300380,0.518014
582.622720,0.529993
582.945020,0.528283
583.267280,0.528492
583.589500,0.524880
583.911680,0.526834
584.233820,0.519358
584.555920,0.531989
584.877980,0.533606
585.200000,0.517495
585.521980,0.526413
585.843920,0.529591
586.165820,0.526204
586.487680,0.530846
586.809500,0.528353
587.131280,0.532683
587.453020,0.542560
587.774720,0.529568
588.096380,0.530047
588.418000,0.538777
588.739580,0.540960
589.061120,0.535940
589.382620,0.533524
589.704080,0.536886
590.025500,0.541096
590.346880,0.545812
590.668220,0.536544
590.989520,0.528841
591.310780,0.540182
591.632000,0.540164
591.953180,0.538611
592.274320,0.533716
592.595420,0.534213
592.916480,0.536539
593.237500,0.538938
593.558480,0.550175
593.879420,0.541948
594.200320,0.552103
594.521180,0.544754
594.842000,0.554003
595.162780,0.544071
595.483520,0.546663
595.804220,0.550215
596.124880,0.549427
596.445500,0.542835
596.766080,0.551761
597.086620,0.546178
597.407120,0.550026
597.727580,0.559003
598.048000,0.547474
598.368380,0.545502
598.688720,0.548362
599.009020,0.555998
599.329280,0.551623
599.649500,0.557845
599.969680,0.553686
600.289820,0.556624
600.609920,0.543949
600.929980,0.563335
601.250000,0.553514
601.569980,0.554415
601.889920,0.555199
602.209820,0.545996
602.529680,0.563581
602.849500,0.554555
603.169280,0.559658
603.489020,0.559646
603.808720,0.558969
604.128380,0.552152
604.448000,0.554696
604.767580,0.562291
605.087120,0.552909
605.406620,0.555835
605.726080,0.567437
606.045500,0.553079
606.364880,0.558832
606.684220,0.567961
607.003520,0.564220
607.322780,0.560830
607.642000,0.561459
607.961180,0.564614
608.280320,0.560615
608.599420,0.557937
608.918480,0.565689
609.237500,0.565728
609.556480,0.566440
609.875420,0.559657
610.194320,0.561854
610.513180,0.563184
610.832000,0.568791
611.150780,0.564734
611.469520,0.570136
611.788220,0.570133
612.106880,0.567250
612.425500,0.567905
612.744080,0.581102
613.062620,0.567890
613.381120,0.567642
613.699580,0.576947
614.018000,0.580467
614.336380,0.576496
614.654720,0.579535
614.973020,0.569886
615.291280,0.570809
615.609500,0.583835
615.927680,0.571075
616.245820,0.573284
616.563920,0.576313
616.881980,0.576863
617.200000,0.572939
617.517980,0.570006
617.835920,0.576577
618.153820,0.565434
618.471680,0.567752
618.789500,0.571429
619.107280,0.584977
619.425020,0.576277
619.742720,0.574074
620.060380,0.577562
620.378000,0.582756
620.695580,0.590358
621.013120,0.584252
621.330620,0.583307
621.648080,0.575710
621.965500,0.582183
622.282880,0.578815
622.600220,0.580859
622.917520,0.578450
623.234780,0.588557
623.552000,0.590707
623.869180,0.585881
624.186320,0.576568
624.503420,0.588088
624.820480,0.584040
625.137500,0.586359
625.454480,0.590184
625.771420,0.583859
626.088320,0.587957
626.405180,0.586185
626.722000,0.590966
627.038780,0.583960
627.355520,0.581562
627.672220,0.589736
627.988880,0.585070
628.305500,0.584294
628.622080,0.592627
628.938620,0.586544
629.255120,0.599876
629.571580,0.595158
629.888000,0.597729
630.204380,0.597729
630.520720,0.592931
630.837020,0.589886
631.153280,0.592626
631.469500,0.594603
631.785680,0.589813
632.101820,0.591978
632.417920,0.596721
632.733980,0.596339
633.050000,0.605518
633.365980,0.598103
633.681920,0.595764
633.997820,0.598625
634.313680,0.597169
634.629500,0.597169
634.945280,0.598534
635.261020,0.599941
635.576720,0.606283
635.892380,0.592507
636.208000,0.591807
636.523580,0.601286
636.839120,0.601911
637.154620,0.606667
637.470080,0.598278
637.785500,0.611372
638.100880,0.602664
638.416220,0.611447
638.731520,0.590831
639.046780,0.602097
639.362000,0.602064
639.677180,0.606796
639.992320,0.602763
640.307420,0.607193
640.622480,0.608793
640.937500,0.604438
641.252480,0.608489
641.567420,0.607559
641.882320,0.605512
642.197180,0.615665
642.512000,0.609012
642.826780,0.606935
643.141520,0.607947
643.456220,0.607637
643.770880,0.614704
644.085500,0.615428
644.400080,0.612360
644.714620,0.607860
645.029120,0.610286
645.343580,0.610258
645.658000,0.611435
645.972380,0.613867
646.286720,0.612701
646.601020,0.613064
646.915280,0.618316
647.229500,0.616209
647.543680,0.604805
647.857820,0.613267
648.171920,0.615572
648.485980,0.615237
648.800000,0.607881
649.113980,0.610865
649.427920,0.615534
649.741820,0.607035
650.055680,0.613823
650.369500,0.613789
650.683280,0.613208
650.997020,0.618537
651.310720,0.608971
651.624380,0.617308
651.938000,0.621607
652.251580,0.616476
652.565120,0.619620
652.878620,0.619932
653.192080,0.614326
653.505500,0.612623
653.818880,0.626670
654.132220,0.616633
654.445520,0.619966
654.758780,0.618697
655.072000,0.617765
655.385180,0.614265
655.698320,0.617891
656.011420,0.619948
656.324480,0.617896
656.637500,0.618192
656.950480,0.619201
657.263420,0.618682
657.576320,0.618737
657.889180,0.618402
658.202000,0.628623
658.514780,0.618934
658.827520,0.616747
659.140220,0.615523
659.452880,0.623075
659.765500,0.616496
660.078080,0.610292
660.390620,0.621754
660.703120,0.626642
661.015580,0.625460
661.328000,0.630038
661.640380,0.621311
661.952720,0.623170
662.265020,0.620668
662.577280,0.623092
662.889500,0.622517
663.201680,0.623803
663.513820,0.625925
663.825920,0.626321
664.137980,0.629282
664.450000,0.610294
664.761980,0.614403
665.073920,0.616683
665.385820,0.624673
665.697680,0.623802
666.009500,0.627868
666.321280,0.626243
666.633020,0.619348
666.944720,0.631277
667.256380,0.620121
667.568000,0.618886
667.879580,0.631633
668.191120,0.632212
668.502620,0.627867
668.814080,0.628772
669.125500,0.636675
669.436880,0.629322
669.748220,0.623399
670.059520,0.637955
670.370780,0.624217
670.682000,0.636814
670.993180,0.638830
671.304320,0.623769
671.615420,0.626776
671.926480,0.627395
672.237500,0.629868
672.548480,0.624911
672.859420,0.636526
673.170320,0.637650
673.481180,0.642650
673.792000,0.632528
674.102780,0.621903
674.413520,0.640175
674.724220,0.622142
675.034880,0.640997
675.345500,0.628373
675.656080,0.635935
675.966620,0.637323
676.277120,0.629074
676.587580,0.636598
676.898000,0.640164
677.208380,0.634011
677.518720,0.637126
677.829020,0.634885
678.139280,0.635656
678.449500,0.632752
678.759680,0.639940
679.069820,0.633829
679.379920,0.638627
679.689980,0.636094
680.000000,0.629533
680.309980,0.639941
680.619920,0.637637
680.929820,0.625980
681.239680,0.627400
681.549500,0.631111
681.859280,0.637043
682.169020,0.639314
682.478720,0.643605
682.788380,0.639350
683.098000,0.632760
683.407580,0.638649
683.717120,0.636261
684.026620,0.635919
684.336080,0.636226
684.645500,0.634493
684.954880,0.635059
685.264220,0.639864
685.573520,0.643700
685.882780,0.642117
686.192000,0.640331
686.501180,0.640560
686.810320,0.641430
687.119420,0.647282
687.428480,0.639195
687.737500,0.639294
688.046480,0.633819
688.355420,0.632591
688.664320,0.644989
688.973180,0.637443
689.282000,0.640432
689.590780,0.641871
689.899520,0.638815
690.208220,0.641055
690.516880,0.640703
690.825500,0.630943
691.134080,0.639332
691.442620,0.638720
691.751120,0.643534
692.059580,0.641574
692.368000,0.641802
692.676380,0.652672
692.984720,0.637023
693.293020,0.642857
693.601280,0.641740
693.909500,0.644344
694.217680,0.635187
694.525820,0.648896
694.833920,0.639451
695.141980,0.645970
695.450000,0.642748
695.757980,0.640947
696.065920,0.640777
696.373820,0.645112
696.681680,0.631761
696.989500,0.643381
697.297280,0.635939
697.605020,0.657937
697.912720,0.651422
698.220380,0.643054
698.528000,0.645570
698.835580,0.639668
699.143120,0.630943
699.450620,0.646778
699.758080,0.640784
700.065500,0.643256
700.372880,0.655600
700.680220,0.646191
700.987520,0.647222
701.294780,0.663017
701.602000,0.645800
701.909180,0.649444
702.216320,0.640203
702.523420,0.647198
702.830480,0.657426
703.137500,0.637958
703.444480,0.655621
703.751420,0.650888
704.058320,0.652157
704.365180,0.656151
704.672000,0.653861
704.978780,0.639485
705.285520,0.641236
705.592220,0.646275
705.898880,0.641450
706.205500,0.647496
706.512080,0.659953
706.818620,0.651703
707.125120,0.649615
707.431580,0.647519
707.738000,0.647656
708.044380,0.641837
708.350720,0.646542
708.657020,0.657288
708.963280,0.645963
709.269500,0.644227
709.575680,0.655010
709.881820,0.653695
710.187920,0.661479
710.493980,0.653607
710.800000,0.647597
711.105980,0.642319
711.411920,0.647615
711.717820,0.654971
712.023680,0.657209
712.329500,0.654180
712.635280,0.660078
712.941020,0.650174
713.246720,0.660079
713.552380,0.647567
713.858000,0.648404
714.163580,0.650750
714.469120,0.641266
714.774620,0.654955
715.080080,0.661563
715.385500,0.663469
715.690880,0.651282
715.996220,0.652139
716.301520,0.650593
716.606780,0.658412
716.912000,0.652262
717.217180,0.655626
717.522320,0.647714
717.827420,0.657038
718.132480,0.656764
718.437500,0.662046
718.742480,0.655645
719.047420,0.641990
719.352320,0.658780
719.657180,0.652903
719.962000,0.656328
720.266780,0.653511
720.571520,0.655344
720.876220,0.660802
721.180880,0.652592
721.485500,0.651483
721.790080,0.652654
722.094620,0.660377
722.399120,0.671262
722.703580,0.651093
723.008000,0.664942
723.312380,0.651743
723.616720,0.644284
723.921020,0.650498
724.225280,0.650087
724.529500,0.648424
724.833680,0.670819
725.137820,0.643172
725.441920,0.649131
725.745980,0.655034
726.050000,0.670275
726.353980,0.656602
726.657920,0.651372
726.961820,0.666210
727.265680,0.659732
727.569500,0.649452
727.873280,0.642494
728.177020,0.651773
728.480720,0.660648
728.784380,0.648661
729.088000,0.662270
729.391580,0.659877
729.695120,0.656910
729.998620,0.656788
730.302080,0.648246
730.605500,0.656963
730.908880,0.669280
731.212220,0.658178
731.515520,0.648952
731.818780,0.651456
732.122000,0.663878
732.425180,0.650074
732.728320,0.651463
733.031420,0.653133
733.334480,0.660204
733.637500,0.642641
733.940480,0.662743
734.243420,0.651886
734.546320,0.676349
734.849180,0.645145
735.152000,0.648859
735.454780,0.655992
735.757520,0.665437
736.060220,0.656661
736.362880,0.639706
736.665500,0.653264
736.968080,0.664159
737.270620,0.668481
737.573120,0.663755
737.875580,0.669049
738.178000,0.657050
738.480380,0.653514
738.782720,0.647764
739.085020,0.659141
739.387280,0.652439
739.689500,0.658550
739.991680,0.661988
740.293820,0.656164
740.595920,0.647190
740.897980,0.652174
741.200000,0.649467
741.501980,0.664756
741.803920,0.644707
742.105820,0.665539
742.407680,0.670355
742.709500,0.652273
743.011280,0.656506
743.313020,0.654493
743.614720,0.654092
743.916380,0.648256
744.218000,0.665871
744.519580,0.656401
744.821120,0.656886
745.122620,0.650689
745.424080,0.651442
745.725500,0.663850
746.026880,0.661946
746.328220,0.650432
746.629520,0.641180
746.930780,0.656250
747.232000,0.645003
747.533180,0.657108
747.834320,0.651248
748.135420,0.646986
748.436480,0.658141
748.737500,0.652872
749.038480,0.644472
749.339420,0.664592
749.640320,0.659962
749.941180,0.656465
750.242000,0.656407
750.542780,0.652605
750.843520,0.660474
751.144220,0.653205
751.444880,0.662016
751.745500,0.648701
752.046080,0.672867
752.346620,0.645619
752.647120,0.658393
752.947580,0.650712
753.248000,0.647969
753.548380,0.659076
753.848720,0.663876
754.149020,0.641522
754.449280,0.665135
754.749500,0.654944
755.049680,0.654000
755.349820,0.659773
755.649920,0.650364
755.949980,0.661579
756.250000,0.637081
756.549980,0.646205
756.849920,0.663494
757.149820,0.642715
757.449680,0.660726
757.749500,0.653033
758.049280,0.660751
758.349020,0.649513
758.648720,0.657695
758.948380,0.642612
759.248000,0.660377
759.547580,0.655683
759.847120,0.640248
760.146620,0.667118
760.446080,0.656586
760.745500,0.650350
761.044880,0.673295
761.344220,0.663578
761.643520,0.644774
761.942780,0.652904
762.242000,0.664781
762.541180,0.654225
762.840320,0.663624
763.139420,0.647679
763.438480,0.658237
763.737500,0.660924
764.036480,0.651992
764.335420,0.642908
764.634320,0.641719
764.933180,0.647260
765.232000,0.652325
765.530780,0.661754
765.829520,0.674126
766.128220,0.656228
766.426880,0.662402
766.725500,0.656614
767.024080,0.648834
767.322620,0.647303
767.621120,0.655149
767.919580,0.656655
768.218000,0.658003
768.516380,0.655849
768.814720,0.650206
769.113020,0.658167
769.411280,0.667818
769.709500,0.654263
770.007680,0.647580
770.305820,0.662610
770.603920,0.652965
770.901980,0.659153
771.200000,0.643342
771.497980,0.650134
771.795920,0.660201
772.093820,0.656417
772.391680,0.657877
772.689500,0.652027
772.987280,0.652525
773.285020,0.652768
773.582720,0.654054
773.880380,0.667811
774.178000,0.658487
774.475580,0.657066
774.773120,0.649264
775.070620,0.670047
775.368080,0.658651
775.665500,0.642713
775.962880,0.653102
776.260220,0.651413
776.557520,0.659106
776.854780,0.661934
777.152000,0.644562
777.449180,0.659474
777.746320,0.645161
778.043420,0.653479
778.340480,0.654263
778.637500,0.661258
778.934480,0.655683
779.231420,0.654681
779.528320,0.649299
779.825180,0.642951
780.122000,0.646746
780.418780,0.661423
780.715520,0.659960
781.012220,0.666438
781.308880,0.661258
781.605500,0.655479
781.902080,0.652293
782.198620,0.657553
782.495120,0.661180
782.791580,0.661623
783.088000,0.663216
783.384380,0.653370
783.680720,0.654583
783.977020,0.654508
784.273280,0.669231
784.569500,0.652690
784.865680,0.668985
785.161820,0.656250
785.457920,0.646570
785.753980,0.650384
786.050000,0.656077
786.345980,0.652778
786.641920,0.649549
786.937820,0.673789
787.233680,0.643702
787.529500,0.640083
787.825280,0.665014
788.121020,0.659348
788.416720,0.651376
788.712380,0.648096
789.008000,0.650142
789.303580,0.644523
789.599120,0.652364
789.894620,0.663538
790.190080,0.658448
790.485500,0.667387
790.780880,0.641577
791.076220,0.655123
791.371520,0.647059
791.666780,0.651636
791.962000,0.647318
792.257180,0.656662
792.552320,0.662074
792.847420,0.663755
793.142480,0.663004
793.437500,0.649783
793.732480,0.654718
794.027420,0.649110
794.322320,0.661447
794.617180,0.651560
794.912000,0.648588
795.206780,0.665175
795.501520,0.655513
795.796220,0.652593
796.090880,0.661643
796.385500,0.650675
796.680080,0.639491
796.974620,0.642964
797.269120,0.638910
797.563580,0.651908
797.858000,0.658314
798.152380,0.655839
798.446720,0.661538
798.741020,0.646379
799.035280,0.649845
799.329500,0.661278
799.623680,0.660465
