399.985280,0.243243
400.329500,0.121622
400.673680,0.253165
401.017820,0.220588
401.361920,0.196970
401.705980,0.195122
402.050000,0.142857
402.393980,0.200000
402.737920,0.157303
403.081820,0.175258
403.425680,0.220930
403.769500,0.197917
404.113280,0.183908
404.457020,0.235955
404.800720,0.195652
405.144380,0.252525
405.488000,0.193548
405.831580,0.206186
406.175120,0.159574
406.518620,0.200000
406.862080,0.309278
407.205500,0.208333
407.548880,0.234694
407.892220,0.225490
408.235520,0.180851
408.578780,0.276190
408.922000,0.221154
409.265180,0.272727
409.608320,0.222222
409.951420,0.237113
410.294480,0.245098
410.637500,0.228261
410.980480,0.245098
411.323420,0.204082
411.666320,0.247706
412.009180,0.245455
412.352000,0.158416
412.694780,0.266055
413.037520,0.238532
413.380220,0.225225
413.722880,0.250000
414.065500,0.198198
414.408080,0.212389
414.750620,0.230088
415.093120,0.206612
415.435580,0.193277
415.778000,0.272727
416.120380,0.252101
416.462720,0.198413
416.805020,0.285714
417.147280,0.291045
417.489500,0.242857
417.831680,0.253425
418.173820,0.234043
418.515920,0.265734
418.857980,0.253165
419.200000,0.262821
419.541980,0.284024
419.883920,0.241573
420.225820,0.231214
420.567680,0.223464
420.909500,0.273224
421.251280,0.255208
421.593020,0.234694
421.934720,0.247475
422.276380,0.215385
422.618000,0.274510
422.959580,0.264706
423.301120,0.269406
423.642620,0.226087
423.984080,0.227907
424.325500,0.228700
424.666880,0.254310
425.008220,0.226891
425.349520,0.233051
425.690780,0.230769
426.032000,0.227451
426.373180,0.236515
426.714320,0.234375
427.055420,0.235521
427.396480,0.243446
427.737500,0.237154
428.078480,0.237154
428.419420,0.248996
428.760320,0.241379
429.101180,0.259843
429.442000,0.241379
429.782780,0.257692
430.123520,0.258824
430.464220,0.250923
430.804880,0.264368
431.145500,0.229091
431.486080,0.250936
431.826620,0.275194
432.167120,0.238971
432.507580,0.278986
432.848000,0.258993
433.188380,0.256318
433.528720,0.252830
433.869020,0.260714
434.209280,0.245614
434.549500,0.243902
434.889680,0.262626
435.229820,0.259386
435.569920,0.256055
435.909980,0.265372
436.250000,0.274576
436.589980,0.250774
436.929920,0.266667
437.269820,0.253918
437.609680,0.272189
437.949500,0.271084
438.289280,0.254958
438.629020,0.270349
438.968720,0.264535
439.308380,0.257453
439.648000,0.268493
439.987580,0.253968
440.327120,0.272000
440.666620,0.257143
441.006080,0.260870
441.345500,0.270270
441.684880,0.272727
442.024220,0.263027
442.363520,0.261905
442.702780,0.256818
443.042000,0.255507
443.381180,0.269397
443.720320,0.304536
444.059420,0.250000
444.398480,0.265690
444.737500,0.270492
445.076480,0.275794
445.415420,0.249501
445.754320,0.264033
446.093180,0.264220
446.432000,0.268797
446.770780,0.273245
447.109520,0.266544
447.448220,0.271914
447.786880,0.277281
448.125500,0.265517
448.464080,0.264286
448.802620,0.280142
449.141120,0.278547
449.479580,0.284965
449.818000,0.277108
450.156380,0.257525
450.494720,0.269421
450.833020,0.263986
451.171280,0.275685
451.509500,0.290941
451.847680,0.290051
452.185820,0.275387
452.523920,0.280069
452.861980,0.279933
453.200000,0.280731
453.537980,0.273950
453.875920,0.273950
454.213820,0.279110
454.551680,0.263245
454.889500,0.274874
455.227280,0.279359
455.565020,0.298157
455.902720,0.276206
456.240380,0.281198
456.578000,0.297909
456.915580,0.286701
457.253120,0.286184
457.590620,0.287356
457.928080,0.292929
458.265500,0.288851
458.602880,0.290584
458.940220,0.304569
459.277520,0.281600
459.614780,0.301146
459.952000,0.277950
460.289180,0.299051
460.626320,0.305512
460.963420,0.295638
461.300480,0.293578
461.637500,0.292758
461.974480,0.302752
462.311420,0.304024
462.648320,0.295754
462.985180,0.298422
463.322000,0.296131
463.658780,0.294199
463.995520,0.290234
464.332220,0.296399
464.668880,0.309140
465.005500,0.317694
465.342080,0.298335
465.678620,0.309963
466.015120,0.309185
466.351580,0.313527
466.688000,0.311815
467.024380,0.306197
467.360720,0.303409
467.697020,0.305239
468.033280,0.310000
468.369500,0.303532
468.705680,0.298760
469.041820,0.302083
469.377920,0.315618
469.713980,0.302781
470.050000,0.309179
470.385980,0.311155
470.721920,0.301665
471.057820,0.315789
471.393680,0.303087
471.729500,0.305839
472.065280,0.311270
472.401020,0.320922
472.736720,0.313264
473.072380,0.315081
473.408000,0.315057
473.743580,0.314879
474.079120,0.324720
474.414620,0.318914
474.750080,0.312449
475.085500,0.313322
475.420880,0.317236
475.756220,0.318888
476.091520,0.328218
476.426780,0.315534
476.762000,0.312148
477.097180,0.317600
477.432320,0.330372
477.767420,0.317810
478.102480,0.319685
478.437500,0.321018
478.772480,0.318361
479.107420,0.324654
479.442320,0.326139
479.777180,0.323787
480.112000,0.312789
480.446780,0.328137
480.781520,0.328502
481.116220,0.337914
481.450880,0.323185
481.785500,0.329905
482.120080,0.336207
482.454620,0.335664
482.789120,0.335987
483.123580,0.330218
483.458000,0.330696
483.792380,0.341853
484.126720,0.327413
484.461020,0.331772
484.795280,0.327679
485.129500,0.339829
485.463680,0.338760
485.797820,0.349145
486.131920,0.333588
486.465980,0.342857
486.800000,0.344275
487.133980,0.329305
487.467920,0.351951
487.801820,0.352403
488.135680,0.346475
488.469500,0.338124
488.803280,0.348440
489.137020,0.346520
489.470720,0.354599
489.804380,0.359317
490.138000,0.359050
490.471580,0.347826
490.805120,0.345961
491.138620,0.343284
491.472080,0.349823
491.805500,0.357741
492.138880,0.349548
492.472220,0.351557
492.805520,0.354050
493.138780,0.359063
493.472000,0.352508
493.805180,0.365621
494.138320,0.361574
494.471420,0.353516
494.804480,0.363519
495.137500,0.369063
495.470480,0.362014
495.803420,0.359572
496.136320,0.364662
496.469180,0.361572
496.802000,0.368582
497.134780,0.368102
497.467520,0.377370
497.800220,0.367925
498.132880,0.373898
498.465500,0.363847
498.798080,0.371575
499.130620,0.367209
499.463120,0.370017
499.795580,0.374037
500.128000,0.370572
500.460380,0.372982
500.792720,0.360021
501.125020,0.375723
501.457280,0.375457
501.789500,0.373450
502.121680,0.380508
502.453820,0.372259
502.785920,0.379190
503.117980,0.381747
503.450000,0.380713
503.781980,0.385152
504.113920,0.374585
504.445820,0.379679
504.777680,0.381647
505.109500,0.383173
505.441280,0.380975
505.773020,0.377642
506.104720,0.381065
506.436380,0.380502
506.768000,0.380262
507.099580,0.383982
507.431120,0.384543
507.762620,0.385808
508.094080,0.382407
508.425500,0.390756
508.756880,0.390489
509.088220,0.384085
509.419520,0.383147
509.750780,0.395501
510.082000,0.386194
510.413180,0.394288
510.744320,0.391164
511.075420,0.389551
511.406480,0.393512
511.737500,0.383333
512.068480,0.393327
512.399420,0.396714
512.730320,0.382910
513.061180,0.400095
513.392000,0.393280
513.722780,0.402978
514.053520,0.398658
514.384220,0.397716
514.714880,0.397798
515.045500,0.395115
515.376080,0.405811
515.706620,0.400877
516.037120,0.405392
516.367580,0.402169
516.698000,0.400000
517.028380,0.398709
517.358720,0.403951
517.689020,0.409990
518.019280,0.403412
518.349500,0.408515
518.679680,0.403836
519.009820,0.409919
519.339920,0.419840
519.669980,0.413862
520.000000,0.414671
520.329980,0.412649
520.659920,0.412065
520.989820,0.411249
521.319680,0.421296
521.649500,0.404113
521.979280,0.418580
522.309020,0.407676
522.638720,0.417819
522.968380,0.418821
523.298000,0.417015
523.627580,0.418520
523.957120,0.417143
524.286620,0.419489
524.616080,0.425026
524.945500,0.421189
525.274880,0.424320
525.604220,0.424431
525.933520,0.419811
526.262780,0.414597
526.592000,0.423643
526.921180,0.424073
527.250320,0.418062
527.579420,0.427994
527.908480,0.428360
528.237500,0.429494
528.566480,0.435130
528.895420,0.429276
529.224320,0.432888
529.553180,0.439036
529.882000,0.434550
530.210780,0.429054
530.539520,0.433365
530.868220,0.438487
531.196880,0.436216
531.525500,0.440678
531.854080,0.429174
532.182620,0.430640
532.511120,0.437587
532.839580,0.443285
533.168000,0.432543
533.496380,0.451142
533.824720,0.445043
534.153020,0.447169
534.481280,0.448899
534.809500,0.454705
535.137680,0.453993
535.465820,0.435567
535.793920,0.447124
536.121980,0.452371
536.450000,0.445666
536.777980,0.459154
537.105920,0.454545
537.433820,0.450082
537.761680,0.455918
538.089500,0.456495
538.417280,0.449264
538.745020,0.454041
539.072720,0.452167
539.400380,0.456488
539.728000,0.451625
540.055580,0.460300
540.383120,0.453462
540.710620,0.457961
541.038080,0.458871
541.365500,0.456985
541.692880,0.461483
542.020220,0.468154
542.347520,0.458722
542.674780,0.464714
543.002000,0.459762
543.329180,0.465100
543.656320,0.473629
543.983420,0.459487
544.310480,0.454638
544.637500,0.472535
544.964480,0.462651
545.291420,0.469924
545.618320,0.469788
545.945180,0.462755
546.272000,0.463303
546.598780,0.465093
546.925520,0.468843
547.252220,0.476725
547.578880,0.466927
547.905500,0.467974
548.232080,0.467836
548.558620,0.466970
548.885120,0.477265
549.211580,0.467052
549.538000,0.476329
549.864380,0.470418
550.190720,0.477559
550.517020,0.478814
550.843280,0.476547
551.169500,0.473282
551.495680,0.485545
551.821820,0.486610
552.147920,0.478530
552.473980,0.480408
552.800000,0.473839
553.125980,0.484938
553.451920,0.487724
553.777820,0.487342
554.103680,0.483991
554.429500,0.482089
554.755280,0.484646
555.081020,0.478275
555.406720,0.486285
555.732380,0.479837
556.058000,0.488119
556.383580,0.487847
556.709120,0.485183
557.034620,0.486738
557.360080,0.489810
557.685500,0.486515
558.010880,0.484229
558.336220,0.486116
558.661520,0.494151
558.986780,0.493976
559.312000,0.489316
559.637180,0.492280
559.962320,0.489854
560.287420,0.497179
560.612480,0.493721
560.937500,0.497063
561.262480,0.502199
561.587420,0.490025
561.912320,0.499632
562.237180,0.497039
562.562000,0.500935
562.886780,0.503902
563.211520,0.503726
563.536220,0.494991
563.860880,0.500189
564.185500,0.497186
564.510080,0.506772
564.834620,0.494976
565.159120,0.509023
565.483580,0.502471
565.808000,0.500946
566.132380,0.504289
566.456720,0.510960
566.781020,0.509377
567.105280,0.501701
567.429500,0.503414
567.753680,0.504028
568.077820,0.507538
568.401920,0.512605
568.725980,0.513852
569.050000,0.512167
569.373980,0.505900
569.697920,0.518013
570.021820,0.519101
570.345680,0.518178
570.669500,0.515452
570.993280,0.512735
571.317020,0.508221
571.640720,0.515376
571.964380,0.518189
572.288000,0.520401
572.611580,0.514788
572.935120,0.516274
573.258620,0.513463
573.582080,0.513785
573.905500,0.514520
574.228880,0.517817
574.552220,0.519238
574.875520,0.518615
575.198780,0.523310
575.522000,0.515762
575.845180,0.515401
576.168320,0.525332
576.491420,0.523256
576.814480,0.521881
577.137500,0.529582
577.460480,0.524465
577.783420,0.524473
578.106320,0.528846
578.429180,0.532697
578.752000,0.533519
579.074780,0.539447
579.397520,0.531633
579.720220,0.527349
580.042880,0.532210
580.365500,0.525480
580.688080,0.530529
581.010620,0.530881
581.333120,0.534736
581.655580,0.535798
581.978000,0.539408
582.300380,0.536839
582.622720,0.541200
582.945020,0.537711
583.267280,0.542169
583.589500,0.538684
583.911680,0.540171
584.233820,0.529116
584.555920,0.538292
584.877980,0.540829
585.200000,0.533149
585.521980,0.544331
585.843920,0.545760
586.165820,0.542962
586.487680,0.541378
586.809500,0.536754
587.131280,0.542147
587.453020,0.552976
587.774720,0.547309
588.096380,0.542007
588.418000,0.543752
588.739580,0.555907
589.061120,0.550316
589.382620,0.546705
589.704080,0.545302
590.025500,0.551655
590.346880,0.551996
590.668220,0.549146
590.989520,0.549917
591.310780,0.560066
591.632000,0.553825
591.953180,0.547191
592.274320,0.545182
592.595420,0.542834
592.916480,0.544417
593.237500,0.552412
593.558480,0.561743
593.879420,0.558673
594.200320,0.550496
594.521180,0.553785
594.842000,0.556690
595.162780,0.556357
595.483520,0.562616
595.804220,0.561224
596.124880,0.563016
596.445500,0.558292
596.766080,0.558215
597.086620,0.557856
597.407120,0.556872
597.727580,0.564041
598.048000,0.554615
598.368380,0.560757
598.688720,0.550983
599.009020,0.565287
599.329280,0.568121
599.649500,0.561807
599.969680,0.567041
600.289820,0.567575
600.609920,0.562383
600.929980,0.565206
601.250000,0.566216
601.569980,0.559816
601.889920,0.565357
602.209820,0.561147
602.529680,0.574018
602.849500,0.566830
603.169280,0.568476
603.489020,0.569887
603.808720,0.566923
604.128380,0.567329
604.448000,0.568508
604.767580,0.570670
605.087120,0.567313
605.406620,0.573188
605.726080,0.574280
606.045500,0.563388
606.364880,0.570456
606.684220,0.571673
607.003520,0.563647
607.322780,0.567936
607.642000,0.566628
607.961180,0.566638
608.280320,0.571346
608.599420,0.568946
608.918480,0.569795
609.237500,0.572477
609.556480,0.580941
609.875420,0.574424
610.194320,0.572778
610.513180,0.573838
610.832000,0.577129
611.150780,0.576449
611.469520,0.579186
611.788220,0.581318
612.106880,0.575995
612.425500,0.578258
612.744080,0.582025
613.062620,0.576758
613.381120,0.583181
613.699580,0.582465
614.018000,0.574939
614.336380,0.579581
614.654720,0.584186
614.973020,0.582228
615.291280,0.582275
615.609500,0.599366
615.927680,0.581891
616.245820,0.577613
616.563920,0.587193
616.881980,0.585282
617.200000,0.577916
617.517980,0.575607
617.835920,0.584343
618.153820,0.580976
618.471680,0.583256
618.789500,0.587162
619.107280,0.590297
619.425020,0.586108
619.742720,0.586315
620.060380,0.580069
620.378000,0.596602
620.695580,0.585568
621.013120,0.590866
621.330620,0.584876
621.648080,0.578549
621.965500,0.587202
622.282880,0.583544
622.600220,0.588440
622.917520,0.591367
623.234780,0.603986
623.552000,0.588797
623.869180,0.592814
624.186320,0.595352
624.503420,0.599373
624.820480,0.595350
625.137500,0.597727
625.454480,0.597062
625.771420,0.588903
626.088320,0.590164
626.405180,0.594275
626.722000,0.590652
627.038780,0.597431
627.355520,0.594688
627.672220,0.599378
627.988880,0.588180
628.305500,0.604238
628.622080,0.598203
628.938620,0.599388
629.255120,0.599564
629.571580,0.592706
629.888000,0.599264
630.204380,0.596502
630.520720,0.595369
630.837020,0.604070
631.153280,0.597722
631.469500,0.603699
631.785680,0.603978
632.101820,0.601930
632.417920,0.600894
632.733980,0.600840
633.050000,0.607641
633.365980,0.601067
633.681920,0.606205
633.997820,0.602212
634.313680,0.599823
634.629500,0.603362
634.945280,0.603812
635.261020,0.610508
635.576720,0.616265
635.892380,0.605577
636.208000,0.604300
636.523580,0.608302
636.839120,0.612044
637.154620,0.611304
637.470080,0.598278
637.785500,0.615768
638.100880,0.607008
638.416220,0.611447
638.731520,0.616046
639.046780,0.610836
639.362000,0.610092
639.677180,0.603084
639.992320,0.608120
640.307420,0.612813
640.622480,0.614114
640.937500,0.608877
641.252480,0.616867
641.567420,0.618073
641.882320,0.610802
642.197180,0.616227
642.512000,0.614050
642.826780,0.614979
643.141520,0.613504
643.456220,0.622856
643.770880,0.619403
644.085500,0.609838
644.400080,0.617135
644.714620,0.618729
645.029120,0.620187
645.343580,0.624246
645.658000,0.618651
645.972380,0.623733
646.286720,0.614609
646.601020,0.615555
646.915280,0.623252
647.229500,0.617033
647.543680,0.625518
647.857820,0.616570
648.171920,0.614759
648.485980,0.620444
648.800000,0.610361
649.113980,0.626940
649.427920,0.623856
649.741820,0.618302
650.055680,0.622600
650.369500,0.625280
650.683280,0.616537
650.997020,0.622937
651.310720,0.619152
651.624380,0.621154
651.938000,0.628809
652.251580,0.614807
652.565120,0.619899
652.878620,0.628378
653.192080,0.627528
653.505500,0.619074
653.818880,0.634632
654.132220,0.625178
654.445520,0.620250
654.758780,0.620963
655.072000,0.624069
655.385180,0.616548
655.698320,0.623893
656.011420,0.624534
656.324480,0.623725
656.637500,0.619061
656.950480,0.623899
657.263420,0.626958
657.576320,0.619330
657.889180,0.617517
658.202000,0.627114
658.514780,0.633522
658.827520,0.636855
659.140220,0.629308
659.452880,0.627303
659.765500,0.627032
660.078080,0.621727
660.390620,0.622059
660.703120,0.632142
661.015580,0.632822
661.328000,0.631612
661.640380,0.635912
661.952720,0.632202
662.265020,0.632325
662.577280,0.632316
662.889500,0.624093
663.201680,0.619974
663.513820,0.626568
663.825920,0.627602
664.137980,0.630575
664.450000,0.624361
664.761980,0.625205
665.073920,0.627394
665.385820,0.632853
665.697680,0.624463
666.009500,0.633854
666.321280,0.632869
666.633020,0.632646
666.944720,0.627907
667.256380,0.631225
667.568000,0.626019
667.879580,0.635714
668.191120,0.637706
668.502620,0.625813
668.814080,0.638947
669.125500,0.626069
669.436880,0.631051
669.748220,0.634822
670.059520,0.644258
670.370780,0.636047
670.682000,0.637168
670.993180,0.632135
671.304320,0.635724
671.615420,0.628551
671.926480,0.638751
672.237500,0.629153
672.548480,0.633073
672.859420,0.636526
673.170320,0.639100
673.481180,0.649891
673.792000,0.631446
674.102780,0.638061
674.413520,0.634707
674.724220,0.633757
675.034880,0.639897
675.345500,0.636032
675.656080,0.633757
675.966620,0.636595
676.277120,0.647748
676.587580,0.640648
676.898000,0.640164
677.208380,0.632902
677.518720,0.637126
677.829020,0.635625
678.139280,0.639733
678.449500,0.637579
678.759680,0.637692
679.069820,0.637918
679.379920,0.643154
679.689980,0.642778
680.000000,0.633645
680.309980,0.635486
680.619920,0.645210
680.929820,0.640538
681.239680,0.631462
681.549500,0.634074
681.859280,0.643391
682.169020,0.641552
682.478720,0.645475
682.788380,0.642303
683.098000,0.637996
683.407580,0.640525
683.717120,0.642267
684.026620,0.637801
684.336080,0.635468
684.645500,0.632997
684.954880,0.641103
685.264220,0.639109
685.573520,0.641416
685.882780,0.644802
686.192000,0.639955
686.501180,0.652289
686.810320,0.648347
687.119420,0.640821
687.428480,0.645651
687.737500,0.655411
688.046480,0.647239
688.355420,0.631837
688.664320,0.646136
688.973180,0.639357
689.282000,0.650077
689.590780,0.647623
689.899520,0.636156
690.208220,0.650994
690.516880,0.639557
690.825500,0.642264
691.134080,0.640850
691.442620,0.636814
691.751120,0.650360
692.059580,0.644249
692.368000,0.639909
692.676380,0.644275
692.984720,0.641221
693.293020,0.648176
693.601280,0.650897
693.909500,0.648884
694.217680,0.647753
694.525820,0.654227
694.833920,0.648989
695.141980,0.645970
695.450000,0.643511
695.757980,0.656608
696.065920,0.647379
696.373820,0.648961
696.681680,0.642117
696.989500,0.644153
697.297280,0.637884
697.605020,0.655952
697.912720,0.642967
698.220380,0.639118
698.528000,0.649921
698.835580,0.653892
699.143120,0.644973
699.450620,0.642005
699.758080,0.631373
700.065500,0.642857
700.372880,0.653200
700.680220,0.647387
700.987520,0.644444
701.294780,0.662612
701.602000,0.649366
701.909180,0.667329
702.216320,0.644896
702.523420,0.649171
702.830480,0.651485
703.137500,0.643024
703.444480,0.654832
703.751420,0.652860
704.058320,0.650970
704.365180,0.642744
704.672000,0.659802
704.978780,0.646508
705.285520,0.645540
705.592220,0.646667
705.898880,0.651694
706.205500,0.646322
706.512080,0.652054
706.818620,0.653251
707.125120,0.646154
707.431580,0.645174
707.738000,0.650781
708.044380,0.650328
708.350720,0.647688
708.657020,0.654553
708.963280,0.646351
709.269500,0.654795
709.575680,0.658939
709.881820,0.656840
710.187920,0.647082
710.493980,0.655547
710.800000,0.654844
711.105980,0.638931
711.411920,0.648009
711.717820,0.648343
712.023680,0.644384
712.329500,0.658123
712.635280,0.658140
712.941020,0.657518
713.246720,0.653360
713.552380,0.651099
713.858000,0.656681
714.163580,0.648777
714.469120,0.645565
714.774620,0.654955
715.080080,0.658029
715.385500,0.656275
715.690880,0.654832
715.996220,0.661648
716.301520,0.652174
716.606780,0.648978
716.912000,0.665186
717.217180,0.657223
717.522320,0.655666
717.827420,0.664361
718.132480,0.657969
718.437500,0.651855
718.742480,0.649194
719.047420,0.641181
719.352320,0.661685
719.657180,0.660670
719.962000,0.647643
720.266780,0.647694
720.571520,0.652444
720.876220,0.655483
721.180880,0.654264
721.485500,0.653155
721.790080,0.650955
722.094620,0.658662
722.399120,0.655752
722.703580,0.660952
723.008000,0.653299
723.312380,0.646147
723.616720,0.651934
723.921020,0.650931
724.225280,0.643543
724.529500,0.649299
724.833680,0.654804
725.137820,0.655947
725.441920,0.650914
725.745980,0.653244
726.050000,0.663058
726.353980,0.659306
726.657920,0.654071
726.961820,0.653425
727.265680,0.664817
727.569500,0.653108
727.873280,0.655427
728.177020,0.657761
728.480720,0.650000
728.784380,0.659934
729.088000,0.657560
729.391580,0.650403
729.695120,0.658829
729.998620,0.658700
730.302080,0.650649
730.605500,0.649685
730.908880,0.642822
731.212220,0.650833
731.515520,0.648952
731.818780,0.653398
732.122000,0.664862
732.425180,0.655988
732.728320,0.642043
733.031420,0.645614
733.334480,0.659184
733.637500,0.652218
733.940480,0.647902
734.243420,0.662589
734.546320,0.660788
734.849180,0.637913
735.152000,0.646266
735.454780,0.645661
735.757520,0.660169
736.060220,0.652975
736.362880,0.654937
736.665500,0.644386
736.968080,0.648576
737.270620,0.662493
737.573120,0.647926
737.875580,0.659153
738.178000,0.655961
738.480380,0.642162
738.782720,0.655398
739.085020,0.650881
739.387280,0.650776
739.689500,0.654587
739.991680,0.651319
740.293820,0.655611
740.595920,0.657763
740.897980,0.667420
741.200000,0.648345
741.501980,0.667622
741.803920,0.650901
742.105820,0.648618
742.407680,0.658125
742.709500,0.648864
743.011280,0.660610
743.313020,0.652174
743.614720,0.639002
743.916380,0.649419
744.218000,0.646181
744.519580,0.657005
744.821120,0.661078
745.122620,0.656081
745.424080,0.647236
745.725500,0.657815
746.026880,0.660099
746.328220,0.651048
746.629520,0.635762
746.930780,0.650735
747.232000,0.646842
747.533180,0.656498
747.834320,0.657943
748.135420,0.651336
748.436480,0.650031
748.737500,0.646078
749.038480,0.642028
749.339420,0.665215
749.640320,0.661848
749.941180,0.654591
750.242000,0.653894
750.542780,0.655707
750.843520,0.668161
751.144220,0.644872
751.444880,0.649968
751.745500,0.644156
752.046080,0.673509
752.346620,0.664304
752.647120,0.659046
752.947580,0.650065
753.248000,0.646035
753.548380,0.655823
753.848720,0.650998
754.149020,0.651838
754.449280,0.651346
754.749500,0.650299
755.049680,0.656000
755.349820,0.647765
755.649920,0.654329
755.949980,0.648308
756.250000,0.648258
756.549980,0.644884
756.849920,0.658736
757.149820,0.640719
757.449680,0.649505
757.749500,0.657123
758.049280,0.649829
758.349020,0.639082
758.648720,0.672878
758.948380,0.656357
759.248000,0.651617
759.547580,0.664425
759.847120,0.646451
760.146620,0.657645
760.446080,0.663306
760.745500,0.656643
761.044880,0.658381
761.344220,0.645046
761.643520,0.654661
761.942780,0.651505
762.242000,0.659830
762.541180,0.647183
762.840320,0.648876
763.139420,0.646976
763.438480,0.638414
763.737500,0.657478
764.036480,0.647799
764.335420,0.649965
764.634320,0.647956
764.933180,0.639041
765.232000,0.643303
765.530780,0.645614
765.829520,0.652448
766.128220,0.647182
766.426880,0.653873
766.725500,0.655243
767.024080,0.650892
767.322620,0.649378
767.621120,0.653117
767.919580,0.664846
768.218000,0.666211
768.516380,0.651792
768.814720,0.650206
769.113020,0.658167
769.411280,0.666436
769.709500,0.650203
770.007680,0.656442
770.305820,0.660581
770.603920,0.641509
770.901980,0.647541
771.200000,0.645380
771.497980,0.650804
771.795920,0.652174
772.093820,0.639706
772.391680,0.654581
772.689500,0.647297
772.987280,0.647811
773.285020,0.659604
773.582720,0.641216
773.880380,0.669183
774.178000,0.656442
774.475580,0.668453
774.773120,0.648594
775.070620,0.661934
775.368080,0.649967
775.665500,0.640698
775.962880,0.649767
776.260220,0.654105
776.557520,0.661775
776.854780,0.645030
777.152000,0.647215
777.449180,0.655428
777.746320,0.639785
778.043420,0.644611
778.340480,0.648850
778.637500,0.651116
778.934480,0.657028
779.231420,0.655360
779.528320,0.641283
779.825180,0.642292
780.122000,0.636122
780.418780,0.647743
780.715520,0.654594
781.012220,0.658904
781.308880,0.661258
781.605500,0.643151
781.902080,0.652977
782.198620,0.659604
782.495120,0.653635
782.791580,0.667125
783.088000,0.654244
783.384380,0.650619
783.680720,0.655267
783.977020,0.656573
784.273280,0.664336
784.569500,0.657582
784.865680,0.659249
785.161820,0.650000
785.457920,0.642412
785.753980,0.659456
786.050000,0.647790
786.345980,0.647222
786.641920,0.646773
786.937820,0.660969
787.233680,0.635351
787.529500,0.644938
787.825280,0.650850
788.121020,0.652975
788.416720,0.652788
788.712380,0.657264
789.008000,0.649433
789.303580,0.636042
789.599120,0.659636
789.894620,0.660650
790.190080,0.643220
790.485500,0.649388
790.780880,0.644444
791.076220,0.648629
791.371520,0.654321
791.666780,0.647273
791.962000,0.650257
792.257180,0.653001
792.552320,0.647571
792.847420,0.642649
793.142480,0.649817
793.437500,0.636758
793.732480,0.649598
794.027420,0.663205
794.322320,0.666667
794.617180,0.656018
794.912000,0.658247
795.206780,0.656227
795.501520,0.662357
795.796220,0.627407
796.090880,0.661643
796.385500,0.642429
796.680080,0.648467
796.974620,0.657934
797.269120,0.656321
797.563580,0.651908
797.858000,0.645406
798.152380,0.655839
798.446720,0.651538
798.741020,0.654854
799.035280,0.649068
799.329500,0.648961
799.623680,0.653488
