399.985280,0.256757
400.329500,0.216216
400.673680,0.202532
401.017820,0.191176
401.361920,0.212121
401.705980,0.256098
402.050000,0.194805
402.393980,0.305882
402.737920,0.292135
403.081820,0.257732
403.425680,0.232558
403.769500,0.218750
404.113280,0.206897
404.457020,0.303371
404.800720,0.293478
405.144380,0.272727
405.488000,0.279570
405.831580,0.247423
406.175120,0.308511
406.518620,0.260000
406.862080,0.298969
407.205500,0.197917
407.548880,0.214286
407.892220,0.215686
408.235520,0.297872
408.578780,0.295238
408.922000,0.250000
409.265180,0.323232
409.608320,0.232323
409.951420,0.340206
410.294480,0.284314
410.637500,0.228261
410.980480,0.245098
411.323420,0.326531
411.666320,0.339450
412.009180,0.309091
412.352000,0.257426
412.694780,0.266055
413.037520,0.229358
413.380220,0.288288
413.722880,0.276786
414.065500,0.225225
414.408080,0.283186
414.750620,0.327434
415.093120,0.272727
415.435580,0.277311
415.778000,0.295455
416.120380,0.226891
416.462720,0.238095
416.805020,0.300752
417.147280,0.268657
417.489500,0.285714
417.831680,0.280822
418.173820,0.283688
418.515920,0.279720
418.857980,0.240506
419.200000,0.275641
419.541980,0.254438
419.883920,0.297753
420.225820,0.265896
420.567680,0.301676
420.909500,0.289617
421.251280,0.270833
421.593020,0.290816
421.934720,0.287879
422.276380,0.256410
422.618000,0.284314
422.959580,0.259804
423.301120,0.292237
423.642620,0.282609
423.984080,0.279070
424.325500,0.286996
424.666880,0.280172
425.008220,0.273109
425.349520,0.305085
425.690780,0.288462
426.032000,0.274510
426.373180,0.302905
426.714320,0.308594
427.055420,0.274131
427.396480,0.269663
427.737500,0.272727
428.078480,0.300395
428.419420,0.281124
428.760320,0.272031
429.101180,0.299213
429.442000,0.287356
429.782780,0.292308
430.123520,0.286275
430.464220,0.313653
430.804880,0.310345
431.145500,0.272727
431.486080,0.284644
431.826620,0.302326
432.167120,0.297794
432.507580,0.300725
432.848000,0.294964
433.188380,0.299639
433.528720,0.316981
433.869020,0.303571
434.209280,0.298246
434.549500,0.313589
434.889680,0.316498
435.229820,0.276451
435.569920,0.290657
435.909980,0.288026
436.250000,0.308475
436.589980,0.266254
436.929920,0.301587
437.269820,0.307210
437.609680,0.295858
437.949500,0.292169
438.289280,0.303116
438.629020,0.337209
438.968720,0.322674
439.308380,0.284553
439.648000,0.315068
439.987580,0.320106
440.327120,0.301333
440.666620,0.319481
441.006080,0.322251
441.345500,0.331695
441.684880,0.303828
442.024220,0.320099
442.363520,0.319048
442.702780,0.306818
443.042000,0.321586
443.381180,0.299569
443.720320,0.306695
444.059420,0.306723
444.398480,0.324268
444.737500,0.323770
445.076480,0.315476
445.415420,0.303393
445.754320,0.309771
446.093180,0.315596
446.432000,0.312030
446.770780,0.322581
447.109520,0.341912
447.448220,0.327370
447.786880,0.316637
448.125500,0.327586
448.464080,0.312500
448.802620,0.319149
449.141120,0.318339
449.479580,0.319930
449.818000,0.320138
450.156380,0.319398
450.494720,0.310744
450.833020,0.321678
451.171280,0.315068
451.509500,0.336237
451.847680,0.327150
452.185820,0.327022
452.523920,0.338488
452.861980,0.318718
453.200000,0.325581
453.537980,0.317647
453.875920,0.317647
454.213820,0.340753
454.551680,0.334437
454.889500,0.328836
455.227280,0.329181
455.565020,0.326633
455.902720,0.339434
456.240380,0.316140
456.578000,0.341463
456.915580,0.340242
457.253120,0.327303
457.590620,0.334975
457.928080,0.341751
458.265500,0.344595
458.602880,0.332792
458.940220,0.341794
459.277520,0.321600
459.614780,0.358429
459.952000,0.324534
460.289180,0.357595
460.626320,0.348031
460.963420,0.350565
461.300480,0.345566
461.637500,0.337442
461.974480,0.351682
462.311420,0.347243
462.648320,0.333821
462.985180,0.334290
463.322000,0.354167
463.658780,0.350829
463.995520,0.331499
464.332220,0.344875
464.668880,0.357527
465.005500,0.353887
465.342080,0.349552
465.678620,0.356704
466.015120,0.360931
466.351580,0.362832
466.688000,0.350792
467.024380,0.353584
467.360720,0.348864
467.697020,0.367882
468.033280,0.365556
468.369500,0.367550
468.705680,0.366404
469.041820,0.353125
469.377920,0.347072
469.713980,0.348095
470.050000,0.355556
470.385980,0.352250
470.721920,0.345739
471.057820,0.361598
471.393680,0.347053
471.729500,0.352178
472.065280,0.361360
472.401020,0.365248
472.736720,0.364747
473.072380,0.366248
473.408000,0.362924
473.743580,0.346021
474.079120,0.373816
474.414620,0.366412
474.750080,0.362897
475.085500,0.368421
475.420880,0.360533
475.756220,0.364677
476.091520,0.363171
476.426780,0.368123
476.762000,0.366050
477.097180,0.368800
477.432320,0.365913
477.767420,0.370915
478.102480,0.363780
478.437500,0.368637
478.772480,0.368006
479.107420,0.371033
479.442320,0.378897
479.777180,0.378679
480.112000,0.369800
480.446780,0.371785
480.781520,0.374396
481.116220,0.367017
481.450880,0.375488
481.785500,0.382911
482.120080,0.384796
482.454620,0.380730
482.789120,0.381369
483.123580,0.387072
483.458000,0.378165
483.792380,0.385783
484.126720,0.368340
484.461020,0.375488
484.795280,0.387047
485.129500,0.394388
485.463680,0.387597
485.797820,0.385692
486.131920,0.386381
486.465980,0.388417
486.800000,0.381679
487.133980,0.391239
487.467920,0.393267
487.801820,0.384439
488.135680,0.391964
488.469500,0.376702
488.803280,0.396731
489.137020,0.397802
489.470720,0.390208
489.804380,0.397179
490.138000,0.387982
490.471580,0.403832
490.805120,0.380986
491.138620,0.398721
491.472080,0.399293
491.805500,0.398187
492.138880,0.398193
492.472220,0.395156
492.805520,0.408520
493.138780,0.418332
493.472000,0.403344
493.805180,0.403820
494.138320,0.404270
494.471420,0.404948
494.804480,0.401035
495.137500,0.401797
495.470480,0.405354
495.803420,0.407431
496.136320,0.414160
496.469180,0.399018
496.802000,0.405257
497.134780,0.408126
497.467520,0.412844
497.800220,0.406840
498.132880,0.412698
498.465500,0.408459
498.798080,0.402968
499.130620,0.408759
499.463120,0.411005
499.795580,0.407591
500.128000,0.408719
500.460380,0.413348
500.792720,0.420467
501.125020,0.414609
501.457280,0.417232
501.789500,0.422004
502.121680,0.420425
502.453820,0.416624
502.785920,0.428214
503.117980,0.423945
503.450000,0.427423
503.781980,0.425012
504.113920,0.416785
504.445820,0.421974
504.777680,0.420235
505.109500,0.424519
505.441280,0.430210
505.773020,0.426022
506.104720,0.428639
506.436380,0.424515
506.768000,0.428438
507.099580,0.426087
507.431120,0.429040
507.762620,0.430921
508.094080,0.424339
508.425500,0.434641
508.756880,0.429355
509.088220,0.428243
509.419520,0.429702
509.750780,0.433458
510.082000,0.425373
510.413180,0.435744
510.744320,0.434883
511.075420,0.432631
511.406480,0.438176
511.737500,0.438426
512.068480,0.442669
512.399420,0.438028
512.730320,0.425404
513.061180,0.433397
513.392000,0.434453
513.722780,0.441402
514.053520,0.429804
514.384220,0.442436
514.714880,0.438966
515.045500,0.432950
515.376080,0.451332
515.706620,0.442280
516.037120,0.447549
516.367580,0.444061
516.698000,0.444118
517.028380,0.448361
517.358720,0.446914
517.689020,0.450544
518.019280,0.455595
518.349500,0.454131
518.679680,0.456335
519.009820,0.456984
519.339920,0.453407
519.669980,0.445505
520.000000,0.456444
520.329980,0.454640
520.659920,0.445297
520.989820,0.454076
521.319680,0.458848
521.649500,0.458098
521.979280,0.458768
522.309020,0.455394
522.638720,0.453149
522.968380,0.460703
523.298000,0.457724
523.627580,0.450595
523.957120,0.461818
524.286620,0.462741
524.616080,0.461737
524.945500,0.457881
525.274880,0.466906
525.604220,0.453934
525.933520,0.467505
526.262780,0.452610
526.592000,0.460173
526.921180,0.456069
527.250320,0.460173
527.579420,0.468924
527.908480,0.465288
528.237500,0.472691
528.566480,0.464072
528.895420,0.465254
529.224320,0.470035
529.553180,0.474699
529.882000,0.479319
530.210780,0.468147
530.539520,0.472196
530.868220,0.477262
531.196880,0.479694
531.525500,0.482809
531.854080,0.467167
532.182620,0.468940
532.511120,0.477958
532.839580,0.479583
533.168000,0.474932
533.496380,0.484018
533.824720,0.487663
534.153020,0.473473
534.481280,0.471806
534.809500,0.490325
535.137680,0.484375
535.465820,0.475515
535.793920,0.480541
536.121980,0.479228
536.450000,0.493023
536.777980,0.493506
537.105920,0.492736
537.433820,0.489362
537.761680,0.493061
538.089500,0.492108
538.417280,0.486271
538.745020,0.494057
539.072720,0.491995
539.400380,0.496892
539.728000,0.489101
540.055580,0.488764
540.383120,0.490320
540.710620,0.492187
541.038080,0.499447
541.365500,0.498529
541.692880,0.500363
542.020220,0.488305
542.347520,0.497846
542.674780,0.491531
543.002000,0.489503
543.329180,0.508593
543.656320,0.502813
543.983420,0.489915
544.310480,0.500849
544.637500,0.510065
544.964480,0.501346
545.291420,0.498837
545.618320,0.501328
545.945180,0.494397
546.272000,0.492792
546.598780,0.499508
546.925520,0.500165
547.252220,0.505777
547.578880,0.504073
547.905500,0.505882
548.232080,0.512995
548.558620,0.499837
548.885120,0.508342
549.211580,0.500161
549.538000,0.515240
549.864380,0.505788
550.190720,0.509202
550.517020,0.517601
550.843280,0.511401
551.169500,0.500000
551.495680,0.511827
551.821820,0.511104
552.147920,0.511061
552.473980,0.518275
552.800000,0.504578
553.125980,0.511788
553.451920,0.514599
553.777820,0.520320
554.103680,0.517021
554.429500,0.519920
554.755280,0.525367
555.081020,0.511698
555.406720,0.516763
555.732380,0.516096
556.058000,0.521045
556.383580,0.514892
556.709120,0.517574
557.034620,0.520152
557.360080,0.519516
557.685500,0.514869
558.010880,0.517851
558.336220,0.525132
558.661520,0.523573
558.986780,0.527640
559.312000,0.522792
559.637180,0.514542
559.962320,0.523318
560.287420,0.519394
560.612480,0.528525
560.937500,0.535242
561.262480,0.526760
561.587420,0.529924
561.912320,0.524318
562.237180,0.529238
562.562000,0.531612
562.886780,0.537718
563.211520,0.530179
563.536220,0.526160
563.860880,0.529989
564.185500,0.523452
564.510080,0.534989
564.834620,0.531820
565.159120,0.531203
565.483580,0.532117
565.808000,0.531215
566.132380,0.538605
566.456720,0.538927
566.781020,0.534134
567.105280,0.532703
567.429500,0.536039
567.753680,0.542386
568.077820,0.541167
568.401920,0.541635
568.725980,0.543074
569.050000,0.536502
569.373980,0.541302
569.697920,0.540008
570.021820,0.541199
570.345680,0.541523
570.669500,0.539870
570.993280,0.538206
571.317020,0.546584
571.640720,0.542053
571.964380,0.542687
572.288000,0.540059
572.611580,0.547735
572.935120,0.545080
573.258620,0.545251
573.582080,0.538003
573.905500,0.543187
574.228880,0.554566
574.552220,0.549652
574.875520,0.546910
575.198780,0.545356
575.522000,0.545455
575.845180,0.549427
576.168320,0.550126
576.491420,0.554869
576.814480,0.555154
577.137500,0.560606
577.460480,0.558536
577.783420,0.556985
578.106320,0.548077
578.429180,0.562390
578.752000,0.554359
579.074780,0.554619
579.397520,0.554551
579.720220,0.562098
580.042880,0.558969
580.365500,0.557247
580.688080,0.562754
581.010620,0.555181
581.333120,0.560788
581.655580,0.566101
581.978000,0.562355
582.300380,0.557936
582.622720,0.557350
582.945020,0.559493
583.267280,0.554217
583.589500,0.567897
583.911680,0.559860
584.233820,0.558388
584.555920,0.567602
584.877980,0.565327
585.200000,0.555249
585.521980,0.562249
585.843920,0.563758
586.165820,0.566118
586.487680,0.562745
586.809500,0.567357
587.131280,0.561964
587.453020,0.571131
587.774720,0.563572
588.096380,0.563011
588.418000,0.567749
588.739580,0.573153
589.061120,0.572168
589.382620,0.572779
589.704080,0.564656
590.025500,0.583904
590.346880,0.577010
590.668220,0.580510
590.989520,0.571270
591.310780,0.573322
591.632000,0.582240
591.953180,0.575145
592.274320,0.576031
592.595420,0.576239
592.916480,0.576202
593.237500,0.575317
593.558480,0.570621
593.879420,0.573510
594.200320,0.581034
594.521180,0.577424
594.842000,0.584901
595.162780,0.579861
595.483520,0.575645
595.804220,0.580021
596.124880,0.578737
596.445500,0.580037
596.766080,0.589675
597.086620,0.582803
597.407120,0.577672
597.727580,0.590560
598.048000,0.581857
598.368380,0.579958
598.688720,0.576671
599.009020,0.583864
599.329280,0.584886
599.649500,0.580296
599.969680,0.579327
600.289820,0.585737
600.609920,0.581085
600.929980,0.585783
601.250000,0.590270
601.569980,0.575479
601.889920,0.584870
602.209820,0.582251
602.529680,0.592694
602.849500,0.587289
603.169280,0.590521
603.489020,0.593689
603.808720,0.592156
604.128380,0.584989
604.448000,0.584807
604.767580,0.594134
605.087120,0.585873
605.406620,0.582704
605.726080,0.594525
606.045500,0.582892
606.364880,0.582648
606.684220,0.601371
607.003520,0.585149
607.322780,0.591245
607.642000,0.589891
607.961180,0.593235
608.280320,0.592807
608.599420,0.582271
608.918480,0.597947
609.237500,0.588322
609.556480,0.592483
609.875420,0.595983
610.194320,0.591674
610.513180,0.595442
610.832000,0.596784
611.150780,0.594172
611.469520,0.593062
611.788220,0.602177
612.106880,0.597407
612.425500,0.596224
612.744080,0.598338
613.062620,0.595413
613.381120,0.591712
613.699580,0.596567
614.018000,0.591523
614.336380,0.599321
614.654720,0.604651
614.973020,0.595804
615.291280,0.600558
615.609500,0.610143
615.927680,0.596724
616.245820,0.596166
616.563920,0.597762
616.881980,0.595884
617.200000,0.600000
617.517980,0.602676
617.835920,0.597701
618.153820,0.595897
618.471680,0.596899
618.789500,0.602266
619.107280,0.594679
619.425020,0.601332
619.742720,0.598242
620.060380,0.608273
620.378000,0.604154
620.695580,0.603448
621.013120,0.592441
621.330620,0.604016
621.648080,0.600000
621.965500,0.596926
622.282880,0.598361
622.600220,0.600758
622.917520,0.606490
623.234780,0.617486
623.552000,0.611076
623.869180,0.611094
624.186320,0.605221
624.503420,0.606897
624.820480,0.613886
625.137500,0.613830
625.454480,0.613004
625.771420,0.606873
626.088320,0.610656
626.405180,0.609210
626.722000,0.614492
627.038780,0.608083
627.355520,0.606250
627.672220,0.610575
627.988880,0.604044
628.305500,0.608912
628.622080,0.613693
628.938620,0.608869
629.255120,0.612010
629.571580,0.601594
629.888000,0.613992
630.204380,0.611537
630.520720,0.614260
630.837020,0.610237
631.153280,0.604616
631.469500,0.613705
631.785680,0.618445
632.101820,0.621532
632.417920,0.620566
632.733980,0.610444
633.050000,0.622498
633.365980,0.611737
633.681920,0.614558
633.997820,0.615660
634.313680,0.620171
634.629500,0.618107
634.945280,0.617009
635.261020,0.612269
635.576720,0.620669
635.892380,0.614290
636.208000,0.618245
636.523580,0.623210
636.839120,0.616966
637.154620,0.620290
637.470080,0.614060
637.785500,0.625147
638.100880,0.617434
638.416220,0.622663
638.731520,0.613467
639.046780,0.621031
639.362000,0.618979
639.677180,0.622501
639.992320,0.627855
640.307420,0.617027
640.622480,0.613834
640.937500,0.621082
641.252480,0.624127
641.567420,0.629156
641.882320,0.625000
642.197180,0.627737
642.512000,0.624125
642.826780,0.623301
643.141520,0.627674
643.456220,0.623409
643.770880,0.627418
644.085500,0.628843
644.400080,0.626966
644.714620,0.626533
645.029120,0.624587
645.343580,0.623697
645.658000,0.629475
645.972380,0.626747
646.286720,0.623331
646.601020,0.628287
646.915280,0.620784
647.229500,0.628297
647.543680,0.629660
647.857820,0.625929
648.171920,0.621541
648.485980,0.622088
648.800000,0.627446
649.113980,0.623614
649.427920,0.638003
649.741820,0.623798
650.055680,0.624246
650.369500,0.632567
650.683280,0.629301
650.997020,0.626513
651.310720,0.629884
651.624380,0.624176
651.938000,0.631856
652.251580,0.626218
652.565120,0.625489
652.878620,0.634572
653.192080,0.625000
653.505500,0.630014
653.818880,0.634063
654.132220,0.633723
654.445520,0.628758
654.758780,0.630878
655.072000,0.627794
655.385180,0.625678
655.698320,0.625607
656.011420,0.630840
656.324480,0.628680
656.637500,0.637022
656.950480,0.631533
657.263420,0.628436
657.576320,0.632375
657.889180,0.621351
658.202000,0.638285
658.514780,0.632926
658.827520,0.628752
659.140220,0.638298
659.452880,0.630927
659.765500,0.624323
660.078080,0.627746
660.390620,0.633364
660.703120,0.636725
661.015580,0.638650
661.328000,0.634446
661.640380,0.630009
661.952720,0.633448
662.265020,0.635476
662.577280,0.631997
662.889500,0.630716
663.201680,0.635929
663.513820,0.628176
663.825920,0.635607
664.137980,0.640595
664.450000,0.629156
664.761980,0.636334
665.073920,0.631613
665.385820,0.635798
665.697680,0.630413
666.009500,0.638510
666.321280,0.636846
666.633020,0.635306
666.944720,0.632289
667.256380,0.630552
667.568000,0.635530
667.879580,0.635714
668.191120,0.635989
668.502620,0.639507
668.814080,0.635439
669.125500,0.637017
669.436880,0.635546
669.748220,0.640014
670.059520,0.640056
670.370780,0.638483
670.682000,0.636460
670.993180,0.636011
671.304320,0.635373
671.615420,0.633523
671.926480,0.636977
672.237500,0.631654
672.548480,0.635557
672.859420,0.634024
673.170320,0.637650
673.481180,0.646995
673.792000,0.641904
674.102780,0.630521
674.413520,0.644914
674.724220,0.635572
675.034880,0.643931
675.345500,0.638220
675.656080,0.635209
675.966620,0.634049
676.277120,0.639326
676.587580,0.641016
676.898000,0.638671
677.208380,0.636229
677.518720,0.637126
677.829020,0.637472
678.139280,0.645663
678.449500,0.635722
678.759680,0.631323
679.069820,0.634572
679.379920,0.639004
679.689980,0.639064
680.000000,0.634766
680.309980,0.636971
680.619920,0.647103
680.929820,0.644270
681.239680,0.632201
681.549500,0.634815
681.859280,0.639283
682.169020,0.642671
682.478720,0.646597
682.788380,0.638612
683.098000,0.631638
683.407580,0.654034
683.717120,0.633258
684.026620,0.641190
684.336080,0.650246
684.645500,0.645716
684.954880,0.635059
685.264220,0.636467
685.573520,0.648268
685.882780,0.649789
686.192000,0.636945
686.501180,0.637911
686.810320,0.646810
687.119420,0.656024
687.428480,0.644132
687.737500,0.645817
688.046480,0.639954
688.355420,0.634100
688.664320,0.633894
688.973180,0.642802
689.282000,0.641204
689.590780,0.641488
689.899520,0.637676
690.208220,0.639526
690.516880,0.639939
690.825500,0.639245
691.134080,0.636674
691.442620,0.637576
691.751120,0.645051
692.059580,0.645778
692.368000,0.642938
692.676380,0.651908
692.984720,0.641985
693.293020,0.649316
693.601280,0.647463
693.909500,0.644722
694.217680,0.646992
694.525820,0.644707
694.833920,0.645174
695.141980,0.643656
695.450000,0.639695
695.757980,0.640183
696.065920,0.639223
696.373820,0.643187
696.681680,0.644035
696.989500,0.639907
697.297280,0.631661
697.605020,0.652381
697.912720,0.631437
698.220380,0.635970
698.528000,0.638054
698.835580,0.641249
699.143120,0.634451
699.450620,0.637232
699.758080,0.643137
700.065500,0.646049
700.372880,0.653200
700.680220,0.645792
700.987520,0.649603
701.294780,0.649635
701.602000,0.652536
701.909180,0.651431
702.216320,0.645287
702.523420,0.658642
702.830480,0.648713
703.137500,0.644973
703.444480,0.642604
703.751420,0.647337
704.058320,0.643846
704.365180,0.645899
704.672000,0.654653
704.978780,0.644557
705.285520,0.639671
705.592220,0.655294
705.898880,0.644208
706.205500,0.645931
706.512080,0.648104
706.818620,0.647833
707.125120,0.650000
707.431580,0.649082
707.738000,0.648047
708.044380,0.644925
708.350720,0.649599
708.657020,0.653771
708.963280,0.654891
709.269500,0.642661
709.575680,0.649116
709.881820,0.648192
710.187920,0.642023
710.493980,0.648953
710.800000,0.642258
711.105980,0.635166
711.411920,0.651557
711.717820,0.640156
712.023680,0.634279
712.329500,0.656151
712.635280,0.652713
712.941020,0.646695
713.246720,0.648221
713.552380,0.653061
713.858000,0.655499
714.163580,0.647198
714.469120,0.649082
714.774620,0.645874
715.080080,0.649784
715.385500,0.656675
715.690880,0.646548
715.996220,0.650158
716.301520,0.640711
716.606780,0.648978
716.912000,0.651454
717.217180,0.659218
717.522320,0.651292
717.827420,0.663954
718.132480,0.655560
718.437500,0.644925
718.742480,0.656855
719.047420,0.640372
719.352320,0.656289
719.657180,0.659035
719.962000,0.645161
720.266780,0.647694
720.571520,0.653273
720.876220,0.643208
721.180880,0.647993
721.485500,0.650648
721.790080,0.651805
722.094620,0.659520
722.399120,0.656183
722.703580,0.644664
723.008000,0.647693
723.312380,0.643564
723.616720,0.639184
723.921020,0.648333
724.225280,0.650524
724.529500,0.640105
724.833680,0.646352
725.137820,0.646696
725.441920,0.650022
725.745980,0.634899
726.050000,0.654037
726.353980,0.639477
726.657920,0.648223
726.961820,0.660731
727.265680,0.657420
727.569500,0.646252
727.873280,0.635104
728.177020,0.648088
728.480720,0.645833
728.784380,0.647722
729.088000,0.651908
729.391580,0.646613
729.695120,0.651631
729.998620,0.649618
730.302080,0.646324
730.605500,0.649685
730.908880,0.645762
731.212220,0.642997
731.515520,0.631887
731.818780,0.633495
732.122000,0.654528
732.425180,0.638245
732.728320,0.640059
733.031420,0.643108
733.334480,0.650000
733.637500,0.633569
733.940480,0.645343
734.243420,0.637615
734.546320,0.641079
734.849180,0.643595
735.152000,0.649896
735.454780,0.637913
735.757520,0.645416
736.060220,0.638231
736.362880,0.635504
736.665500,0.635509
736.968080,0.644277
737.270620,0.652150
737.573120,0.650655
737.875580,0.660253
738.178000,0.649973
738.480380,0.640541
738.782720,0.650491
739.085020,0.650330
739.387280,0.652993
739.689500,0.637599
739.991680,0.645705
740.293820,0.644555
740.595920,0.647746
740.897980,0.669113
741.200000,0.643298
741.501980,0.656160
741.803920,0.635135
742.105820,0.641850
742.407680,0.657542
742.709500,0.636364
743.011280,0.644197
743.313020,0.647536
743.614720,0.629716
743.916380,0.643023
744.218000,0.636635
744.519580,0.647343
744.821120,0.651497
745.122620,0.656081
745.424080,0.634615
745.725500,0.645142
746.026880,0.643473
746.328220,0.644266
746.629520,0.627935
746.930780,0.640319
747.232000,0.629675
747.533180,0.643075
747.834320,0.642727
748.135420,0.634556
748.436480,0.640674
748.737500,0.635578
749.038480,0.636530
749.339420,0.645924
749.640320,0.641735
749.941180,0.639600
750.242000,0.651382
750.542780,0.643300
750.843520,0.652787
751.144220,0.645513
751.444880,0.637920
751.745500,0.634416
752.046080,0.663246
752.346620,0.651418
752.647120,0.638798
752.947580,0.631953
753.248000,0.637653
753.548380,0.634353
753.848720,0.634900
754.149020,0.635719
754.449280,0.636901
754.749500,0.627074
755.049680,0.640667
755.349820,0.630420
755.649920,0.644415
755.949980,0.635036
756.250000,0.635108
756.549980,0.636304
756.849920,0.651937
757.149820,0.627412
757.449680,0.640924
757.749500,0.648262
758.049280,0.640273
758.349020,0.631433
758.648720,0.645963
758.948380,0.638488
759.248000,0.638814
759.547580,0.644923
759.847120,0.651275
760.146620,0.651556
760.446080,0.635753
760.745500,0.644755
761.044880,0.644886
761.344220,0.647185
761.643520,0.644068
761.942780,0.643107
762.242000,0.640028
762.541180,0.642254
762.840320,0.636938
763.139420,0.636428
763.438480,0.640465
763.737500,0.640937
764.036480,0.649895
764.335420,0.625265
764.634320,0.643105
764.933180,0.630822
765.232000,0.634282
765.530780,0.650526
765.829520,0.639860
766.128220,0.643702
766.426880,0.648898
766.725500,0.655243
767.024080,0.646091
767.322620,0.645920
767.621120,0.638889
767.919580,0.645051
768.218000,0.642271
768.516380,0.647059
768.814720,0.637174
769.113020,0.639559
769.411280,0.646409
769.709500,0.644114
770.007680,0.644853
770.305820,0.640297
770.603920,0.632749
770.901980,0.639344
771.200000,0.636549
771.497980,0.621314
771.795920,0.620736
772.093820,0.629679
772.391680,0.635465
772.689500,0.639189
772.987280,0.641751
773.285020,0.650718
773.582720,0.629054
773.880380,0.645848
774.178000,0.650988
774.475580,0.636303
774.773120,0.625167
775.070620,0.634888
775.368080,0.639947
775.665500,0.632639
775.962880,0.634423
776.260220,0.646030
776.557520,0.631087
776.854780,0.645030
777.152000,0.631963
777.449180,0.638570
777.746320,0.624328
778.043420,0.633015
778.340480,0.626522
778.637500,0.645707
778.934480,0.637525
779.231420,0.628901
779.528320,0.646627
779.825180,0.610672
780.122000,0.632802
780.418780,0.642955
780.715520,0.641851
781.012220,0.643151
781.308880,0.629479
781.605500,0.629452
781.902080,0.634497
782.198620,0.635680
782.495120,0.640604
782.791580,0.645117
783.088000,0.634921
783.384380,0.649243
783.680720,0.634063
783.977020,0.637990
784.273280,0.634266
784.569500,0.626834
784.865680,0.632823
785.161820,0.636806
785.457920,0.629245
785.753980,0.636427
786.050000,0.627072
786.345980,0.637500
786.641920,0.626648
786.937820,0.644587
787.233680,0.618650
787.529500,0.626907
787.825280,0.634561
788.121020,0.643059
788.416720,0.631616
788.712380,0.632581
789.008000,0.632436
789.303580,0.633922
789.599120,0.648727
789.894620,0.633935
790.190080,0.638869
790.485500,0.624910
790.780880,0.624373
791.076220,0.628427
791.371520,0.634713
791.666780,0.641455
791.962000,0.624541
792.257180,0.646413
792.552320,0.639594
792.847420,0.622271
793.142480,0.632234
793.437500,0.632417
793.732480,0.634967
794.027420,0.613501
794.322320,0.642058
794.617180,0.638930
794.912000,0.628529
795.206780,0.629381
795.501520,0.631179
795.796220,0.628148
796.090880,0.636775
796.385500,0.618441
796.680080,0.622289
796.974620,0.633234
797.269120,0.632854
797.563580,0.635878
797.858000,0.639332
798.152380,0.645785
798.446720,0.635385
798.741020,0.628659
799.035280,0.636646
799.329500,0.632794
799.623680,0.639535
