399.985280,0.174603
400.329500,0.236111
400.673680,0.213333
401.017820,0.121951
401.361920,0.208333
401.705980,0.216216
402.050000,0.214286
402.393980,0.244186
402.737920,0.214286
403.081820,0.154762
403.425680,0.190476
403.769500,0.139535
404.113280,0.192771
404.457020,0.176471
404.800720,0.211111
405.144380,0.155556
405.488000,0.172043
405.831580,0.137931
406.175120,0.193878
406.518620,0.185567
406.862080,0.200000
407.205500,0.196078
407.548880,0.222222
407.892220,0.187500
408.235520,0.210526
408.578780,0.200000
408.922000,0.225806
409.265180,0.122222
409.608320,0.182692
409.951420,0.152174
410.294480,0.181818
410.637500,0.200000
410.980480,0.250000
411.323420,0.268041
411.666320,0.303030
412.009180,0.220183
412.352000,0.209091
412.694780,0.225490
413.037520,0.181818
413.380220,0.238095
413.722880,0.214953
414.065500,0.201835
414.408080,0.216667
414.750620,0.136000
415.093120,0.181818
415.435580,0.253968
415.778000,0.160305
416.120380,0.198347
416.462720,0.225000
416.805020,0.194030
417.147280,0.226562
417.489500,0.169118
417.831680,0.224638
418.173820,0.213740
418.515920,0.265306
418.857980,0.238994
419.200000,0.222930
419.541980,0.222222
419.883920,0.243750
420.225820,0.229412
420.567680,0.211765
420.909500,0.246988
421.251280,0.234375
421.593020,0.263736
421.934720,0.247312
422.276380,0.247423
422.618000,0.264249
422.959580,0.240000
423.301120,0.248826
423.642620,0.240566
423.984080,0.226601
424.325500,0.238739
424.666880,0.242152
425.008220,0.278261
425.349520,0.255605
425.690780,0.245690
426.032000,0.265823
426.373180,0.220408
426.714320,0.263830
427.055420,0.225410
427.396480,0.264706
427.737500,0.243802
428.078480,0.230159
428.419420,0.241935
428.760320,0.253012
429.101180,0.265823
429.442000,0.258964
429.782780,0.273859
430.123520,0.286275
430.464220,0.252918
430.804880,0.255906
431.145500,0.253788
431.486080,0.286822
431.826620,0.250965
432.167120,0.254902
432.507580,0.251938
432.848000,0.250980
433.188380,0.291045
433.528720,0.268199
433.869020,0.255725
434.209280,0.288390
434.549500,0.283582
434.889680,0.288809
435.229820,0.275862
435.569920,0.243243
435.909980,0.276451
436.250000,0.278388
436.589980,0.291096
436.929920,0.300000
437.269820,0.280405
437.609680,0.299035
437.949500,0.297125
438.289280,0.283988
438.629020,0.279365
438.968720,0.263323
439.308380,0.284024
439.648000,0.302671
439.987580,0.284916
440.327120,0.279661
440.666620,0.289326
441.006080,0.259358
441.345500,0.270886
441.684880,0.292428
442.024220,0.294906
442.363520,0.303030
442.702780,0.290865
443.042000,0.283410
443.381180,0.299304
443.720320,0.301370
444.059420,0.317757
444.398480,0.304740
444.737500,0.278509
445.076480,0.310421
445.415420,0.294248
445.754320,0.296214
446.093180,0.292181
446.432000,0.294355
446.770780,0.321932
447.109520,0.291585
447.448220,0.292585
447.786880,0.312749
448.125500,0.284615
448.464080,0.308448
448.802620,0.314885
449.141120,0.300567
449.479580,0.294118
449.818000,0.300188
450.156380,0.290614
450.494720,0.290780
450.833020,0.307839
451.171280,0.287619
451.509500,0.303940
451.847680,0.320583
452.185820,0.313433
452.523920,0.316479
452.861980,0.308394
453.200000,0.308824
453.537980,0.310987
453.875920,0.316667
454.213820,0.308411
454.551680,0.318352
454.889500,0.313297
455.227280,0.316832
455.565020,0.337143
455.902720,0.322160
456.240380,0.331461
456.578000,0.325048
456.915580,0.328386
457.253120,0.323583
457.590620,0.329159
457.928080,0.323689
458.265500,0.317029
458.602880,0.336347
458.940220,0.320423
459.277520,0.330357
459.614780,0.325744
459.952000,0.305743
460.289180,0.338435
460.626320,0.337884
460.963420,0.325383
461.300480,0.332787
461.637500,0.329966
461.974480,0.330049
462.311420,0.336000
462.648320,0.317742
462.985180,0.341085
463.322000,0.335937
463.658780,0.321752
463.995520,0.326807
464.332220,0.339623
464.668880,0.344675
465.005500,0.332406
465.342080,0.343575
465.678620,0.340054
466.015120,0.339752
466.351580,0.338776
466.688000,0.341689
467.024380,0.324254
467.360720,0.341943
467.697020,0.338164
468.033280,0.340194
468.369500,0.350000
468.705680,0.349398
469.041820,0.345307
469.377920,0.342823
469.713980,0.344595
470.050000,0.359358
470.385980,0.356061
470.721920,0.339723
471.057820,0.352758
471.393680,0.332317
471.729500,0.342914
472.065280,0.364971
472.401020,0.345489
472.736720,0.357895
473.072380,0.344326
473.408000,0.351124
473.743580,0.357685
474.079120,0.350894
474.414620,0.348582
474.750080,0.361854
475.085500,0.361818
475.420880,0.365876
475.756220,0.351472
476.091520,0.352617
476.426780,0.363636
476.762000,0.368700
477.097180,0.374775
477.432320,0.370404
477.767420,0.360360
478.102480,0.363636
478.437500,0.376325
478.772480,0.369258
479.107420,0.361160
479.442320,0.354697
479.777180,0.364646
480.112000,0.365939
480.446780,0.362996
480.781520,0.366025
481.116220,0.367786
481.450880,0.370629
481.785500,0.372313
482.120080,0.363176
482.454620,0.362010
482.789120,0.371252
483.123580,0.378007
483.458000,0.381076
483.792380,0.373928
484.126720,0.377342
484.461020,0.382812
484.795280,0.381679
485.129500,0.381866
485.463680,0.388136
485.797820,0.377907
486.131920,0.384746
486.465980,0.385267
486.800000,0.387342
487.133980,0.383459
487.467920,0.387552
487.801820,0.387839
488.135680,0.379592
488.469500,0.381773
488.803280,0.384058
489.137020,0.394930
489.470720,0.383550
489.804380,0.384491
490.138000,0.394355
490.471580,0.375786
490.805120,0.397436
491.138620,0.379630
491.472080,0.378939
491.805500,0.384146
492.138880,0.382375
492.472220,0.391933
492.805520,0.389302
493.138780,0.396114
493.472000,0.400743
493.805180,0.400436
494.138320,0.397270
494.471420,0.393035
494.804480,0.395415
495.137500,0.395105
495.470480,0.401526
495.803420,0.400000
496.136320,0.399324
496.469180,0.410428
496.802000,0.400943
497.134780,0.399073
497.467520,0.407287
497.800220,0.409499
498.132880,0.412587
498.465500,0.401262
498.798080,0.409091
499.130620,0.407659
499.463120,0.419676
499.795580,0.411009
500.128000,0.413793
500.460380,0.411243
500.792720,0.407773
501.125020,0.407834
501.457280,0.414997
501.789500,0.418172
502.121680,0.415221
502.453820,0.417877
502.785920,0.409539
503.117980,0.415501
503.450000,0.421373
503.781980,0.413964
504.113920,0.418455
504.445820,0.406482
504.777680,0.412565
505.109500,0.420282
505.441280,0.415272
505.773020,0.425965
506.104720,0.418304
506.436380,0.433472
506.768000,0.422360
507.099580,0.420495
507.431120,0.425389
507.762620,0.433022
508.094080,0.430484
508.425500,0.433437
508.756880,0.429731
509.088220,0.425246
509.419520,0.428646
509.750780,0.426448
510.082000,0.421162
510.413180,0.426523
510.744320,0.430982
511.075420,0.431272
511.406480,0.427529
511.737500,0.433523
512.068480,0.429381
512.399420,0.430585
512.730320,0.431950
513.061180,0.437335
513.392000,0.439619
513.722780,0.443432
514.053520,0.449067
514.384220,0.434667
514.714880,0.434736
515.045500,0.436050
515.376080,0.440669
515.706620,0.441335
516.037120,0.442381
516.367580,0.440176
516.698000,0.443401
517.028380,0.442968
517.358720,0.450084
517.689020,0.433132
518.019280,0.443080
518.349500,0.436937
518.679680,0.440341
519.009820,0.445067
519.339920,0.443638
519.669980,0.438833
520.000000,0.445321
520.329980,0.455336
520.659920,0.447982
520.989820,0.439542
521.319680,0.450656
521.649500,0.446367
521.979280,0.445714
522.309020,0.456560
522.638720,0.458884
522.968380,0.449885
523.298000,0.440767
523.627580,0.450144
523.957120,0.451557
524.286620,0.454334
524.616080,0.452504
524.945500,0.454439
525.274880,0.456069
525.604220,0.450575
525.933520,0.453026
526.262780,0.450286
526.592000,0.458777
526.921180,0.447592
527.250320,0.456998
527.579420,0.451541
527.908480,0.461665
528.237500,0.451897
528.566480,0.458953
528.895420,0.459356
529.224320,0.470232
529.553180,0.448643
529.882000,0.462406
530.210780,0.455514
530.539520,0.465572
530.868220,0.464588
531.196880,0.467656
531.525500,0.460293
531.854080,0.470213
532.182620,0.466454
532.511120,0.461735
532.839580,0.480040
533.168000,0.475610
533.496380,0.474482
533.824720,0.475037
534.153020,0.466568
534.481280,0.481832
534.809500,0.477328
535.137680,0.480273
535.465820,0.476488
535.793920,0.467704
536.121980,0.464253
536.450000,0.481499
536.777980,0.484579
537.105920,0.485886
537.433820,0.464968
537.761680,0.476040
538.089500,0.468513
538.417280,0.472591
538.745020,0.471993
539.072720,0.488403
539.400380,0.486026
539.728000,0.481242
540.055580,0.483898
540.383120,0.477680
540.710620,0.486656
541.038080,0.484084
541.365500,0.481360
541.692880,0.486111
542.020220,0.482897
542.347520,0.484282
542.674780,0.481909
543.002000,0.489949
543.329180,0.485524
543.656320,0.489828
543.983420,0.488077
544.310480,0.492070
544.637500,0.486682
544.964480,0.490144
545.291420,0.486090
545.618320,0.490827
545.945180,0.508110
546.272000,0.492371
546.598780,0.491870
546.925520,0.495167
547.252220,0.484960
547.578880,0.495920
547.905500,0.494440
548.232080,0.499445
548.558620,0.499263
548.885120,0.498327
549.211580,0.492526
549.538000,0.498714
549.864380,0.493040
550.190720,0.497986
550.517020,0.499816
550.843280,0.487509
551.169500,0.493071
551.495680,0.501308
551.821820,0.508537
552.147920,0.506324
552.473980,0.509370
552.800000,0.499625
553.125980,0.502624
553.451920,0.493274
553.777820,0.500189
554.103680,0.501149
554.429500,0.502855
554.755280,0.501894
555.081020,0.496544
555.406720,0.509515
555.732380,0.501938
556.058000,0.498834
556.383580,0.505259
556.709120,0.500000
557.034620,0.499611
557.360080,0.503332
557.685500,0.502769
558.010880,0.507686
558.336220,0.507264
558.661520,0.507469
558.986780,0.508290
559.312000,0.501610
559.637180,0.504098
559.962320,0.512235
560.287420,0.507344
560.612480,0.507426
560.937500,0.506240
561.262480,0.503505
561.587420,0.517140
561.912320,0.504814
562.237180,0.506953
562.562000,0.505508
562.886780,0.505237
563.211520,0.503398
563.536220,0.509762
563.860880,0.514612
564.185500,0.505752
564.510080,0.511598
564.834620,0.514027
565.159120,0.515853
565.483580,0.504950
565.808000,0.511188
566.132380,0.510187
566.456720,0.506019
566.781020,0.517065
567.105280,0.508628
567.429500,0.515531
567.753680,0.505801
568.077820,0.514725
568.401920,0.506280
568.725980,0.509595
569.050000,0.509491
569.373980,0.517137
569.697920,0.507391
570.021820,0.510998
570.345680,0.518341
570.669500,0.515625
570.993280,0.527010
571.317020,0.517212
571.640720,0.514310
571.964380,0.513169
572.288000,0.519475
572.611580,0.511550
572.935120,0.527496
573.258620,0.515062
573.582080,0.523207
573.905500,0.511102
574.228880,0.518098
574.552220,0.516840
574.875520,0.528061
575.198780,0.518961
575.522000,0.517716
575.845180,0.516235
576.168320,0.532065
576.491420,0.523052
576.814480,0.530116
577.137500,0.513889
577.460480,0.525319
577.783420,0.530371
578.106320,0.531426
578.429180,0.533414
578.752000,0.532315
579.074780,0.519485
579.397520,0.543892
579.720220,0.522157
580.042880,0.526158
580.365500,0.532955
580.688080,0.530402
581.010620,0.528549
581.333120,0.530869
581.655580,0.525800
581.978000,0.525843
582.300380,0.536145
582.622720,0.527923
582.945020,0.536822
583.267280,0.531297
583.589500,0.533846
583.911680,0.529028
584.233820,0.520803
584.555920,0.532660
584.877980,0.534305
585.200000,0.534452
585.521980,0.525913
585.843920,0.533727
586.165820,0.538887
586.487680,0.531572
586.809500,0.525886
587.131280,0.531792
587.453020,0.540034
587.774720,0.537521
588.096380,0.529974
588.418000,0.536888
588.739580,0.534800
589.061120,0.539019
589.382620,0.532723
589.704080,0.538612
590.025500,0.529068
590.346880,0.532443
590.668220,0.530956
590.989520,0.533162
591.310780,0.539532
591.632000,0.535278
591.953180,0.544874
592.274320,0.538462
592.595420,0.538198
592.916480,0.537539
593.237500,0.542123
593.558480,0.529991
593.879420,0.540105
594.200320,0.531509
594.521180,0.547767
594.842000,0.544022
595.162780,0.545736
595.483520,0.547678
595.804220,0.537327
596.124880,0.536800
596.445500,0.541198
596.766080,0.540750
597.086620,0.545483
597.407120,0.545288
597.727580,0.547071
598.048000,0.538227
598.368380,0.548024
598.688720,0.542648
599.009020,0.546075
599.329280,0.540599
599.649500,0.537802
599.969680,0.551266
600.289820,0.548910
600.609920,0.548026
600.929980,0.551530
601.250000,0.537136
601.569980,0.545169
601.889920,0.541316
602.209820,0.543540
602.529680,0.542320
602.849500,0.547680
603.169280,0.547200
603.489020,0.541442
603.808720,0.548346
604.128380,0.549679
604.448000,0.545161
604.767580,0.546482
605.087120,0.536822
605.406620,0.550881
605.726080,0.552234
606.045500,0.546641
606.364880,0.532875
606.684220,0.544195
607.003520,0.541779
607.322780,0.545966
607.642000,0.542848
607.961180,0.542521
608.280320,0.543405
608.599420,0.549473
608.918480,0.545393
609.237500,0.549046
609.556480,0.544588
609.875420,0.551402
610.194320,0.541537
610.513180,0.551880
610.832000,0.550715
611.150780,0.553273
611.469520,0.552697
611.788220,0.542438
612.106880,0.543357
612.425500,0.543983
612.744080,0.550683
613.062620,0.558031
613.381120,0.549876
613.699580,0.556830
614.018000,0.552584
614.336380,0.544739
614.654720,0.544601
614.973020,0.550704
615.291280,0.547353
615.609500,0.553565
615.927680,0.557049
616.245820,0.547516
616.563920,0.547905
616.881980,0.554269
617.200000,0.540717
617.517980,0.546812
617.835920,0.549327
618.153820,0.552564
618.471680,0.543612
618.789500,0.538602
619.107280,0.553824
619.425020,0.558845
619.742720,0.550328
620.060380,0.554855
620.378000,0.551132
620.695580,0.547163
621.013120,0.548727
621.330620,0.550603
621.648080,0.547858
621.965500,0.543075
622.282880,0.552349
622.600220,0.549249
622.917520,0.551103
623.234780,0.546805
623.552000,0.542261
623.869180,0.557728
624.186320,0.549005
624.503420,0.552775
624.820480,0.555801
625.137500,0.564993
625.454480,0.557968
625.771420,0.563623
626.088320,0.553734
626.405180,0.552831
626.722000,0.550110
627.038780,0.555270
627.355520,0.563896
627.672220,0.553623
627.988880,0.543250
628.305500,0.548780
628.622080,0.555234
628.938620,0.560475
629.255120,0.560102
629.571580,0.562909
629.888000,0.562274
630.204380,0.553283
630.520720,0.547543
630.837020,0.549626
631.153280,0.558205
631.469500,0.553992
631.785680,0.556065
632.101820,0.559549
632.417920,0.562720
632.733980,0.556491
633.050000,0.553771
633.365980,0.555132
633.681920,0.559482
633.997820,0.560569
634.313680,0.562522
634.629500,0.565111
634.945280,0.557996
635.261020,0.559177
635.576720,0.557777
635.892380,0.550577
636.208000,0.556350
636.523580,0.553401
636.839120,0.556081
637.154620,0.555668
637.470080,0.558635
637.785500,0.555140
638.100880,0.556834
638.416220,0.554588
638.731520,0.556642
639.046780,0.558693
639.362000,0.557745
639.677180,0.554997
639.992320,0.562024
640.307420,0.550462
640.622480,0.559204
640.937500,0.565203
641.252480,0.565690
641.567420,0.566800
641.882320,0.563218
642.197180,0.559594
642.512000,0.559555
642.826780,0.559217
643.141520,0.560631
643.456220,0.551387
643.770880,0.554662
644.085500,0.557166
644.400080,0.562150
644.714620,0.551927
645.029120,0.554124
645.343580,0.555022
645.658000,0.552258
645.972380,0.560142
646.286720,0.563881
646.601020,0.559202
646.915280,0.562601
647.229500,0.556818
647.543680,0.556250
647.857820,0.566273
648.171920,0.554945
648.485980,0.558177
648.800000,0.565927
649.113980,0.552537
649.427920,0.563959
649.741820,0.557995
650.055680,0.547795
650.369500,0.545930
650.683280,0.563116
650.997020,0.555447
651.310720,0.546636
651.624380,0.556505
651.938000,0.555592
652.251580,0.560199
652.565120,0.560651
652.878620,0.562187
653.192080,0.562292
653.505500,0.555592
653.818880,0.555259
654.132220,0.546912
654.445520,0.557421
654.758780,0.558953
655.072000,0.546567
655.385180,0.560735
655.698320,0.553711
656.011420,0.555480
656.324480,0.557639
656.637500,0.563147
656.950480,0.558392
657.263420,0.556215
657.576320,0.561217
657.889180,0.552687
658.202000,0.558354
658.514780,0.555360
658.827520,0.560014
659.140220,0.560818
659.452880,0.556431
659.765500,0.554874
660.078080,0.560000
660.390620,0.560689
660.703120,0.560234
661.015580,0.561423
661.328000,0.561987
661.640380,0.557322
661.952720,0.554320
662.265020,0.557000
662.577280,0.551737
662.889500,0.552542
663.201680,0.566514
663.513820,0.549539
663.825920,0.561263
664.137980,0.555556
664.450000,0.550402
664.761980,0.559203
665.073920,0.549864
665.385820,0.551292
665.697680,0.568884
666.009500,0.547870
666.321280,0.553963
666.633020,0.547891
666.944720,0.554709
667.256380,0.554038
667.568000,0.551345
667.879580,0.553977
668.191120,0.556504
668.502620,0.550861
668.814080,0.555648
669.125500,0.556465
669.436880,0.546540
669.748220,0.561178
670.059520,0.553757
670.370780,0.557820
670.682000,0.547899
670.993180,0.547311
671.304320,0.545266
671.615420,0.551768
671.926480,0.550712
672.237500,0.545416
672.548480,0.559605
672.859420,0.554557
673.170320,0.551531
673.481180,0.543785
673.792000,0.547038
674.102780,0.558290
674.413520,0.561983
674.724220,0.550324
675.034880,0.558515
675.345500,0.551709
675.656080,0.552206
675.966620,0.558785
676.277120,0.545730
676.587580,0.555998
676.898000,0.561419
677.208380,0.559135
677.518720,0.549494
677.829020,0.551801
678.139280,0.553935
678.449500,0.558824
678.759680,0.548661
679.069820,0.561411
679.379920,0.550022
679.689980,0.553484
680.000000,0.559390
680.309980,0.553428
680.619920,0.561879
680.929820,0.550893
681.239680,0.557333
681.549500,0.544733
681.859280,0.549933
682.169020,0.554163
682.478720,0.545253
682.788380,0.550985
683.098000,0.541260
683.407580,0.548949
683.717120,0.551709
684.026620,0.552158
684.336080,0.550409
684.645500,0.547896
684.954880,0.564701
685.264220,0.553182
685.573520,0.550068
685.882780,0.547759
686.192000,0.569419
686.501180,0.561700
686.810320,0.557861
687.119420,0.548081
687.428480,0.551833
687.737500,0.552595
688.046480,0.553719
688.355420,0.555104
688.664320,0.550206
688.973180,0.554633
689.282000,0.558501
689.590780,0.556019
689.899520,0.563393
690.208220,0.555505
690.516880,0.549199
690.825500,0.544837
691.134080,0.541590
691.442620,0.560964
691.751120,0.551317
692.059580,0.558729
692.368000,0.561757
692.676380,0.556474
692.984720,0.555198
693.293020,0.551567
693.601280,0.551930
693.909500,0.549545
694.217680,0.552212
694.525820,0.555301
694.833920,0.545163
695.141980,0.563374
695.450000,0.559981
695.757980,0.559869
696.065920,0.552619
696.373820,0.559869
696.681680,0.548826
696.989500,0.546796
697.297280,0.543083
697.605020,0.544601
697.912720,0.553371
698.220380,0.550759
698.528000,0.551724
698.835580,0.548571
699.143120,0.550212
699.450620,0.550000
699.758080,0.556938
700.065500,0.552404
700.372880,0.540153
700.680220,0.556807
700.987520,0.548155
701.294780,0.549493
701.602000,0.554650
701.909180,0.563576
702.216320,0.552246
702.523420,0.550428
702.830480,0.541429
703.137500,0.543519
703.444480,0.555395
703.751420,0.557974
704.058320,0.553435
704.365180,0.556622
704.672000,0.554171
704.978780,0.556140
705.285520,0.549669
705.592220,0.551871
705.898880,0.543675
706.205500,0.551270
706.512080,0.544061
706.818620,0.549697
707.125120,0.541667
707.431580,0.546705
707.738000,0.541844
708.044380,0.544476
708.350720,0.540390
708.657020,0.539972
708.963280,0.547720
709.269500,0.540681
709.575680,0.545021
709.881820,0.537882
710.187920,0.554131
710.493980,0.545455
710.800000,0.545750
711.105980,0.541187
711.411920,0.547926
711.717820,0.545713
712.023680,0.543943
712.329500,0.549503
712.635280,0.547339
712.941020,0.551252
713.246720,0.546770
713.552380,0.545066
713.858000,0.537428
714.163580,0.554217
714.469120,0.546935
714.774620,0.541289
715.080080,0.545713
715.385500,0.549472
715.690880,0.542405
715.996220,0.553477
716.301520,0.554594
716.606780,0.550843
716.912000,0.535007
717.217180,0.551891
717.522320,0.542857
717.827420,0.540168
718.132480,0.543774
718.437500,0.537129
718.742480,0.529383
719.047420,0.536282
719.352320,0.540270
719.657180,0.550249
719.962000,0.548940
720.266780,0.545869
720.571520,0.546189
720.876220,0.547883
721.180880,0.537802
721.485500,0.544297
721.790080,0.531568
722.094620,0.536989
722.399120,0.534896
722.703580,0.537008
723.008000,0.548387
723.312380,0.538985
723.616720,0.536826
723.921020,0.547430
724.225280,0.534538
724.529500,0.542811
724.833680,0.541240
725.137820,0.527215
725.441920,0.537168
725.745980,0.532967
726.050000,0.540066
726.353980,0.539779
726.657920,0.545810
726.961820,0.534615
727.265680,0.535039
727.569500,0.535915
727.873280,0.535877
728.177020,0.538591
728.480720,0.535674
728.784380,0.532683
729.088000,0.533181
729.391580,0.536374
729.695120,0.537262
729.998620,0.533918
730.302080,0.538325
730.605500,0.530516
730.908880,0.538737
731.212220,0.522156
731.515520,0.542363
731.818780,0.534483
732.122000,0.526791
732.425180,0.536170
732.728320,0.544280
733.031420,0.534926
733.334480,0.538462
733.637500,0.537986
733.940480,0.538798
734.243420,0.527397
734.546320,0.543915
734.849180,0.535398
735.152000,0.536369
735.454780,0.538068
735.757520,0.536680
736.060220,0.514725
736.362880,0.538313
736.665500,0.528450
736.968080,0.523067
737.270620,0.544661
737.573120,0.533865
737.875580,0.526596
738.178000,0.528314
738.480380,0.535306
738.782720,0.528466
739.085020,0.534553
739.387280,0.530210
739.689500,0.522774
739.991680,0.535027
740.293820,0.516610
740.595920,0.534915
740.897980,0.525225
741.200000,0.519375
741.501980,0.516308
741.803920,0.538515
742.105820,0.532020
742.407680,0.528955
742.709500,0.535689
743.011280,0.533189
743.313020,0.529957
743.614720,0.528944
743.916380,0.541787
744.218000,0.525974
744.519580,0.533135
744.821120,0.526125
745.122620,0.531204
745.424080,0.524021
745.725500,0.528316
746.026880,0.552790
746.328220,0.537998
746.629520,0.534340
746.930780,0.540644
747.232000,0.531915
747.533180,0.532824
747.834320,0.524128
748.135420,0.537984
748.436480,0.517665
748.737500,0.530139
749.038480,0.528388
749.339420,0.515742
749.640320,0.535115
749.941180,0.513037
750.242000,0.521073
750.542780,0.513825
750.843520,0.529781
751.144220,0.537660
751.444880,0.540303
751.745500,0.514601
752.046080,0.531029
752.346620,0.533495
752.647120,0.536566
752.947580,0.531401
753.248000,0.533173
753.548380,0.525285
753.848720,0.527244
754.149020,0.527214
754.449280,0.530763
754.749500,0.522486
755.049680,0.532164
755.349820,0.504886
755.649920,0.545754
755.949980,0.533497
756.250000,0.531829
756.549980,0.514730
756.849920,0.537364
757.149820,0.521197
757.449680,0.519769
757.749500,0.520134
758.049280,0.522425
758.349020,0.529974
758.648720,0.523649
758.948380,0.519898
759.248000,0.512799
759.547580,0.531879
759.847120,0.534527
760.146620,0.518797
760.446080,0.521411
760.745500,0.533742
761.044880,0.524348
761.344220,0.532086
761.643520,0.528187
761.942780,0.510566
762.242000,0.521968
762.541180,0.521441
762.840320,0.523601
763.139420,0.528484
763.438480,0.518052
763.737500,0.509721
764.036480,0.518519
764.335420,0.516073
764.634320,0.515437
764.933180,0.525000
765.232000,0.517627
765.530780,0.520870
765.829520,0.519182
766.128220,0.518135
766.426880,0.508225
766.725500,0.513080
767.024080,0.515825
767.322620,0.513423
767.621120,0.514975
767.919580,0.514975
768.218000,0.512799
768.516380,0.519052
768.814720,0.519481
769.113020,0.508418
769.411280,0.531384
769.709500,0.507793
770.007680,0.522139
770.305820,0.530664
770.603920,0.525826
770.901980,0.525597
771.200000,0.521222
771.497980,0.506394
771.795920,0.525566
772.093820,0.510118
772.391680,0.515372
772.689500,0.516584
772.987280,0.518062
773.285020,0.520408
773.582720,0.519199
773.880380,0.524686
774.178000,0.517736
774.475580,0.529707
774.773120,0.514901
775.070620,0.506973
775.368080,0.516611
775.665500,0.518519
775.962880,0.515807
776.260220,0.522325
776.557520,0.524834
776.854780,0.509496
777.152000,0.526622
777.449180,0.513267
777.746320,0.519295
778.043420,0.527566
778.340480,0.504926
778.637500,0.514620
778.934480,0.507525
779.231420,0.503344
779.528320,0.517707
779.825180,0.515586
780.122000,0.512175
780.418780,0.505025
780.715520,0.497091
781.012220,0.513080
781.308880,0.513036
781.605500,0.518803
781.902080,0.518487
782.198620,0.511945
782.495120,0.523490
782.791580,0.509244
783.088000,0.510638
783.384380,0.508418
783.680720,0.498745
783.977020,0.498721
784.273280,0.487743
784.569500,0.512821
784.865680,0.529207
785.161820,0.514894
785.457920,0.512842
785.753980,0.507653
786.050000,0.502573
786.345980,0.507799
786.641920,0.515598
786.937820,0.512090
787.233680,0.517873
787.529500,0.495690
787.825280,0.516696
788.121020,0.516608
788.416720,0.507411
788.712380,0.513986
789.008000,0.527159
789.303580,0.518320
789.599120,0.523119
789.894620,0.506228
790.190080,0.499107
790.485500,0.512064
790.780880,0.492458
791.076220,0.514181
791.371520,0.511733
791.666780,0.500000
791.962000,0.502727
792.257180,0.516988
792.552320,0.502693
792.847420,0.525093
793.142480,0.512374
793.437500,0.503610
793.732480,0.506775
794.027420,0.522107
794.322320,0.504596
794.617180,0.509749
794.912000,0.509841
795.206780,0.514445
795.501520,0.510758
795.796220,0.513796
796.090880,0.508937
796.385500,0.500000
796.680080,0.489381
796.974620,0.498134
797.269120,0.514451
797.563580,0.497644
797.858000,0.507878
798.152380,0.506731
798.446720,0.510963
798.741020,0.500000
799.035280,0.502935
799.329500,0.502420
799.623680,0.512054
