399.985280,0.202703
400.329500,0.175676
400.673680,0.177215
401.017820,0.279412
401.361920,0.075758
401.705980,0.182927
402.050000,0.207792
402.393980,0.247059
402.737920,0.224719
403.081820,0.164948
403.425680,0.162791
403.769500,0.145833
404.113280,0.229885
404.457020,0.179775
404.800720,0.163043
405.144380,0.313131
405.488000,0.247312
405.831580,0.175258
406.175120,0.180851
406.518620,0.240000
406.862080,0.216495
407.205500,0.166667
407.548880,0.163265
407.892220,0.215686
408.235520,0.244681
408.578780,0.171429
408.922000,0.192308
409.265180,0.252525
409.608320,0.252525
409.951420,0.237113
410.294480,0.225490
410.637500,0.195652
410.980480,0.196078
411.323420,0.244898
411.666320,0.229358
412.009180,0.263636
412.352000,0.168317
412.694780,0.220183
413.037520,0.247706
413.380220,0.216216
413.722880,0.223214
414.065500,0.216216
414.408080,0.159292
414.750620,0.194690
415.093120,0.223140
415.435580,0.226891
415.778000,0.212121
416.120380,0.176471
416.462720,0.214286
416.805020,0.180451
417.147280,0.179104
417.489500,0.207143
417.831680,0.178082
418.173820,0.212766
418.515920,0.237762
418.857980,0.189873
419.200000,0.198718
419.541980,0.230769
419.883920,0.213483
420.225820,0.202312
420.567680,0.195531
420.909500,0.207650
421.251280,0.229167
421.593020,0.168367
421.934720,0.202020
422.276380,0.205128
422.618000,0.240196
422.959580,0.210784
423.301120,0.200913
423.642620,0.186957
423.984080,0.204651
424.325500,0.197309
424.666880,0.211207
425.008220,0.168067
425.349520,0.199153
425.690780,0.188462
426.032000,0.203922
426.373180,0.207469
426.714320,0.207031
427.055420,0.189189
427.396480,0.202247
427.737500,0.181818
428.078480,0.189723
428.419420,0.200803
428.760320,0.195402
429.101180,0.220472
429.442000,0.222222
429.782780,0.192308
430.123520,0.196078
430.464220,0.206642
430.804880,0.237548
431.145500,0.207273
431.486080,0.228464
431.826620,0.224806
432.167120,0.205882
432.507580,0.221014
432.848000,0.197842
433.188380,0.220217
433.528720,0.207547
433.869020,0.207143
434.209280,0.185965
434.549500,0.191638
434.889680,0.222222
435.229820,0.201365
435.569920,0.190311
435.909980,0.184466
436.250000,0.223729
436.589980,0.188854
436.929920,0.200000
437.269820,0.194357
437.609680,0.218935
437.949500,0.198795
438.289280,0.192635
438.629020,0.223837
438.968720,0.209302
439.308380,0.195122
439.648000,0.189041
439.987580,0.211640
440.327120,0.200000
440.666620,0.181818
441.006080,0.214834
441.345500,0.211302
441.684880,0.205742
442.024220,0.198511
442.363520,0.202381
442.702780,0.200000
443.042000,0.185022
443.381180,0.198276
443.720320,0.220302
444.059420,0.199580
444.398480,0.198745
444.737500,0.202869
445.076480,0.202381
445.415420,0.199601
445.754320,0.197505
446.093180,0.198165
446.432000,0.218045
446.770780,0.204934
447.109520,0.211397
447.448220,0.203936
447.786880,0.214669
448.125500,0.217241
448.464080,0.203571
448.802620,0.202128
449.141120,0.198962
449.479580,0.204545
449.818000,0.220310
450.156380,0.214047
450.494720,0.213223
450.833020,0.199301
451.171280,0.196918
451.509500,0.212544
451.847680,0.210793
452.185820,0.208262
452.523920,0.207904
452.861980,0.204047
453.200000,0.207641
453.537980,0.198319
453.875920,0.216807
454.213820,0.200342
454.551680,0.210265
454.889500,0.204047
455.227280,0.208185
455.565020,0.202680
455.902720,0.226290
456.240380,0.193012
456.578000,0.205575
456.915580,0.217617
457.253120,0.217105
457.590620,0.208539
457.928080,0.207071
458.265500,0.217905
458.602880,0.207792
458.940220,0.208122
459.277520,0.216000
459.614780,0.216039
459.952000,0.203416
460.289180,0.212025
460.626320,0.214173
460.963420,0.201939
461.300480,0.203364
461.637500,0.209553
461.974480,0.220183
462.311420,0.216095
462.648320,0.203514
462.985180,0.196557
463.322000,0.211310
463.658780,0.204420
463.995520,0.211829
464.332220,0.209141
464.668880,0.197581
465.005500,0.210456
465.342080,0.218950
465.678620,0.209102
466.015120,0.203105
466.351580,0.208597
466.688000,0.198538
467.024380,0.204131
467.360720,0.207955
467.697020,0.216401
468.033280,0.223333
468.369500,0.216336
468.705680,0.219842
469.041820,0.208333
469.377920,0.203905
469.713980,0.214212
470.050000,0.222222
470.385980,0.220157
470.721920,0.224290
471.057820,0.211501
471.393680,0.212348
471.729500,0.206673
472.065280,0.213775
472.401020,0.218085
472.736720,0.219023
473.072380,0.216338
473.408000,0.219321
473.743580,0.205882
474.079120,0.224806
474.414620,0.215437
474.750080,0.219691
475.085500,0.220395
475.420880,0.220649
475.756220,0.214227
476.091520,0.223359
476.426780,0.218447
476.762000,0.216412
477.097180,0.220000
477.432320,0.220517
477.767420,0.217320
478.102480,0.215748
478.437500,0.221675
478.772480,0.219070
479.107420,0.210740
479.442320,0.209432
479.777180,0.221957
480.112000,0.218798
480.446780,0.219797
480.781520,0.213366
481.116220,0.223120
481.450880,0.212334
481.785500,0.224684
482.120080,0.228840
482.454620,0.221445
482.789120,0.226115
483.123580,0.223520
483.458000,0.231013
483.792380,0.218850
484.126720,0.223166
484.461020,0.224044
484.795280,0.226677
485.129500,0.231489
485.463680,0.226357
485.797820,0.227061
486.131920,0.222647
486.465980,0.223166
486.800000,0.229008
487.133980,0.225831
487.467920,0.230298
487.801820,0.230359
488.135680,0.231236
488.469500,0.225416
488.803280,0.223626
489.137020,0.224908
489.470720,0.224036
489.804380,0.239050
490.138000,0.238131
490.471580,0.235814
490.805120,0.228735
491.138620,0.226013
491.472080,0.220495
491.805500,0.224547
492.138880,0.232801
492.472220,0.228374
492.805520,0.240922
493.138780,0.236389
493.472000,0.228763
493.805180,0.246930
494.138320,0.234823
494.471420,0.237630
494.804480,0.236740
495.137500,0.240051
495.470480,0.240280
495.803420,0.241814
496.136320,0.234336
496.469180,0.234500
496.802000,0.230440
497.134780,0.237113
497.467520,0.239144
497.800220,0.231132
498.132880,0.233392
498.465500,0.238702
498.798080,0.236301
499.130620,0.243683
499.463120,0.235823
499.795580,0.237074
500.128000,0.237057
500.460380,0.235199
500.792720,0.233298
501.125020,0.226484
501.457280,0.239164
501.789500,0.236054
502.121680,0.241576
502.453820,0.238144
502.785920,0.239620
503.117980,0.240432
503.450000,0.242089
503.781980,0.244644
504.113920,0.230441
504.445820,0.236266
504.777680,0.234353
505.109500,0.237500
505.441280,0.243308
505.773020,0.244246
506.104720,0.236458
506.436380,0.243729
506.768000,0.238073
507.099580,0.231579
507.431120,0.243560
507.762620,0.245771
508.094080,0.240656
508.425500,0.237162
508.756880,0.249657
509.088220,0.241030
509.419520,0.238827
509.750780,0.242268
510.082000,0.243470
510.413180,0.241363
510.744320,0.240681
511.075420,0.241980
511.406480,0.244476
511.737500,0.240278
512.068480,0.246711
512.399420,0.240376
512.730320,0.237413
513.061180,0.238344
513.392000,0.238997
513.722780,0.248799
514.053520,0.244849
514.384220,0.240247
514.714880,0.249402
515.045500,0.243295
515.376080,0.243584
515.706620,0.248417
516.037120,0.249020
516.367580,0.249384
516.698000,0.250980
517.028380,0.248759
517.358720,0.244938
517.689020,0.250247
518.019280,0.249373
518.349500,0.249366
518.679680,0.257446
519.009820,0.245445
519.339920,0.260020
519.669980,0.251130
520.000000,0.255222
520.329980,0.254536
520.659920,0.252045
520.989820,0.253354
521.319680,0.260288
521.649500,0.249357
521.979280,0.258351
522.309020,0.258817
522.638720,0.260113
522.968380,0.260600
523.298000,0.256785
523.627580,0.259183
523.957120,0.259221
524.286620,0.260031
524.616080,0.260600
524.945500,0.259432
525.274880,0.266290
525.604220,0.259317
525.933520,0.262579
526.262780,0.260010
526.592000,0.260781
526.921180,0.267141
527.250320,0.258752
527.579420,0.268823
527.908480,0.264402
528.237500,0.268123
528.566480,0.272455
528.895420,0.271069
529.224320,0.266964
529.553180,0.266024
529.882000,0.273966
530.210780,0.262548
530.539520,0.271812
530.868220,0.273815
531.196880,0.273770
531.525500,0.278450
531.854080,0.266886
532.182620,0.269033
532.511120,0.278422
532.839580,0.274047
533.168000,0.274385
533.496380,0.274429
533.824720,0.273665
534.153020,0.270620
534.481280,0.276211
534.809500,0.277045
535.137680,0.272569
535.465820,0.274485
535.793920,0.271151
536.121980,0.276962
536.450000,0.277801
536.777980,0.280687
537.105920,0.278954
537.433820,0.279460
537.761680,0.285714
538.089500,0.285714
538.417280,0.277756
538.745020,0.275753
539.072720,0.272940
539.400380,0.281274
539.728000,0.280688
540.055580,0.276779
540.383120,0.278109
540.710620,0.279390
541.038080,0.276651
541.365500,0.282721
541.692880,0.279433
542.020220,0.276358
542.347520,0.276382
542.674780,0.277347
543.002000,0.278167
543.329180,0.282006
543.656320,0.278833
543.983420,0.278632
544.310480,0.278967
544.637500,0.283521
544.964480,0.274899
545.291420,0.280160
545.618320,0.280876
545.945180,0.275873
546.272000,0.281782
546.598780,0.274336
546.925520,0.280580
547.252220,0.282932
547.578880,0.281199
547.905500,0.282353
548.232080,0.277453
548.558620,0.279206
548.885120,0.279032
549.211580,0.282224
549.538000,0.293450
549.864380,0.281994
550.190720,0.281886
550.517020,0.283246
550.843280,0.286645
551.169500,0.277354
551.495680,0.280223
551.821820,0.289027
552.147920,0.288224
552.473980,0.283833
552.800000,0.283846
553.125980,0.283235
553.451920,0.282349
553.777820,0.289474
554.103680,0.283451
554.429500,0.284232
554.755280,0.284379
555.081020,0.285762
555.406720,0.288182
555.732380,0.281938
556.058000,0.284114
556.383580,0.285861
556.709120,0.283253
557.034620,0.284189
557.360080,0.280484
557.685500,0.291148
558.010880,0.286308
558.336220,0.284007
558.661520,0.288196
558.986780,0.292700
559.312000,0.285613
559.637180,0.287971
559.962320,0.291919
560.287420,0.290550
560.612480,0.287406
560.937500,0.291850
561.262480,0.289223
561.587420,0.286181
561.912320,0.290715
562.237180,0.290896
562.562000,0.293303
562.886780,0.294314
563.211520,0.293964
563.536220,0.298330
563.860880,0.294229
564.185500,0.293058
564.510080,0.293078
564.834620,0.289170
565.159120,0.293233
565.483580,0.293425
565.808000,0.297011
566.132380,0.295039
566.456720,0.302343
566.781020,0.301950
567.105280,0.297921
567.429500,0.299317
567.753680,0.303797
568.077820,0.294163
568.401920,0.302903
568.725980,0.302846
569.050000,0.301141
569.373980,0.306053
569.697920,0.301100
570.021820,0.304120
570.345680,0.308458
570.669500,0.305990
570.993280,0.307124
571.317020,0.307271
571.640720,0.307151
571.964380,0.307721
572.288000,0.310831
572.611580,0.314489
572.935120,0.306023
573.258620,0.309648
573.582080,0.313711
573.905500,0.309382
574.228880,0.316258
574.552220,0.319531
574.875520,0.311616
575.198780,0.316227
575.522000,0.317815
575.845180,0.311246
576.168320,0.313690
576.491420,0.323401
576.814480,0.316456
577.137500,0.321789
577.460480,0.322581
577.783420,0.319400
578.106320,0.320869
578.429180,0.319548
578.752000,0.319903
579.074780,0.325017
579.397520,0.322143
579.720220,0.323681
580.042880,0.326065
580.365500,0.322634
580.688080,0.328358
581.010620,0.323658
581.333120,0.325651
581.655580,0.324009
581.978000,0.328234
582.300380,0.327167
582.622720,0.326961
582.945020,0.330624
583.267280,0.323022
583.589500,0.323917
583.911680,0.326453
584.233820,0.320428
584.555920,0.335960
584.877980,0.335741
585.200000,0.322284
585.521980,0.336423
585.843920,0.333740
586.165820,0.331200
586.487680,0.329522
586.809500,0.335734
587.131280,0.332446
587.453020,0.338690
587.774720,0.335009
588.096380,0.334306
588.418000,0.341235
588.739580,0.338316
589.061120,0.336688
589.382620,0.336103
589.704080,0.332398
590.025500,0.344178
590.346880,0.340641
590.668220,0.338841
590.989520,0.334165
591.310780,0.335543
591.632000,0.339344
591.953180,0.335732
592.274320,0.336609
592.595420,0.335668
592.916480,0.341755
593.237500,0.338723
593.558480,0.339252
593.879420,0.333963
594.200320,0.336726
594.521180,0.338645
594.842000,0.339334
595.162780,0.333868
595.483520,0.333688
595.804220,0.338077
596.124880,0.337597
596.445500,0.337176
596.766080,0.341221
597.086620,0.338376
597.407120,0.330700
597.727580,0.339433
598.048000,0.333510
598.368380,0.337717
598.688720,0.332634
599.009020,0.335722
599.329280,0.337414
599.649500,0.334654
599.969680,0.327724
600.289820,0.336271
600.609920,0.333422
600.929980,0.332175
601.250000,0.331351
601.569980,0.330273
601.889920,0.330928
602.209820,0.332251
602.529680,0.335073
602.849500,0.337152
603.169280,0.333976
603.489020,0.333518
603.808720,0.334888
604.128380,0.337748
604.448000,0.328729
604.767580,0.334916
605.087120,0.331579
605.406620,0.333053
605.726080,0.333048
606.045500,0.328782
606.364880,0.334278
606.684220,0.334095
607.003520,0.337156
607.322780,0.332575
607.642000,0.334291
607.961180,0.332177
608.280320,0.330046
608.599420,0.334878
608.918480,0.332551
609.237500,0.334507
609.556480,0.336194
609.875420,0.332250
610.194320,0.330676
610.513180,0.332939
610.832000,0.329958
611.150780,0.330730
611.469520,0.339065
611.788220,0.341596
612.106880,0.330820
612.425500,0.333435
612.744080,0.333949
613.062620,0.329052
613.381120,0.336076
613.699580,0.342735
614.018000,0.336916
614.336380,0.332819
614.654720,0.333953
614.973020,0.337859
615.291280,0.332817
615.609500,0.340729
615.927680,0.338999
616.245820,0.338281
616.563920,0.340068
616.881980,0.338322
617.200000,0.337481
617.517980,0.333230
617.835920,0.333644
618.153820,0.338203
618.471680,0.342326
618.789500,0.343298
619.107280,0.342410
619.425020,0.341579
619.742720,0.344633
620.060380,0.339705
620.378000,0.345815
620.695580,0.344189
621.013120,0.335748
621.330620,0.341701
621.648080,0.338170
621.965500,0.342221
622.282880,0.346154
622.600220,0.347757
622.917520,0.345621
623.234780,0.351013
623.552000,0.352323
623.869180,0.346990
624.186320,0.350207
624.503420,0.349216
624.820480,0.350927
625.137500,0.351121
625.454480,0.346358
625.771420,0.346469
626.088320,0.355296
626.405180,0.353143
626.722000,0.354768
627.038780,0.354637
627.355520,0.359687
627.672220,0.357698
627.988880,0.360187
628.305500,0.355562
628.622080,0.358426
628.938620,0.359633
629.255120,0.363410
629.571580,0.361324
629.888000,0.357165
630.204380,0.359006
630.520720,0.360146
630.837020,0.366327
631.153280,0.369904
631.469500,0.362341
631.785680,0.361061
632.101820,0.363691
632.417920,0.369300
632.733980,0.363745
633.050000,0.369315
633.365980,0.370184
633.681920,0.369033
633.997820,0.372086
634.313680,0.367738
634.629500,0.371572
634.945280,0.372727
635.261020,0.375697
635.576720,0.373752
635.892380,0.367412
636.208000,0.375654
636.523580,0.378544
636.839120,0.381876
637.154620,0.377101
637.470080,0.381636
637.785500,0.379543
638.100880,0.380828
638.416220,0.383376
638.731520,0.375931
639.046780,0.380717
639.362000,0.375860
639.677180,0.382067
639.992320,0.382013
640.307420,0.378477
640.622480,0.385046
640.937500,0.378641
641.252480,0.383971
641.567420,0.387894
641.882320,0.385579
642.197180,0.385738
642.512000,0.384551
642.826780,0.384189
643.141520,0.387886
643.456220,0.387382
643.770880,0.392482
644.085500,0.390162
644.400080,0.384270
644.714620,0.390468
645.029120,0.388889
645.343580,0.388097
645.658000,0.393283
645.972380,0.387777
646.286720,0.393295
646.601020,0.389704
646.915280,0.395393
647.229500,0.387088
647.543680,0.396576
647.857820,0.393889
648.171920,0.392024
648.485980,0.389422
648.800000,0.385506
649.113980,0.391353
649.427920,0.400000
649.741820,0.392141
650.055680,0.396325
650.369500,0.395460
650.683280,0.394007
650.997020,0.390539
651.310720,0.388553
651.624380,0.393681
651.938000,0.395291
652.251580,0.395770
652.565120,0.391839
652.878620,0.397523
653.192080,0.397191
653.505500,0.388219
653.818880,0.390105
654.132220,0.390487
654.445520,0.397334
654.758780,0.390368
655.072000,0.392837
655.385180,0.386591
655.698320,0.386968
656.011420,0.395242
656.324480,0.393763
656.637500,0.392816
656.950480,0.397827
657.263420,0.390777
657.576320,0.393715
657.889180,0.395164
658.202000,0.390700
658.514780,0.393570
658.827520,0.391056
659.140220,0.390770
659.452880,0.395047
659.765500,0.390728
660.078080,0.382787
660.390620,0.385885
660.703120,0.389245
661.015580,0.393558
661.328000,0.396411
661.640380,0.387077
661.952720,0.383993
662.265020,0.393825
662.577280,0.387087
662.889500,0.389467
663.201680,0.393746
663.513820,0.395626
663.825920,0.384246
664.137980,0.390756
664.450000,0.385870
664.761980,0.383633
665.073920,0.378773
665.385820,0.388743
665.697680,0.387438
666.009500,0.386432
666.321280,0.388005
666.633020,0.381981
666.944720,0.379508
667.256380,0.373486
667.568000,0.380095
667.879580,0.375170
668.191120,0.387363
668.502620,0.379664
668.814080,0.381053
669.125500,0.378036
669.436880,0.381743
669.748220,0.379370
670.059520,0.385504
670.370780,0.379610
670.682000,0.384425
670.993180,0.385130
671.304320,0.375879
671.615420,0.380327
671.926480,0.379347
672.237500,0.373348
672.548480,0.378282
672.859420,0.379914
673.170320,0.375771
673.481180,0.374728
673.792000,0.376848
674.102780,0.374865
674.413520,0.376960
674.724220,0.378947
675.034880,0.385405
675.345500,0.373450
675.656080,0.378947
675.966620,0.378683
676.277120,0.374222
676.587580,0.381443
676.898000,0.378499
677.208380,0.386691
677.518720,0.370168
677.829020,0.376571
678.139280,0.377687
678.449500,0.380616
678.759680,0.376546
679.069820,0.368030
679.379920,0.376839
679.689980,0.373561
680.000000,0.371215
680.309980,0.377506
680.619920,0.374479
680.929820,0.370287
681.239680,0.369276
681.549500,0.372963
681.859280,0.378267
682.169020,0.378963
682.478720,0.381077
682.788380,0.372831
683.098000,0.376963
683.407580,0.383114
683.717120,0.375375
684.026620,0.375753
684.336080,0.366427
684.645500,0.371119
684.954880,0.370608
685.264220,0.380143
685.573520,0.387134
685.882780,0.378213
686.192000,0.373213
686.501180,0.382520
686.810320,0.380861
687.119420,0.376283
687.428480,0.380175
687.737500,0.374904
688.046480,0.377684
688.355420,0.378348
688.664320,0.377965
688.973180,0.383614
689.282000,0.385802
689.590780,0.378067
689.899520,0.383213
690.208220,0.385321
690.516880,0.385643
690.825500,0.387547
691.134080,0.384207
691.442620,0.377668
691.751120,0.389837
692.059580,0.384410
692.368000,0.382431
692.676380,0.391985
692.984720,0.379008
693.293020,0.385638
693.601280,0.393361
693.909500,0.382898
694.217680,0.386519
694.525820,0.397182
694.833920,0.386112
695.141980,0.387196
695.450000,0.391985
695.757980,0.390374
696.065920,0.387184
696.373820,0.389915
696.681680,0.377062
696.989500,0.391741
697.297280,0.391287
697.605020,0.398810
697.912720,0.387010
698.220380,0.396301
698.528000,0.394778
698.835580,0.396286
699.143120,0.397896
699.450620,0.403341
699.758080,0.391765
700.065500,0.396249
700.372880,0.406400
700.680220,0.405664
700.987520,0.400000
701.294780,0.407948
701.602000,0.400951
701.909180,0.407790
702.216320,0.394603
702.523420,0.408051
702.830480,0.400792
703.137500,0.401403
703.444480,0.414596
703.751420,0.398422
704.058320,0.407994
704.365180,0.406940
704.672000,0.406733
704.978780,0.401873
705.285520,0.409233
705.592220,0.402353
705.898880,0.413712
706.205500,0.418623
706.512080,0.412717
706.818620,0.421053
707.125120,0.420385
707.431580,0.416960
707.738000,0.419141
708.044380,0.414898
708.350720,0.413068
708.657020,0.422431
708.963280,0.416149
709.269500,0.418395
709.575680,0.421218
709.881820,0.419811
710.187920,0.422179
710.493980,0.426687
710.800000,0.421053
711.105980,0.417922
711.411920,0.427276
711.717820,0.424951
712.023680,0.423241
712.329500,0.425473
712.635280,0.436822
712.941020,0.429068
713.246720,0.427273
713.552380,0.436813
713.858000,0.417028
714.163580,0.419890
714.469120,0.422821
714.774620,0.429530
715.080080,0.435022
715.385500,0.437650
715.690880,0.438659
715.996220,0.428685
716.301520,0.428063
716.606780,0.426101
716.912000,0.443053
717.217180,0.440543
717.522320,0.434195
717.827420,0.433686
718.132480,0.436772
718.437500,0.432939
718.742480,0.429435
719.047420,0.432848
719.352320,0.444168
719.657180,0.437040
719.962000,0.434243
720.266780,0.446614
720.571520,0.442833
720.876220,0.431260
721.180880,0.433946
721.485500,0.441287
721.790080,0.442463
722.094620,0.436106
722.399120,0.454545
722.703580,0.440206
723.008000,0.438551
723.312380,0.432200
723.616720,0.437739
723.921020,0.443915
724.225280,0.441099
724.529500,0.433012
724.833680,0.438167
725.137820,0.438767
725.441920,0.440036
725.745980,0.440716
726.050000,0.444294
726.353980,0.432177
726.657920,0.447593
726.961820,0.445205
727.265680,0.446140
727.569500,0.439214
727.873280,0.436028
728.177020,0.442653
728.480720,0.446759
728.784380,0.441522
729.088000,0.442770
729.391580,0.440550
729.695120,0.464012
729.998620,0.452199
730.302080,0.453148
730.605500,0.435226
730.908880,0.439490
731.212220,0.444172
731.515520,0.440761
731.818780,0.443689
732.122000,0.447835
732.425180,0.439625
732.728320,0.440258
733.031420,0.445614
733.334480,0.444898
733.637500,0.440020
733.940480,0.446776
734.243420,0.438328
734.546320,0.445021
734.849180,0.439050
735.152000,0.439315
735.454780,0.434401
735.757520,0.443098
736.060220,0.436546
736.362880,0.435924
736.665500,0.441253
736.968080,0.446534
737.270620,0.449646
737.573120,0.439956
737.875580,0.451897
738.178000,0.439848
738.480380,0.437297
738.782720,0.435115
739.085020,0.438877
739.387280,0.439024
739.689500,0.438845
739.991680,0.440764
740.293820,0.441128
740.595920,0.436283
740.897980,0.438735
741.200000,0.439708
741.501980,0.445845
741.803920,0.434122
742.105820,0.438240
742.407680,0.451369
742.709500,0.434659
743.011280,0.436108
743.313020,0.441159
743.614720,0.435287
743.916380,0.437209
744.218000,0.442124
744.519580,0.430556
744.821120,0.426946
745.122620,0.430797
745.424080,0.431490
745.725500,0.424261
746.026880,0.440271
746.328220,0.439581
746.629520,0.423239
746.930780,0.427696
747.232000,0.438994
747.533180,0.430140
747.834320,0.432745
748.135420,0.435053
748.436480,0.421085
748.737500,0.426807
749.038480,0.428833
749.339420,0.427505
749.640320,0.435575
749.941180,0.434104
750.242000,0.429020
750.542780,0.423077
750.843520,0.428571
751.144220,0.417949
751.444880,0.432467
751.745500,0.418182
752.046080,0.437460
752.346620,0.420747
752.647120,0.428478
752.947580,0.412031
753.248000,0.423598
753.548380,0.420950
753.848720,0.418545
754.149020,0.405545
754.449280,0.425476
754.749500,0.413404
755.049680,0.418667
755.349820,0.423616
755.649920,0.432915
755.949980,0.422694
756.250000,0.420776
756.549980,0.403300
756.849920,0.418083
757.149820,0.407186
757.449680,0.405281
757.749500,0.419223
758.049280,0.423891
758.349020,0.408206
758.648720,0.415459
758.948380,0.414433
759.248000,0.406334
759.547580,0.406859
759.847120,0.402481
760.146620,0.414750
760.446080,0.409946
760.745500,0.411189
761.044880,0.416903
761.344220,0.422666
761.643520,0.411017
761.942780,0.408677
762.242000,0.414427
762.541180,0.407042
762.840320,0.410815
763.139420,0.408579
763.438480,0.406699
763.737500,0.404549
764.036480,0.406709
764.335420,0.411433
764.634320,0.400554
764.933180,0.408219
765.232000,0.408050
765.530780,0.412632
765.829520,0.417483
766.128220,0.404315
766.426880,0.416489
766.725500,0.409184
767.024080,0.400549
767.322620,0.404564
767.621120,0.409214
767.919580,0.413652
768.218000,0.401505
768.516380,0.411089
768.814720,0.411523
769.113020,0.412819
769.411280,0.419890
769.709500,0.411367
770.007680,0.410361
770.305820,0.411765
770.603920,0.398922
770.901980,0.409836
771.200000,0.397418
771.497980,0.392761
771.795920,0.399331
772.093820,0.407086
772.391680,0.408042
772.689500,0.412162
772.987280,0.403367
773.285020,0.409433
773.582720,0.410811
773.880380,0.407001
774.178000,0.407635
774.475580,0.413932
774.773120,0.401606
775.070620,0.409736
775.368080,0.412158
775.665500,0.393553
775.962880,0.404270
776.260220,0.409825
776.557520,0.414276
776.854780,0.406356
777.152000,0.406499
777.449180,0.418071
777.746320,0.403226
778.043420,0.406548
778.340480,0.407307
778.637500,0.407032
778.934480,0.410222
779.231420,0.405020
779.528320,0.408150
779.825180,0.405797
780.122000,0.396414
780.418780,0.418605
780.715520,0.412475
781.012220,0.416438
781.308880,0.414469
781.605500,0.399315
781.902080,0.412047
782.198620,0.402597
782.495120,0.409465
782.791580,0.418157
783.088000,0.418910
783.384380,0.406465
783.680720,0.411081
783.977020,0.415003
784.273280,0.423776
784.569500,0.419287
784.865680,0.418637
785.161820,0.412500
785.457920,0.413721
785.753980,0.422889
786.050000,0.406768
786.345980,0.406944
786.641920,0.413602
786.937820,0.423789
787.233680,0.410578
787.529500,0.413315
787.825280,0.431303
788.121020,0.422805
788.416720,0.414961
788.712380,0.416079
789.008000,0.412181
789.303580,0.406360
789.599120,0.426909
789.894620,0.425271
790.190080,0.422770
790.485500,0.414687
790.780880,0.429391
791.076220,0.424964
791.371520,0.428468
791.666780,0.426182
791.962000,0.422483
792.257180,0.432650
792.552320,0.431472
792.847420,0.409753
793.142480,0.429304
793.437500,0.424023
793.732480,0.422092
794.027420,0.416914
794.322320,0.427293
794.617180,0.428678
794.912000,0.430163
795.206780,0.426547
795.501520,0.433460
795.796220,0.425926
796.090880,0.437076
796.385500,0.423538
796.680080,0.426328
796.974620,0.436377
797.269120,0.439061
797.563580,0.432824
797.858000,0.443432
798.152380,0.436195
798.446720,0.440769
798.741020,0.436055
799.035280,0.448758
799.329500,0.435720
799.623680,0.438760
