399.985280,0.256757
400.329500,0.270270
400.673680,0.227848
401.017820,0.176471
401.361920,0.257576
401.705980,0.158537
402.050000,0.220779
402.393980,0.247059
402.737920,0.247191
403.081820,0.278351
403.425680,0.290698
403.769500,0.197917
404.113280,0.195402
404.457020,0.258427
404.800720,0.184783
405.144380,0.303030
405.488000,0.247312
405.831580,0.278351
406.175120,0.234043
406.518620,0.240000
406.862080,0.288660
407.205500,0.145833
407.548880,0.224490
407.892220,0.205882
408.235520,0.212766
408.578780,0.285714
408.922000,0.221154
409.265180,0.202020
409.608320,0.202020
409.951420,0.309278
410.294480,0.274510
410.637500,0.271739
410.980480,0.225490
411.323420,0.214286
411.666320,0.220183
412.009180,0.254545
412.352000,0.158416
412.694780,0.256881
413.037520,0.220183
413.380220,0.252252
413.722880,0.276786
414.065500,0.279279
414.408080,0.230088
414.750620,0.176991
415.093120,0.206612
415.435580,0.285714
415.778000,0.250000
416.120380,0.226891
416.462720,0.238095
416.805020,0.248120
417.147280,0.238806
417.489500,0.264286
417.831680,0.226027
418.173820,0.198582
418.515920,0.265734
418.857980,0.240506
419.200000,0.250000
419.541980,0.248521
419.883920,0.202247
420.225820,0.254335
420.567680,0.268156
420.909500,0.234973
421.251280,0.255208
421.593020,0.244898
421.934720,0.232323
422.276380,0.256410
422.618000,0.264706
422.959580,0.230392
423.301120,0.246575
423.642620,0.217391
423.984080,0.255814
424.325500,0.228700
424.666880,0.262931
425.008220,0.247899
425.349520,0.237288
425.690780,0.203846
426.032000,0.258824
426.373180,0.224066
426.714320,0.250000
427.055420,0.243243
427.396480,0.258427
427.737500,0.233202
428.078480,0.252964
428.419420,0.240964
428.760320,0.229885
429.101180,0.275591
429.442000,0.249042
429.782780,0.223077
430.123520,0.247059
430.464220,0.250923
430.804880,0.260536
431.145500,0.218182
431.486080,0.247191
431.826620,0.232558
432.167120,0.227941
432.507580,0.250000
432.848000,0.233813
433.188380,0.249097
433.528720,0.241509
433.869020,0.235714
434.209280,0.203509
434.549500,0.236934
434.889680,0.259259
435.229820,0.235495
435.569920,0.228374
435.909980,0.242718
436.250000,0.240678
436.589980,0.235294
436.929920,0.257143
437.269820,0.231975
437.609680,0.245562
437.949500,0.240964
438.289280,0.235127
438.629020,0.241279
438.968720,0.250000
439.308380,0.230352
439.648000,0.232877
439.987580,0.238095
440.327120,0.245333
440.666620,0.228571
441.006080,0.235294
441.345500,0.243243
441.684880,0.224880
442.024220,0.220844
442.363520,0.233333
442.702780,0.229545
443.042000,0.231278
443.381180,0.232759
443.720320,0.263499
444.059420,0.231092
444.398480,0.232218
444.737500,0.245902
445.076480,0.248016
445.415420,0.241517
445.754320,0.230769
446.093180,0.238532
446.432000,0.244361
446.770780,0.233397
447.109520,0.255515
447.448220,0.228980
447.786880,0.252236
448.125500,0.232759
448.464080,0.219643
448.802620,0.234043
449.141120,0.230104
449.479580,0.229021
449.818000,0.235800
450.156380,0.229097
450.494720,0.229752
450.833020,0.237762
451.171280,0.231164
451.509500,0.254355
451.847680,0.242833
452.185820,0.234079
452.523920,0.240550
452.861980,0.247892
453.200000,0.235880
453.537980,0.225210
453.875920,0.235294
454.213820,0.224315
454.551680,0.233444
454.889500,0.236088
455.227280,0.229537
455.565020,0.244556
455.902720,0.241265
456.240380,0.229617
456.578000,0.228223
456.915580,0.233161
457.253120,0.231908
457.590620,0.246305
457.928080,0.242424
458.265500,0.239865
458.602880,0.222403
458.940220,0.231810
459.277520,0.232000
459.614780,0.252046
459.952000,0.220497
460.289180,0.245253
460.626320,0.247244
460.963420,0.240711
461.300480,0.240061
461.637500,0.235747
461.974480,0.247706
462.311420,0.232489
462.648320,0.253294
462.985180,0.235294
463.322000,0.239583
463.658780,0.230663
463.995520,0.242091
464.332220,0.236842
464.668880,0.250000
465.005500,0.254692
465.342080,0.243278
465.678620,0.243542
466.015120,0.250970
466.351580,0.256637
466.688000,0.237515
467.024380,0.238153
467.360720,0.245455
467.697020,0.246014
468.033280,0.258889
468.369500,0.256071
468.705680,0.254791
469.041820,0.252083
469.377920,0.251627
469.713980,0.258496
470.050000,0.256039
470.385980,0.261252
470.721920,0.261508
471.057820,0.256335
471.393680,0.254443
471.729500,0.257646
472.065280,0.271020
472.401020,0.268617
472.736720,0.264398
473.072380,0.266607
473.408000,0.264578
473.743580,0.259516
474.079120,0.267873
474.414620,0.260390
474.750080,0.262815
475.085500,0.272204
475.420880,0.263114
475.756220,0.269011
476.091520,0.274510
476.426780,0.264563
476.762000,0.265487
477.097180,0.268800
477.432320,0.282714
477.767420,0.269608
478.102480,0.270079
478.437500,0.267652
478.772480,0.277384
479.107420,0.276648
479.442320,0.282174
479.777180,0.276850
480.112000,0.277350
480.446780,0.272798
480.781520,0.273752
481.116220,0.276475
481.450880,0.266979
481.785500,0.288766
482.120080,0.275862
482.454620,0.275835
482.789120,0.286624
483.123580,0.280374
483.458000,0.279272
483.792380,0.289137
484.126720,0.291892
484.461020,0.281030
484.795280,0.281419
485.129500,0.288387
485.463680,0.274419
485.797820,0.289269
486.131920,0.279265
486.465980,0.277220
486.800000,0.286260
487.133980,0.283233
487.467920,0.290742
487.801820,0.284516
488.135680,0.289613
488.469500,0.283661
488.803280,0.286033
489.137020,0.279853
489.470720,0.288576
489.804380,0.286563
490.138000,0.293769
490.471580,0.294031
490.805120,0.285204
491.138620,0.285714
491.472080,0.288339
491.805500,0.288006
492.138880,0.289090
492.472220,0.294118
492.805520,0.293296
493.138780,0.292212
493.472000,0.284950
493.805180,0.293315
494.138320,0.295530
494.471420,0.283854
494.804480,0.293661
495.137500,0.286906
495.470480,0.283620
495.803420,0.289673
496.136320,0.289474
496.469180,0.287293
496.802000,0.285452
497.134780,0.280170
497.467520,0.298471
497.800220,0.283608
498.132880,0.282187
498.465500,0.289108
498.798080,0.284247
499.130620,0.289725
499.463120,0.282987
499.795580,0.287129
500.128000,0.282289
500.460380,0.288482
500.792720,0.281018
501.125020,0.280610
501.457280,0.277807
501.789500,0.279442
502.121680,0.283048
502.453820,0.277919
502.785920,0.282641
503.117980,0.283611
503.450000,0.284782
503.781980,0.278027
504.113920,0.277383
504.445820,0.272727
504.777680,0.276706
505.109500,0.281731
505.441280,0.276291
505.773020,0.273837
506.104720,0.274140
506.436380,0.280644
506.768000,0.270346
507.099580,0.267735
507.431120,0.274941
507.762620,0.272086
508.094080,0.272562
508.425500,0.272642
508.756880,0.277549
509.088220,0.274609
509.419520,0.268622
509.750780,0.271321
510.082000,0.269123
510.413180,0.268079
510.744320,0.274275
511.075420,0.267644
511.406480,0.271274
511.737500,0.264815
512.068480,0.271147
512.399420,0.268075
512.730320,0.259122
513.061180,0.274976
513.392000,0.265499
513.722780,0.273295
514.053520,0.260182
514.384220,0.261180
514.714880,0.267113
515.045500,0.262931
515.376080,0.264891
515.706620,0.261568
516.037120,0.259314
516.367580,0.270577
516.698000,0.265196
517.028380,0.268123
517.358720,0.263210
517.689020,0.269041
518.019280,0.264425
518.349500,0.271161
518.679680,0.267542
519.009820,0.264676
519.339920,0.264028
519.669980,0.264189
520.000000,0.265410
520.329980,0.265422
520.659920,0.269427
520.989820,0.273994
521.319680,0.270576
521.649500,0.266324
521.979280,0.272965
522.309020,0.269191
522.638720,0.273938
522.968380,0.279731
523.298000,0.271399
523.627580,0.268495
523.957120,0.277403
524.286620,0.276707
524.616080,0.281282
524.945500,0.279587
525.274880,0.278604
525.604220,0.281056
525.933520,0.278826
526.262780,0.277243
526.592000,0.284120
526.921180,0.280345
527.250320,0.287671
527.579420,0.286508
527.908480,0.288035
528.237500,0.288977
528.566480,0.285429
528.895420,0.289798
529.224320,0.284299
529.553180,0.286747
529.882000,0.294404
530.210780,0.288127
530.539520,0.299137
530.868220,0.299665
531.196880,0.296703
531.525500,0.303148
531.854080,0.297373
532.182620,0.297992
532.511120,0.296056
532.839580,0.305354
533.168000,0.304011
533.496380,0.309589
533.824720,0.305967
534.153020,0.309407
534.481280,0.311894
534.809500,0.310906
535.137680,0.310764
535.465820,0.317869
535.793920,0.319374
536.121980,0.314729
536.450000,0.322622
536.777980,0.326770
537.105920,0.325031
537.433820,0.326105
537.761680,0.336735
538.089500,0.333064
538.417280,0.325507
538.745020,0.335975
539.072720,0.337368
539.400380,0.333333
539.728000,0.339579
540.055580,0.334082
540.383120,0.339166
540.710620,0.344866
541.038080,0.346736
541.365500,0.341544
541.692880,0.348837
542.020220,0.352285
542.347520,0.352836
542.674780,0.355681
543.002000,0.348845
543.329180,0.355665
543.656320,0.361111
543.983420,0.360342
544.310480,0.357119
544.637500,0.365404
544.964480,0.361373
545.291420,0.373878
545.618320,0.367862
545.945180,0.372775
546.272000,0.364024
546.598780,0.367421
546.925520,0.370920
547.252220,0.373391
547.578880,0.375041
547.905500,0.374837
548.232080,0.378168
548.558620,0.380085
548.885120,0.384364
549.211580,0.378014
549.538000,0.388132
549.864380,0.383923
550.190720,0.390701
550.517020,0.387223
550.843280,0.391857
551.169500,0.389949
551.495680,0.396518
551.821820,0.398432
552.147920,0.394600
552.473980,0.397432
552.800000,0.394048
553.125980,0.404715
553.451920,0.406437
553.777820,0.402065
554.103680,0.402427
554.429500,0.404754
554.755280,0.404873
555.081020,0.407086
555.406720,0.410430
555.732380,0.407658
556.058000,0.410048
556.383580,0.414242
556.709120,0.409717
557.034620,0.414743
557.360080,0.406218
557.685500,0.416321
558.010880,0.415251
558.336220,0.410193
558.661520,0.419709
558.986780,0.422750
559.312000,0.413462
559.637180,0.415799
559.962320,0.416518
560.287420,0.427715
560.612480,0.423394
560.937500,0.428047
561.262480,0.426320
561.587420,0.421110
561.912320,0.417833
562.237180,0.417098
562.562000,0.430976
562.886780,0.435897
563.211520,0.427720
563.536220,0.427458
563.860880,0.430781
564.185500,0.424390
564.510080,0.426637
564.834620,0.422404
565.159120,0.424812
565.483580,0.422273
565.808000,0.433598
566.132380,0.424468
566.456720,0.430083
566.781020,0.437734
567.105280,0.427977
567.429500,0.441199
567.753680,0.436517
568.077820,0.433320
568.401920,0.437357
568.725980,0.434915
569.050000,0.436122
569.373980,0.424819
569.697920,0.429276
570.021820,0.429963
570.345680,0.424416
570.669500,0.423502
570.993280,0.432263
571.317020,0.425649
571.640720,0.429789
571.964380,0.425390
572.288000,0.429154
572.611580,0.431674
572.935120,0.429854
573.258620,0.428945
573.582080,0.435917
573.905500,0.425168
574.228880,0.433927
574.552220,0.434958
574.875520,0.431124
575.198780,0.425732
575.522000,0.423754
575.845180,0.424427
576.168320,0.425799
576.491420,0.434956
576.814480,0.432550
577.137500,0.428211
577.460480,0.423342
577.783420,0.420150
578.106320,0.430199
578.429180,0.421704
578.752000,0.417506
579.074780,0.422454
579.397520,0.419303
579.720220,0.414414
580.042880,0.416254
580.365500,0.417273
580.688080,0.415536
581.010620,0.417482
581.333120,0.410822
581.655580,0.415251
581.978000,0.410708
582.300380,0.410906
582.622720,0.411009
582.945020,0.412874
583.267280,0.412244
583.589500,0.404494
583.911680,0.401080
584.233820,0.405099
584.555920,0.410652
584.877980,0.403580
585.200000,0.401473
585.521980,0.403769
585.843920,0.402685
586.165820,0.397014
586.487680,0.397231
586.809500,0.402640
587.131280,0.393079
587.453020,0.402679
587.774720,0.396511
588.096380,0.395274
588.418000,0.392450
588.739580,0.395803
589.061120,0.388729
589.382620,0.386819
589.704080,0.390743
590.025500,0.392979
590.346880,0.389264
590.668220,0.380846
590.989520,0.381586
591.310780,0.387462
591.632000,0.383060
591.953180,0.382508
592.274320,0.381108
592.595420,0.378233
592.916480,0.378430
593.237500,0.377796
593.558480,0.373688
593.879420,0.378473
594.200320,0.376105
594.521180,0.373971
594.842000,0.369694
595.162780,0.374466
595.483520,0.367721
595.804220,0.370838
596.124880,0.365308
596.445500,0.368614
596.766080,0.368647
597.086620,0.363057
597.407120,0.362033
597.727580,0.367807
598.048000,0.359429
598.368380,0.361389
598.688720,0.353866
599.009020,0.360934
599.329280,0.360564
599.649500,0.358426
599.969680,0.353632
600.289820,0.356838
600.609920,0.354261
600.929980,0.352753
601.250000,0.348919
601.569980,0.345666
601.889920,0.343758
602.209820,0.349026
602.529680,0.346608
602.849500,0.346972
603.169280,0.344723
603.489020,0.348187
603.808720,0.347778
604.128380,0.344095
604.448000,0.340884
604.767580,0.344693
605.087120,0.339335
605.406620,0.338371
605.726080,0.343884
606.045500,0.341321
606.364880,0.340800
606.684220,0.343518
607.003520,0.342317
607.322780,0.344798
607.642000,0.342619
607.961180,0.337381
608.280320,0.337007
608.599420,0.334878
608.918480,0.333431
609.237500,0.336268
609.556480,0.335898
609.875420,0.334318
610.194320,0.332448
610.513180,0.329979
610.832000,0.332341
611.150780,0.339441
611.469520,0.337255
611.788220,0.339480
612.106880,0.329011
612.425500,0.335262
612.744080,0.339181
613.062620,0.334251
613.381120,0.334247
613.699580,0.337523
614.018000,0.335074
614.336380,0.337446
614.654720,0.332403
614.973020,0.334773
615.291280,0.341184
615.609500,0.343899
615.927680,0.339308
616.245820,0.341682
616.563920,0.338203
616.881980,0.342376
617.200000,0.339036
617.517980,0.336030
617.835920,0.340478
618.153820,0.340690
618.471680,0.339535
618.789500,0.345186
619.107280,0.346166
619.425020,0.346654
619.742720,0.344633
620.060380,0.346286
620.378000,0.347074
620.695580,0.352490
621.013120,0.349921
621.330620,0.351114
621.648080,0.342902
621.965500,0.344417
622.282880,0.347100
622.600220,0.350916
622.917520,0.356333
623.234780,0.360334
623.552000,0.358370
623.869180,0.360542
624.186320,0.359758
624.503420,0.364890
624.820480,0.363494
625.137500,0.359331
625.454480,0.363864
625.771420,0.362547
626.088320,0.363178
626.405180,0.365277
626.722000,0.364806
627.038780,0.366541
627.355520,0.369375
627.672220,0.372939
627.988880,0.373250
628.305500,0.374260
628.622080,0.384139
628.938620,0.382263
629.255120,0.378034
629.571580,0.375115
629.888000,0.375882
630.204380,0.384167
630.520720,0.389092
630.837020,0.388221
631.153280,0.386990
631.469500,0.390843
631.785680,0.391501
632.101820,0.396864
632.417920,0.395529
632.733980,0.397659
633.050000,0.408126
633.365980,0.398340
633.681920,0.403341
633.997820,0.410341
634.313680,0.404600
634.629500,0.405780
634.945280,0.409971
635.261020,0.415615
635.576720,0.416324
635.892380,0.416207
636.208000,0.417780
636.523580,0.420637
636.839120,0.423277
637.154620,0.426087
637.470080,0.422382
637.785500,0.434349
638.100880,0.432667
638.416220,0.433995
638.731520,0.431519
639.046780,0.432275
639.362000,0.434060
639.677180,0.436322
639.992320,0.440936
640.307420,0.440854
640.622480,0.444693
640.937500,0.454924
641.252480,0.449595
641.567420,0.451833
641.882320,0.450167
642.197180,0.457889
642.512000,0.454240
642.826780,0.456033
643.141520,0.460684
643.456220,0.459048
643.770880,0.469044
644.085500,0.468139
644.400080,0.480618
644.714620,0.472129
645.029120,0.469472
645.343580,0.469007
645.658000,0.482653
645.972380,0.478761
646.286720,0.484328
646.601020,0.483532
646.915280,0.492460
647.229500,0.486538
647.543680,0.486882
647.857820,0.482521
648.171920,0.492946
648.485980,0.497122
648.800000,0.494076
649.113980,0.496397
649.427920,0.499029
649.741820,0.495741
650.055680,0.501920
650.369500,0.515975
650.683280,0.506382
650.997020,0.506051
651.310720,0.505228
651.624380,0.513736
651.938000,0.509418
652.251580,0.505149
652.565120,0.515372
652.878620,0.518300
653.192080,0.517416
653.505500,0.521178
653.818880,0.525163
654.132220,0.532612
654.445520,0.524957
654.758780,0.525496
655.072000,0.529513
655.385180,0.524394
655.698320,0.536153
656.011420,0.540556
656.324480,0.543282
656.637500,0.538239
656.950480,0.545214
657.263420,0.549512
657.576320,0.546398
657.889180,0.544087
658.202000,0.550725
658.514780,0.547187
658.827520,0.551020
659.140220,0.544801
659.452880,0.552703
659.765500,0.550873
660.078080,0.544388
660.390620,0.555759
660.703120,0.557898
661.015580,0.565031
661.328000,0.569270
661.640380,0.569432
661.952720,0.565556
662.265020,0.569628
662.577280,0.571565
662.889500,0.569221
663.201680,0.573708
663.513820,0.570923
663.825920,0.569645
664.137980,0.572398
664.450000,0.572251
664.761980,0.581997
665.073920,0.574489
665.385820,0.581152
665.697680,0.584463
666.009500,0.585634
666.321280,0.586812
666.633020,0.582447
666.944720,0.584092
667.256380,0.591857
667.568000,0.596128
667.879580,0.593878
668.191120,0.592720
668.502620,0.591236
668.814080,0.611228
669.125500,0.589121
669.436880,0.597510
669.748220,0.586708
670.059520,0.593137
670.370780,0.602296
670.682000,0.606372
670.993180,0.601128
671.304320,0.595640
671.615420,0.608310
671.926480,0.607878
672.237500,0.600929
672.548480,0.601845
672.859420,0.607934
673.170320,0.611172
673.481180,0.608979
673.792000,0.602957
674.102780,0.597487
674.413520,0.609187
674.724220,0.601815
675.034880,0.612028
675.345500,0.605762
675.656080,0.611252
675.966620,0.613678
676.277120,0.621750
676.587580,0.621870
676.898000,0.618888
677.208380,0.616266
677.518720,0.612691
677.829020,0.613082
678.139280,0.614529
678.449500,0.612328
678.759680,0.614462
679.069820,0.617100
679.379920,0.616371
679.689980,0.617898
680.000000,0.610467
680.309980,0.621010
680.619920,0.615297
680.929820,0.622620
681.239680,0.614476
681.549500,0.615556
681.859280,0.616505
682.169020,0.621037
682.478720,0.629020
682.788380,0.619417
683.098000,0.614061
683.407580,0.628518
683.717120,0.622748
684.026620,0.625377
684.336080,0.613869
684.645500,0.613543
684.954880,0.615791
685.264220,0.619479
685.573520,0.631519
685.882780,0.625623
686.192000,0.623401
686.501180,0.620129
686.810320,0.624135
687.119420,0.618016
687.428480,0.617547
687.737500,0.620491
688.046480,0.612347
688.355420,0.615617
688.664320,0.621653
688.973180,0.620597
689.282000,0.616127
689.590780,0.616181
689.899520,0.600076
690.208220,0.615826
690.516880,0.611302
690.825500,0.614717
691.134080,0.609339
691.442620,0.614710
691.751120,0.613955
692.059580,0.611769
692.368000,0.613025
692.676380,0.616794
692.984720,0.607252
693.293020,0.613982
693.601280,0.608546
693.909500,0.608021
694.217680,0.613481
694.525820,0.605484
694.833920,0.598626
695.141980,0.603548
695.450000,0.603435
695.757980,0.604660
696.065920,0.598835
696.373820,0.604696
696.681680,0.593019
696.989500,0.594365
697.297280,0.597044
697.605020,0.611905
697.912720,0.592237
698.220380,0.595041
698.528000,0.608386
698.835580,0.585539
699.143120,0.590413
699.450620,0.594272
699.758080,0.591373
700.065500,0.602953
700.372880,0.596800
700.680220,0.591145
700.987520,0.591270
701.294780,0.596107
701.602000,0.585182
701.909180,0.596184
702.216320,0.577630
702.523420,0.595896
702.830480,0.593267
703.137500,0.585347
703.444480,0.581460
703.751420,0.583037
704.058320,0.576969
704.365180,0.580047
704.672000,0.577822
704.978780,0.575107
705.285520,0.573944
705.592220,0.572941
705.898880,0.574862
706.205500,0.571596
706.512080,0.573855
706.818620,0.560372
707.125120,0.562308
707.431580,0.569754
707.738000,0.565234
708.044380,0.566577
708.350720,0.563240
708.657020,0.561938
708.963280,0.563665
709.269500,0.560078
709.575680,0.556385
709.881820,0.561714
710.187920,0.557588
710.493980,0.544996
710.800000,0.544241
711.105980,0.542545
711.411920,0.546709
711.717820,0.547758
712.023680,0.543335
712.329500,0.551656
712.635280,0.538760
712.941020,0.539235
713.246720,0.537945
713.552380,0.529827
713.858000,0.535278
714.163580,0.538279
714.469120,0.530285
714.774620,0.542045
715.080080,0.528857
715.385500,0.529177
715.690880,0.525444
715.996220,0.529715
716.301520,0.522134
716.606780,0.518082
716.912000,0.524637
717.217180,0.525140
717.522320,0.511730
717.827420,0.517087
718.132480,0.514653
718.437500,0.520995
718.742480,0.510081
719.047420,0.510518
719.352320,0.516397
719.657180,0.511856
719.962000,0.506203
720.266780,0.498546
720.571520,0.503314
720.876220,0.501637
721.180880,0.492475
721.485500,0.495194
721.790080,0.493843
722.094620,0.505146
722.399120,0.506678
722.703580,0.495928
723.008000,0.498491
723.312380,0.485579
723.616720,0.481513
723.921020,0.490256
724.225280,0.473822
724.529500,0.479422
724.833680,0.487544
725.137820,0.478855
725.441920,0.477486
725.745980,0.470694
726.050000,0.474966
726.353980,0.468229
726.657920,0.471435
726.961820,0.476712
727.265680,0.469718
727.569500,0.463894
727.873280,0.468822
728.177020,0.470751
728.480720,0.463889
728.784380,0.464537
729.088000,0.465379
729.391580,0.460919
729.695120,0.466891
729.998620,0.463671
730.302080,0.456511
730.605500,0.446870
730.908880,0.456149
731.212220,0.452498
731.515520,0.450024
731.818780,0.436408
732.122000,0.445866
732.425180,0.445540
732.728320,0.449678
733.031420,0.439098
733.334480,0.440306
733.637500,0.435988
733.940480,0.442170
734.243420,0.444444
734.546320,0.443465
734.849180,0.427169
735.152000,0.434129
735.454780,0.433884
735.757520,0.435195
736.060220,0.438125
736.362880,0.428046
736.665500,0.428198
736.968080,0.419667
737.270620,0.437670
737.573120,0.436681
737.875580,0.433205
738.178000,0.424605
738.480380,0.418378
738.782720,0.406761
739.085020,0.425661
739.387280,0.419069
739.689500,0.421291
739.991680,0.432341
740.293820,0.417910
740.595920,0.408459
740.897980,0.426313
741.200000,0.409422
741.501980,0.421203
741.803920,0.413288
742.105820,0.412296
742.407680,0.405358
742.709500,0.401705
743.011280,0.411489
743.313020,0.406377
743.614720,0.404527
743.916380,0.400000
744.218000,0.411695
744.519580,0.405797
744.821120,0.419760
745.122620,0.403235
745.424080,0.402644
745.725500,0.394689
746.026880,0.402709
746.328220,0.400740
746.629520,0.400963
746.930780,0.403799
747.232000,0.393010
747.533180,0.402074
747.834320,0.405356
748.135420,0.389062
748.436480,0.399251
748.737500,0.399012
749.038480,0.386072
749.339420,0.400747
749.640320,0.393463
749.941180,0.401624
750.242000,0.393844
750.542780,0.394541
750.843520,0.397822
751.144220,0.389744
751.444880,0.395688
751.745500,0.387662
752.046080,0.398974
752.346620,0.398840
752.647120,0.394513
752.947580,0.385511
753.248000,0.389426
753.548380,0.384515
753.848720,0.397939
754.149020,0.381044
754.449280,0.388707
754.749500,0.380889
755.049680,0.384667
755.349820,0.386258
755.649920,0.384666
755.949980,0.393497
756.250000,0.399080
756.549980,0.382838
756.849920,0.386132
757.149820,0.377911
757.449680,0.395380
757.749500,0.394001
758.049280,0.392491
758.349020,0.392907
758.648720,0.396135
758.948380,0.389003
759.248000,0.398248
759.547580,0.388030
759.847120,0.397657
760.146620,0.393775
760.446080,0.391129
760.745500,0.386014
761.044880,0.389915
761.344220,0.392730
761.643520,0.397599
761.942780,0.400980
762.242000,0.395332
762.541180,0.385915
762.840320,0.395365
763.139420,0.391702
763.438480,0.384142
763.737500,0.392833
764.036480,0.397624
764.335420,0.400141
764.634320,0.391545
764.933180,0.394521
765.232000,0.398334
765.530780,0.404912
765.829520,0.401399
766.128220,0.400835
766.426880,0.396588
766.725500,0.413297
767.024080,0.397119
767.322620,0.401107
767.621120,0.403117
767.919580,0.408191
768.218000,0.408345
768.516380,0.407032
768.814720,0.392318
769.113020,0.410751
769.411280,0.410912
769.709500,0.407984
770.007680,0.409680
770.305820,0.408384
770.603920,0.396226
770.901980,0.403005
771.200000,0.403533
771.497980,0.408847
771.795920,0.409365
772.093820,0.396390
772.391680,0.406724
772.689500,0.404054
772.987280,0.422222
773.285020,0.412850
773.582720,0.416216
773.880380,0.422787
774.178000,0.421950
774.475580,0.420630
774.773120,0.426372
775.070620,0.422583
775.368080,0.412826
775.665500,0.409671
775.962880,0.420280
776.260220,0.431359
776.557520,0.427618
776.854780,0.438134
777.152000,0.427719
777.449180,0.429535
777.746320,0.426075
778.043420,0.441337
778.340480,0.432341
778.637500,0.439486
778.934480,0.428379
779.231420,0.433514
779.528320,0.432866
779.825180,0.432806
780.122000,0.436919
780.418780,0.448016
780.715520,0.439973
781.012220,0.454795
781.308880,0.446247
781.605500,0.439726
781.902080,0.455852
782.198620,0.453862
782.495120,0.447188
782.791580,0.453920
783.088000,0.458937
783.384380,0.456671
783.680720,0.454856
783.977020,0.451480
784.273280,0.467133
784.569500,0.469602
784.865680,0.460362
785.161820,0.463889
785.457920,0.446292
785.753980,0.463364
786.050000,0.459254
786.345980,0.465278
786.641920,0.464261
786.937820,0.471510
787.233680,0.466945
787.529500,0.464632
787.825280,0.480878
788.121020,0.469547
788.416720,0.478476
788.712380,0.480254
789.008000,0.475212
789.303580,0.474205
789.599120,0.482182
789.894620,0.484477
790.190080,0.479333
790.485500,0.492441
790.780880,0.493190
791.076220,0.492785
791.371520,0.490922
791.666780,0.493091
791.962000,0.495959
792.257180,0.491947
792.552320,0.506164
792.847420,0.485444
793.142480,0.497436
793.437500,0.490593
793.732480,0.505486
794.027420,0.508160
794.322320,0.505593
794.617180,0.501486
794.912000,0.503715
795.206780,0.516033
795.501520,0.514068
795.796220,0.517037
796.090880,0.509420
796.385500,0.508996
796.680080,0.521316
796.974620,0.512725
797.269120,0.520818
797.563580,0.519847
797.858000,0.526955
798.152380,0.531323
798.446720,0.536154
798.741020,0.532357
799.035280,0.527950
799.329500,0.535797
799.623680,0.536434
