399.985280,0.216216
400.329500,0.256757
400.673680,0.202532
401.017820,0.161765
401.361920,0.257576
401.705980,0.219512
402.050000,0.142857
402.393980,0.282353
402.737920,0.303371
403.081820,0.278351
403.425680,0.232558
403.769500,0.177083
404.113280,0.183908
404.457020,0.303371
404.800720,0.250000
405.144380,0.272727
405.488000,0.236559
405.831580,0.216495
406.175120,0.244681
406.518620,0.230000
406.862080,0.319588
407.205500,0.229167
407.548880,0.285714
407.892220,0.254902
408.235520,0.255319
408.578780,0.257143
408.922000,0.182692
409.265180,0.292929
409.608320,0.252525
409.951420,0.257732
410.294480,0.264706
410.637500,0.336957
410.980480,0.313725
411.323420,0.234694
411.666320,0.275229
412.009180,0.254545
412.352000,0.227723
412.694780,0.247706
413.037520,0.201835
413.380220,0.261261
413.722880,0.258929
414.065500,0.306306
414.408080,0.274336
414.750620,0.265487
415.093120,0.206612
415.435580,0.243697
415.778000,0.242424
416.120380,0.235294
416.462720,0.222222
416.805020,0.255639
417.147280,0.231343
417.489500,0.264286
417.831680,0.239726
418.173820,0.276596
418.515920,0.279720
418.857980,0.234177
419.200000,0.269231
419.541980,0.284024
419.883920,0.247191
420.225820,0.236994
420.567680,0.251397
420.909500,0.229508
421.251280,0.250000
421.593020,0.275510
421.934720,0.212121
422.276380,0.241026
422.618000,0.215686
422.959580,0.259804
423.301120,0.292237
423.642620,0.239130
423.984080,0.246512
424.325500,0.219731
424.666880,0.250000
425.008220,0.231092
425.349520,0.224576
425.690780,0.215385
426.032000,0.247059
426.373180,0.240664
426.714320,0.242187
427.055420,0.235521
427.396480,0.262172
427.737500,0.213439
428.078480,0.229249
428.419420,0.224900
428.760320,0.241379
429.101180,0.248031
429.442000,0.241379
429.782780,0.215385
430.123520,0.231373
430.464220,0.243542
430.804880,0.264368
431.145500,0.232727
431.486080,0.220974
431.826620,0.236434
432.167120,0.242647
432.507580,0.242754
432.848000,0.223022
433.188380,0.220217
433.528720,0.222642
433.869020,0.228571
434.209280,0.214035
434.549500,0.216028
434.889680,0.239057
435.229820,0.249147
435.569920,0.211073
435.909980,0.213592
436.250000,0.247458
436.589980,0.207430
436.929920,0.234921
437.269820,0.219436
437.609680,0.248521
437.949500,0.222892
438.289280,0.237960
438.629020,0.229651
438.968720,0.238372
439.308380,0.219512
439.648000,0.221918
439.987580,0.232804
440.327120,0.224000
440.666620,0.238961
441.006080,0.227621
441.345500,0.235872
441.684880,0.224880
442.024220,0.243176
442.363520,0.230952
442.702780,0.225000
443.042000,0.222467
443.381180,0.230603
443.720320,0.244060
444.059420,0.228992
444.398480,0.228033
444.737500,0.229508
445.076480,0.224206
445.415420,0.231537
445.754320,0.230769
446.093180,0.233028
446.432000,0.231203
446.770780,0.229602
447.109520,0.246324
447.448220,0.225403
447.786880,0.228980
448.125500,0.232759
448.464080,0.233929
448.802620,0.241135
449.141120,0.245675
449.479580,0.239510
449.818000,0.253012
450.156380,0.209030
450.494720,0.242975
450.833020,0.246503
451.171280,0.232877
451.509500,0.247387
451.847680,0.232715
452.185820,0.237522
452.523920,0.230241
452.861980,0.258010
453.200000,0.239203
453.537980,0.252101
453.875920,0.242017
454.213820,0.243151
454.551680,0.251656
454.889500,0.249578
455.227280,0.238434
455.565020,0.249581
455.902720,0.256240
456.240380,0.242928
456.578000,0.261324
456.915580,0.269430
457.253120,0.246711
457.590620,0.259442
457.928080,0.269360
458.265500,0.261824
458.602880,0.253247
458.940220,0.240271
459.277520,0.243200
459.614780,0.260229
459.952000,0.253106
460.289180,0.256329
460.626320,0.264567
460.963420,0.264943
461.300480,0.269113
461.637500,0.254237
461.974480,0.273700
462.311420,0.265276
462.648320,0.265007
462.985180,0.263989
463.322000,0.266369
463.658780,0.266575
463.995520,0.269601
464.332220,0.270083
464.668880,0.264785
465.005500,0.272118
465.342080,0.258643
465.678620,0.261993
466.015120,0.270375
466.351580,0.271808
466.688000,0.272838
467.024380,0.260024
467.360720,0.269318
467.697020,0.258542
468.033280,0.265556
468.369500,0.273731
468.705680,0.278467
469.041820,0.269792
469.377920,0.274403
469.713980,0.269825
470.050000,0.270531
470.385980,0.271037
470.721920,0.266405
471.057820,0.264133
471.393680,0.267540
471.729500,0.264133
472.065280,0.278175
472.401020,0.272163
472.736720,0.264398
473.072380,0.276481
473.408000,0.275892
473.743580,0.264706
474.079120,0.263566
474.414620,0.264631
474.750080,0.264443
475.085500,0.278783
475.420880,0.270608
475.756220,0.264922
476.091520,0.273657
476.426780,0.271845
476.762000,0.268705
477.097180,0.271200
477.432320,0.269790
477.767420,0.274510
478.102480,0.277953
478.437500,0.268473
478.772480,0.270292
479.107420,0.270952
479.442320,0.260592
479.777180,0.271281
480.112000,0.255778
480.446780,0.261107
480.781520,0.266506
481.116220,0.265158
481.450880,0.249024
481.785500,0.273734
482.120080,0.264107
482.454620,0.260295
482.789120,0.265127
483.123580,0.257788
483.458000,0.258703
483.792380,0.266773
484.126720,0.264093
484.461020,0.255269
484.795280,0.259830
485.129500,0.267342
485.463680,0.264341
485.797820,0.262830
486.131920,0.262433
486.465980,0.257143
486.800000,0.260305
487.133980,0.254532
487.467920,0.267789
487.801820,0.264683
488.135680,0.256255
488.469500,0.242814
488.803280,0.248143
489.137020,0.256410
489.470720,0.251484
489.804380,0.261321
490.138000,0.264095
490.471580,0.257922
490.805120,0.253753
491.138620,0.260128
491.472080,0.252297
491.805500,0.245467
492.138880,0.251564
492.472220,0.251903
492.805520,0.252793
493.138780,0.251551
493.472000,0.252174
493.805180,0.254434
494.138320,0.250167
494.471420,0.246094
494.804480,0.247736
495.137500,0.252246
495.470480,0.253665
495.803420,0.246222
496.136320,0.247494
496.469180,0.246163
496.802000,0.250611
497.134780,0.252274
497.467520,0.252599
497.800220,0.252948
498.132880,0.252205
498.465500,0.245655
498.798080,0.251712
499.130620,0.252667
499.463120,0.250421
499.795580,0.249175
500.128000,0.248501
500.460380,0.251884
500.792720,0.251856
501.125020,0.241724
501.457280,0.249086
501.789500,0.250517
502.121680,0.256091
502.453820,0.243753
502.785920,0.249125
503.117980,0.249755
503.450000,0.251632
503.781980,0.254111
504.113920,0.254149
504.445820,0.253281
504.777680,0.256471
505.109500,0.250962
505.441280,0.253346
505.773020,0.256458
506.104720,0.259538
506.436380,0.260293
506.768000,0.257250
507.099580,0.255835
507.431120,0.256674
507.762620,0.258929
508.094080,0.252963
508.425500,0.265173
508.756880,0.261545
509.088220,0.260350
509.419520,0.265829
509.750780,0.261481
510.082000,0.265858
510.413180,0.265316
510.744320,0.272434
511.075420,0.269019
511.406480,0.273625
511.737500,0.270370
512.068480,0.276316
512.399420,0.274178
512.730320,0.273903
513.061180,0.280209
513.392000,0.278751
513.722780,0.276657
514.053520,0.283182
514.384220,0.278782
514.714880,0.280517
515.045500,0.273946
515.376080,0.282324
515.706620,0.283975
516.037120,0.282353
516.367580,0.288812
516.698000,0.282843
517.028380,0.289474
517.358720,0.288889
517.689020,0.292285
518.019280,0.297541
518.349500,0.295996
518.679680,0.307420
519.009820,0.300607
519.339920,0.299599
519.669980,0.308388
520.000000,0.306673
520.329980,0.304821
520.659920,0.307260
520.989820,0.315789
521.319680,0.312243
521.649500,0.315167
521.979280,0.327766
522.309020,0.318983
522.638720,0.313364
522.968380,0.312823
523.298000,0.320459
523.627580,0.325401
523.957120,0.321558
524.286620,0.324648
524.616080,0.331437
524.945500,0.336434
525.274880,0.333504
525.604220,0.326605
525.933520,0.336478
526.262780,0.327927
526.592000,0.337392
526.921180,0.342306
527.250320,0.347539
527.579420,0.341081
527.908480,0.340226
528.237500,0.343595
528.566480,0.348303
528.895420,0.352883
529.224320,0.355622
529.553180,0.351325
529.882000,0.361071
530.210780,0.352799
530.539520,0.354267
530.868220,0.354236
531.196880,0.348304
531.525500,0.370460
531.854080,0.352251
532.182620,0.361980
532.511120,0.363805
532.839580,0.364338
533.168000,0.365998
533.496380,0.371233
533.824720,0.368775
534.153020,0.374498
534.481280,0.373568
534.809500,0.382146
535.137680,0.375000
535.465820,0.377577
535.793920,0.389171
536.121980,0.381452
536.450000,0.391966
536.777980,0.388773
537.105920,0.386052
537.433820,0.390344
537.761680,0.387347
538.089500,0.387293
538.417280,0.387585
538.745020,0.395800
539.072720,0.385787
539.400380,0.394716
539.728000,0.394264
540.055580,0.388390
540.383120,0.396873
540.710620,0.393973
541.038080,0.390262
541.365500,0.395956
541.692880,0.398256
542.020220,0.395826
542.347520,0.399497
542.674780,0.395201
543.002000,0.398530
543.329180,0.403367
543.656320,0.401899
543.983420,0.393504
544.310480,0.398573
544.637500,0.404981
544.964480,0.403096
545.291420,0.401795
545.618320,0.406042
545.945180,0.404746
546.272000,0.399083
546.598780,0.402163
546.925520,0.400593
547.252220,0.406075
547.578880,0.401108
547.905500,0.403595
548.232080,0.401559
548.558620,0.403840
548.885120,0.406608
549.211580,0.404050
549.538000,0.403696
549.864380,0.402251
550.190720,0.403939
550.517020,0.406780
550.843280,0.411401
551.169500,0.399809
551.495680,0.402760
551.821820,0.401045
552.147920,0.401106
552.473980,0.406651
552.800000,0.400916
553.125980,0.401768
553.451920,0.402787
553.777820,0.407728
554.103680,0.407819
554.429500,0.400402
554.755280,0.398198
555.081020,0.394051
555.406720,0.394853
555.732380,0.389021
556.058000,0.397488
556.383580,0.400548
556.709120,0.396968
557.034620,0.396142
557.360080,0.391364
557.685500,0.390733
558.010880,0.395841
558.336220,0.382074
558.661520,0.390287
558.986780,0.391566
559.312000,0.392806
559.637180,0.385996
559.962320,0.383054
560.287420,0.382934
560.612480,0.377467
560.937500,0.381791
561.262480,0.382331
561.587420,0.382300
561.912320,0.373987
562.237180,0.375648
562.562000,0.376356
562.886780,0.373467
563.211520,0.369970
563.536220,0.367718
563.860880,0.373821
564.185500,0.364728
564.510080,0.369827
564.834620,0.374767
565.159120,0.368797
565.483580,0.369061
565.808000,0.368899
566.132380,0.364416
566.456720,0.363946
566.781020,0.356714
567.105280,0.358034
567.429500,0.360395
567.753680,0.360184
568.077820,0.352532
568.401920,0.360963
568.725980,0.356736
569.050000,0.351331
569.373980,0.350209
569.697920,0.350777
570.021820,0.352809
570.345680,0.344432
570.669500,0.347196
570.993280,0.345515
571.317020,0.341980
571.640720,0.341979
571.964380,0.337045
572.288000,0.344214
572.611580,0.343317
572.935120,0.340816
573.258620,0.339940
573.582080,0.337556
573.905500,0.333209
574.228880,0.341128
574.552220,0.334555
574.875520,0.332837
575.198780,0.333213
575.522000,0.333578
575.845180,0.323066
576.168320,0.330219
576.491420,0.331395
576.814480,0.324051
577.137500,0.326479
577.460480,0.322581
577.783420,0.322258
578.106320,0.324786
578.429180,0.324496
578.752000,0.319208
579.074780,0.317599
579.397520,0.321498
579.720220,0.321107
580.042880,0.324414
580.365500,0.315023
580.688080,0.317503
581.010620,0.317246
581.333120,0.314963
581.655580,0.319014
581.978000,0.317592
582.300380,0.310289
582.622720,0.315425
582.945020,0.306892
583.267280,0.304135
583.589500,0.304655
583.911680,0.308987
584.233820,0.307523
584.555920,0.312638
584.877980,0.312186
585.200000,0.306016
585.521980,0.311399
585.843920,0.308420
586.165820,0.308653
586.487680,0.308757
586.809500,0.308731
587.131280,0.305235
587.453020,0.308929
587.774720,0.307510
588.096380,0.305718
588.418000,0.307872
588.739580,0.311871
589.061120,0.312823
589.382620,0.303438
589.704080,0.304909
590.025500,0.314212
590.346880,0.306352
590.668220,0.312237
590.989520,0.305324
591.310780,0.307926
591.632000,0.306011
591.953180,0.309438
592.274320,0.311766
592.595420,0.303341
592.916480,0.305895
593.237500,0.313932
593.558480,0.311003
593.879420,0.309954
594.200320,0.312081
594.521180,0.313147
594.842000,0.314616
595.162780,0.319444
595.483520,0.316671
595.804220,0.316327
596.124880,0.317879
596.445500,0.314645
596.766080,0.324012
597.086620,0.317144
597.407120,0.316746
597.727580,0.322726
598.048000,0.321608
598.368380,0.315886
598.688720,0.323984
599.009020,0.321921
599.329280,0.324109
599.649500,0.319863
599.969680,0.326389
600.289820,0.326389
600.609920,0.325407
600.929980,0.334580
601.250000,0.327568
601.569980,0.333513
601.889920,0.329591
602.209820,0.329004
602.529680,0.335622
602.849500,0.338243
603.169280,0.340865
603.489020,0.337946
603.808720,0.339550
604.128380,0.343819
604.448000,0.338398
604.767580,0.345251
605.087120,0.339335
605.406620,0.341730
605.726080,0.350157
606.045500,0.348286
606.364880,0.351290
606.684220,0.355511
607.003520,0.355218
607.322780,0.354463
607.642000,0.352958
607.961180,0.357329
608.280320,0.361369
608.599420,0.361240
608.918480,0.363930
609.237500,0.366784
609.556480,0.369044
609.875420,0.370939
610.194320,0.371420
610.513180,0.367860
610.832000,0.377606
611.150780,0.381796
611.469520,0.378281
611.788220,0.388755
612.106880,0.386309
612.425500,0.382156
612.744080,0.387504
613.062620,0.387156
613.381120,0.393662
613.699580,0.392091
614.018000,0.392506
614.336380,0.400062
614.654720,0.400000
614.973020,0.395248
615.291280,0.400682
615.609500,0.409509
615.927680,0.401422
616.245820,0.407854
616.563920,0.416848
616.881980,0.412223
617.200000,0.416174
617.517980,0.412570
617.835920,0.416589
618.153820,0.418713
618.471680,0.422326
618.789500,0.419446
619.107280,0.423161
619.425020,0.432604
619.742720,0.435342
620.060380,0.428079
620.378000,0.434235
620.695580,0.431673
621.013120,0.436850
621.330620,0.439598
621.648080,0.438170
621.965500,0.450125
622.282880,0.448613
622.600220,0.456096
622.917520,0.457467
623.234780,0.460302
623.552000,0.459898
623.869180,0.456666
624.186320,0.455269
624.503420,0.463636
624.820480,0.464970
625.137500,0.467319
625.454480,0.470460
625.771420,0.476356
626.088320,0.478878
626.405180,0.476042
626.722000,0.475847
627.038780,0.480890
627.355520,0.478750
627.672220,0.487714
627.988880,0.486159
628.305500,0.486756
628.622080,0.503717
628.938620,0.492661
629.255120,0.502800
629.571580,0.500153
629.888000,0.498926
630.204380,0.498006
630.520720,0.504266
630.837020,0.509713
631.153280,0.512290
631.469500,0.513341
631.785680,0.506329
632.101820,0.514475
632.417920,0.513562
632.733980,0.517407
633.050000,0.522741
633.365980,0.520747
633.681920,0.524761
633.997820,0.526300
634.313680,0.526098
634.629500,0.526098
634.945280,0.536070
635.261020,0.543587
635.576720,0.536700
635.892380,0.535870
636.208000,0.533992
636.523580,0.541070
636.839120,0.538506
637.154620,0.548696
637.470080,0.546341
637.785500,0.550410
638.100880,0.549377
638.416220,0.552200
638.731520,0.550430
639.046780,0.558112
639.362000,0.552179
639.677180,0.552827
639.992320,0.559628
640.307420,0.557741
640.622480,0.555587
640.937500,0.554230
641.252480,0.570511
641.567420,0.566354
641.882320,0.566258
642.197180,0.569062
642.512000,0.565911
642.826780,0.570042
643.141520,0.575160
643.456220,0.569175
643.770880,0.571863
644.085500,0.577138
644.400080,0.582022
644.714620,0.581940
645.029120,0.577283
645.343580,0.586945
645.658000,0.578129
645.972380,0.580433
646.286720,0.584901
646.601020,0.583172
646.915280,0.585138
647.229500,0.584341
647.543680,0.586578
647.857820,0.589871
648.171920,0.589257
648.485980,0.588380
648.800000,0.586112
649.113980,0.587029
649.427920,0.592510
649.741820,0.594669
650.055680,0.596544
650.369500,0.596693
650.683280,0.590455
650.997020,0.597635
651.310720,0.588608
651.624380,0.590659
651.938000,0.595014
652.251580,0.602004
652.565120,0.584964
652.878620,0.593187
653.192080,0.596629
653.505500,0.599439
653.818880,0.596531
654.132220,0.600968
654.445520,0.598979
654.758780,0.598017
655.072000,0.598567
655.385180,0.605136
655.698320,0.597599
656.011420,0.605618
656.324480,0.601865
656.637500,0.600811
656.950480,0.604815
657.263420,0.601537
657.576320,0.608953
657.889180,0.601887
658.202000,0.605072
658.514780,0.606430
658.827520,0.598739
659.140220,0.597243
659.452880,0.604953
659.765500,0.602649
660.078080,0.599759
660.390620,0.597006
660.703120,0.603727
661.015580,0.603988
661.328000,0.609887
661.640380,0.607642
661.952720,0.603862
662.265020,0.609011
662.577280,0.608142
662.889500,0.591611
663.201680,0.606254
663.513820,0.598263
663.825920,0.599744
664.137980,0.604396
664.450000,0.598785
664.761980,0.595745
665.073920,0.587796
665.385820,0.589987
665.697680,0.599669
666.009500,0.600599
666.321280,0.591120
666.633020,0.598072
666.944720,0.589484
667.256380,0.593540
667.568000,0.585258
667.879580,0.593878
668.191120,0.601305
668.502620,0.590551
668.814080,0.594737
669.125500,0.585015
669.436880,0.588520
669.748220,0.584631
670.059520,0.590336
670.370780,0.589770
670.682000,0.589381
670.993180,0.588795
671.304320,0.581575
671.615420,0.579901
671.926480,0.573811
672.237500,0.572705
672.548480,0.580199
672.859420,0.582916
673.170320,0.581429
673.481180,0.577480
673.792000,0.569780
674.102780,0.574506
674.413520,0.570179
674.724220,0.565880
675.034880,0.566557
675.345500,0.571481
675.656080,0.566969
675.966620,0.565660
676.277120,0.558770
676.587580,0.570324
676.898000,0.564763
677.208380,0.561553
677.518720,0.555434
677.829020,0.558019
678.139280,0.557450
678.449500,0.564055
678.759680,0.558636
679.069820,0.547955
679.379920,0.551113
679.689980,0.554400
680.000000,0.546916
680.309980,0.548627
680.619920,0.542598
680.929820,0.548339
681.239680,0.538405
681.549500,0.537407
681.859280,0.547423
682.169020,0.537113
682.478720,0.541137
682.788380,0.537099
683.098000,0.531788
683.407580,0.537336
683.717120,0.528153
684.026620,0.528991
684.336080,0.524062
684.645500,0.518144
684.954880,0.528523
685.264220,0.529256
685.573520,0.532927
685.882780,0.521672
686.192000,0.520692
686.501180,0.519864
686.810320,0.516141
687.119420,0.521855
687.428480,0.519180
687.737500,0.512663
688.046480,0.506902
688.355420,0.508487
688.664320,0.508416
688.973180,0.506126
689.282000,0.507330
689.590780,0.501534
689.899520,0.500949
690.208220,0.502676
690.516880,0.496373
690.825500,0.496981
691.134080,0.501519
691.442620,0.490091
691.751120,0.494122
692.059580,0.497898
692.368000,0.485422
692.676380,0.485115
692.984720,0.485115
693.293020,0.486322
693.601280,0.479588
693.909500,0.474461
694.217680,0.481340
694.525820,0.477913
694.833920,0.476536
695.141980,0.474740
695.450000,0.476718
695.757980,0.460657
696.065920,0.459029
696.373820,0.463433
696.681680,0.458765
696.989500,0.465457
697.297280,0.461688
697.605020,0.467857
697.912720,0.448501
698.220380,0.454545
698.528000,0.462816
698.835580,0.459897
699.143120,0.451286
699.450620,0.447494
699.758080,0.448235
700.065500,0.451317
700.372880,0.440800
700.680220,0.443957
700.987520,0.440873
701.294780,0.438767
701.602000,0.439382
701.909180,0.445548
702.216320,0.437231
702.523420,0.440805
702.830480,0.435248
703.137500,0.432190
703.444480,0.437870
703.751420,0.435503
704.058320,0.421844
704.365180,0.421924
704.672000,0.426535
704.978780,0.420991
705.285520,0.411972
705.592220,0.421569
705.898880,0.423168
706.205500,0.422535
706.512080,0.417062
706.818620,0.419505
707.125120,0.417308
707.431580,0.408753
707.738000,0.410156
708.044380,0.403705
708.350720,0.410394
708.657020,0.419695
708.963280,0.406832
709.269500,0.405871
709.575680,0.401572
709.881820,0.400157
710.187920,0.401946
710.493980,0.398759
710.800000,0.398551
711.105980,0.388931
711.411920,0.395743
711.717820,0.393372
712.023680,0.391761
712.329500,0.393533
712.635280,0.401938
712.941020,0.395439
713.246720,0.396047
713.552380,0.394427
713.858000,0.386283
714.163580,0.386740
714.469120,0.383744
714.774620,0.389262
715.080080,0.385944
715.385500,0.391287
715.690880,0.380276
715.996220,0.384707
716.301520,0.384190
716.606780,0.377358
716.912000,0.383683
717.217180,0.385475
717.522320,0.374950
717.827420,0.382018
718.132480,0.380570
718.437500,0.381981
718.742480,0.373790
719.047420,0.370146
719.352320,0.373184
719.657180,0.373671
719.962000,0.366832
720.266780,0.371417
720.571520,0.371997
720.876220,0.369067
721.180880,0.364548
721.485500,0.366068
721.790080,0.369427
722.094620,0.371355
722.399120,0.373977
722.703580,0.359623
723.008000,0.368693
723.312380,0.367198
723.616720,0.362516
723.921020,0.366392
724.225280,0.366492
724.529500,0.363398
724.833680,0.366103
725.137820,0.370485
725.441920,0.360232
725.745980,0.364206
726.050000,0.364456
726.353980,0.359621
726.657920,0.359424
726.961820,0.372146
727.265680,0.357374
727.569500,0.363346
727.873280,0.355196
728.177020,0.363427
728.480720,0.363426
728.784380,0.375294
729.088000,0.358926
729.391580,0.358598
729.695120,0.363724
729.998620,0.357075
730.302080,0.361845
730.605500,0.352741
730.908880,0.356688
731.212220,0.358962
731.515520,0.365675
731.818780,0.361165
732.122000,0.361220
732.425180,0.356333
732.728320,0.360436
733.031420,0.359398
733.334480,0.361735
733.637500,0.358367
733.940480,0.362845
734.243420,0.366463
734.546320,0.362033
734.849180,0.365186
735.152000,0.369813
735.454780,0.363636
735.757520,0.364594
736.060220,0.363349
736.362880,0.361345
736.665500,0.359791
736.968080,0.380978
737.270620,0.373979
737.573120,0.374454
737.875580,0.371083
738.178000,0.367447
738.480380,0.365405
738.782720,0.365867
739.085020,0.376652
739.387280,0.373060
739.689500,0.373726
739.991680,0.375632
740.293820,0.377004
740.595920,0.376183
740.897980,0.383964
741.200000,0.373528
741.501980,0.378797
741.803920,0.377252
742.105820,0.377891
742.407680,0.382644
742.709500,0.373864
743.011280,0.378077
743.313020,0.383188
743.614720,0.381312
743.916380,0.379651
744.218000,0.388425
744.519580,0.388889
744.821120,0.387425
745.122620,0.387657
745.424080,0.384014
745.725500,0.392879
746.026880,0.392857
746.328220,0.405055
746.629520,0.387718
746.930780,0.393995
747.232000,0.381974
747.533180,0.398414
747.834320,0.398661
748.135420,0.385333
748.436480,0.398004
748.737500,0.403335
749.038480,0.396457
749.339420,0.410703
749.640320,0.402891
749.941180,0.403498
750.242000,0.407663
750.542780,0.405087
750.843520,0.408712
751.144220,0.412179
751.444880,0.410907
751.745500,0.402597
752.046080,0.418858
752.346620,0.416237
752.647120,0.417374
752.947580,0.420440
753.248000,0.418440
753.548380,0.416396
753.848720,0.428847
754.149020,0.416505
754.449280,0.423506
754.749500,0.420703
755.049680,0.425333
755.349820,0.431621
755.649920,0.426305
755.949980,0.433975
756.250000,0.437870
756.549980,0.429043
756.849920,0.435078
757.149820,0.438456
757.449680,0.444224
757.749500,0.441718
758.049280,0.439590
758.349020,0.443672
758.648720,0.449965
758.948380,0.442612
759.248000,0.450135
759.547580,0.449227
759.847120,0.462440
760.146620,0.458728
760.446080,0.450269
760.745500,0.459441
761.044880,0.464489
761.344220,0.461867
761.643520,0.463277
761.942780,0.466060
762.242000,0.475248
762.541180,0.465493
762.840320,0.476826
763.139420,0.473277
763.438480,0.462748
763.737500,0.470710
764.036480,0.487072
764.335420,0.477064
764.634320,0.467775
764.933180,0.478082
765.232000,0.480222
765.530780,0.487719
765.829520,0.496503
766.128220,0.492693
766.426880,0.486141
766.725500,0.477724
767.024080,0.490398
767.322620,0.505533
767.621120,0.493225
767.919580,0.491468
768.218000,0.496580
768.516380,0.508452
768.814720,0.490398
769.113020,0.508615
769.411280,0.512431
769.709500,0.514208
770.007680,0.513292
770.305820,0.510480
770.603920,0.510108
770.901980,0.525273
771.200000,0.516984
771.497980,0.524799
771.795920,0.517057
772.093820,0.517380
772.391680,0.516150
772.689500,0.541892
772.987280,0.532660
773.285020,0.535202
773.582720,0.539865
773.880380,0.553878
774.178000,0.543967
774.475580,0.553248
774.773120,0.539491
775.070620,0.547667
775.368080,0.552438
775.665500,0.545332
775.962880,0.557038
776.260220,0.563930
776.557520,0.556371
776.854780,0.565247
777.152000,0.563660
777.449180,0.575185
777.746320,0.551747
778.043420,0.568213
778.340480,0.571719
778.637500,0.570656
778.934480,0.559516
779.231420,0.567843
779.528320,0.567802
779.825180,0.565876
780.122000,0.573041
780.418780,0.580027
780.715520,0.580818
781.012220,0.586301
781.308880,0.590940
781.605500,0.602055
781.902080,0.594798
782.198620,0.590567
782.495120,0.606310
782.791580,0.601788
783.088000,0.599034
783.384380,0.593535
783.680720,0.589603
783.977020,0.596008
784.273280,0.604895
784.569500,0.605171
784.865680,0.602225
785.161820,0.615972
785.457920,0.612613
785.753980,0.613398
786.050000,0.600138
786.345980,0.614583
786.641920,0.604441
786.937820,0.633191
787.233680,0.619346
787.529500,0.617892
787.825280,0.620397
788.121020,0.614731
788.416720,0.624559
788.712380,0.621298
789.008000,0.617564
789.303580,0.627562
789.599120,0.642909
789.894620,0.639711
790.190080,0.638144
790.485500,0.652988
790.780880,0.637993
791.076220,0.641414
791.371520,0.649237
791.666780,0.642909
791.962000,0.651727
792.257180,0.660322
792.552320,0.653372
792.847420,0.652838
793.142480,0.666667
793.437500,0.654124
793.732480,0.649598
794.027420,0.666172
794.322320,0.664430
794.617180,0.651560
794.912000,0.659733
795.206780,0.667412
795.501520,0.665399
795.796220,0.665185
796.090880,0.667671
796.385500,0.668666
796.680080,0.676141
796.974620,0.675150
797.269120,0.676003
797.563580,0.683206
797.858000,0.684890
798.152380,0.688322
798.446720,0.688462
798.741020,0.687211
799.035280,0.685559
799.329500,0.678214
799.623680,0.681395
