399.985280,0.216216
400.329500,0.243243
400.673680,0.253165
401.017820,0.205882
401.361920,0.181818
401.705980,0.219512
402.050000,0.220779
402.393980,0.258824
402.737920,0.247191
403.081820,0.257732
403.425680,0.220930
403.769500,0.187500
404.113280,0.114943
404.457020,0.235955
404.800720,0.195652
405.144380,0.242424
405.488000,0.225806
405.831580,0.195876
406.175120,0.191489
406.518620,0.220000
406.862080,0.237113
407.205500,0.229167
407.548880,0.234694
407.892220,0.166667
408.235520,0.180851
408.578780,0.257143
408.922000,0.201923
409.265180,0.242424
409.608320,0.222222
409.951420,0.247423
410.294480,0.254902
410.637500,0.173913
410.980480,0.254902
411.323420,0.244898
411.666320,0.275229
412.009180,0.281818
412.352000,0.217822
412.694780,0.247706
413.037520,0.165138
413.380220,0.252252
413.722880,0.250000
414.065500,0.279279
414.408080,0.274336
414.750620,0.203540
415.093120,0.223140
415.435580,0.302521
415.778000,0.257576
416.120380,0.252101
416.462720,0.230159
416.805020,0.270677
417.147280,0.253731
417.489500,0.250000
417.831680,0.246575
418.173820,0.255319
418.515920,0.251748
418.857980,0.240506
419.200000,0.262821
419.541980,0.284024
419.883920,0.280899
420.225820,0.283237
420.567680,0.256983
420.909500,0.284153
421.251280,0.260417
421.593020,0.285714
421.934720,0.262626
422.276380,0.266667
422.618000,0.264706
422.959580,0.279412
423.301120,0.269406
423.642620,0.217391
423.984080,0.246512
424.325500,0.269058
424.666880,0.254310
425.008220,0.243697
425.349520,0.245763
425.690780,0.273077
426.032000,0.247059
426.373180,0.257261
426.714320,0.265625
427.055420,0.250965
427.396480,0.280899
427.737500,0.260870
428.078480,0.221344
428.419420,0.240964
428.760320,0.279693
429.101180,0.259843
429.442000,0.279693
429.782780,0.261538
430.123520,0.254902
430.464220,0.247232
430.804880,0.272031
431.145500,0.258182
431.486080,0.280899
431.826620,0.248062
432.167120,0.272059
432.507580,0.268116
432.848000,0.251799
433.188380,0.281588
433.528720,0.245283
433.869020,0.264286
434.209280,0.256140
434.549500,0.282230
434.889680,0.276094
435.229820,0.262799
435.569920,0.238754
435.909980,0.249191
436.250000,0.254237
436.589980,0.229102
436.929920,0.260317
437.269820,0.260188
437.609680,0.275148
437.949500,0.250000
438.289280,0.260623
438.629020,0.264535
438.968720,0.255814
439.308380,0.238482
439.648000,0.254795
439.987580,0.253968
440.327120,0.250667
440.666620,0.233766
441.006080,0.255754
441.345500,0.248157
441.684880,0.232057
442.024220,0.230769
442.363520,0.228571
442.702780,0.236364
443.042000,0.235683
443.381180,0.247845
443.720320,0.241901
444.059420,0.237395
444.398480,0.223849
444.737500,0.237705
445.076480,0.234127
445.415420,0.247505
445.754320,0.232848
446.093180,0.229358
446.432000,0.234962
446.770780,0.239089
447.109520,0.226103
447.448220,0.223614
447.786880,0.239714
448.125500,0.231034
448.464080,0.228571
448.802620,0.246454
449.141120,0.226644
449.479580,0.220280
449.818000,0.234079
450.156380,0.220736
450.494720,0.223140
450.833020,0.236014
451.171280,0.222603
451.509500,0.231707
451.847680,0.227656
452.185820,0.232358
452.523920,0.233677
452.861980,0.215852
453.200000,0.220930
453.537980,0.216807
453.875920,0.220168
454.213820,0.202055
454.551680,0.221854
454.889500,0.220911
455.227280,0.215302
455.565020,0.222781
455.902720,0.226290
456.240380,0.226290
456.578000,0.221254
456.915580,0.222798
457.253120,0.210526
457.590620,0.236453
457.928080,0.225589
458.265500,0.221284
458.602880,0.225649
458.940220,0.226734
459.277520,0.216000
459.614780,0.222586
459.952000,0.215839
460.289180,0.235759
460.626320,0.218898
460.963420,0.226171
461.300480,0.215596
461.637500,0.217257
461.974480,0.235474
462.311420,0.223547
462.648320,0.215227
462.985180,0.208034
463.322000,0.230655
463.658780,0.222376
463.995520,0.217331
464.332220,0.218837
464.668880,0.224462
465.005500,0.230563
465.342080,0.233035
465.678620,0.221402
466.015120,0.232859
466.351580,0.233881
466.688000,0.226553
467.024380,0.234508
467.360720,0.234091
467.697020,0.239180
468.033280,0.228889
468.369500,0.235099
468.705680,0.235626
469.041820,0.241667
469.377920,0.235358
469.713980,0.231720
470.050000,0.237681
470.385980,0.238748
470.721920,0.235064
471.057820,0.241715
471.393680,0.236670
471.729500,0.232623
472.065280,0.247764
472.401020,0.240248
472.736720,0.251309
473.072380,0.249551
473.408000,0.242820
473.743580,0.251730
474.079120,0.265289
474.414620,0.251060
474.750080,0.252238
475.085500,0.245066
475.420880,0.242298
475.756220,0.259199
476.091520,0.254902
476.426780,0.260518
476.762000,0.251810
477.097180,0.261600
477.432320,0.253635
477.767420,0.258170
478.102480,0.259843
478.437500,0.261905
478.772480,0.259259
479.107420,0.262815
479.442320,0.274181
479.777180,0.280827
480.112000,0.274268
480.446780,0.268901
480.781520,0.272142
481.116220,0.274050
481.450880,0.273224
481.785500,0.287184
482.120080,0.284483
482.454620,0.278166
482.789120,0.280255
483.123580,0.284268
483.458000,0.283228
483.792380,0.281150
484.126720,0.285714
484.461020,0.294301
484.795280,0.287587
485.129500,0.293843
485.463680,0.291473
485.797820,0.289269
486.131920,0.293803
486.465980,0.296525
486.800000,0.300763
487.133980,0.308912
487.467920,0.299923
487.801820,0.295195
488.135680,0.299469
488.469500,0.292738
488.803280,0.297177
489.137020,0.293040
489.470720,0.301187
489.804380,0.312546
490.138000,0.311573
490.471580,0.303611
490.805120,0.309507
491.138620,0.307747
491.472080,0.309541
491.805500,0.309623
492.138880,0.306463
492.472220,0.314879
492.805520,0.319134
493.138780,0.319090
493.472000,0.315050
493.805180,0.311050
494.138320,0.317545
494.471420,0.316406
494.804480,0.320181
495.137500,0.320924
495.470480,0.325048
495.803420,0.316121
496.136320,0.318296
496.469180,0.317373
496.802000,0.319071
497.134780,0.322013
497.467520,0.332722
497.800220,0.318986
498.132880,0.323339
498.465500,0.320394
498.798080,0.322489
499.130620,0.320045
499.463120,0.323975
499.795580,0.323432
500.128000,0.326431
500.460380,0.325619
500.792720,0.321845
501.125020,0.323174
501.457280,0.324282
501.789500,0.321281
502.121680,0.321410
502.453820,0.320755
502.785920,0.325663
503.117980,0.328754
503.450000,0.327474
503.781980,0.326856
504.113920,0.320057
504.445820,0.317453
504.777680,0.315765
505.109500,0.320192
505.441280,0.321224
505.773020,0.317990
506.104720,0.321244
506.436380,0.318504
506.768000,0.320861
507.099580,0.314874
507.431120,0.318033
507.762620,0.321898
508.094080,0.316773
508.425500,0.323529
508.756880,0.310928
509.088220,0.318307
509.419520,0.316574
509.750780,0.314902
510.082000,0.312500
510.413180,0.315983
510.744320,0.317994
511.075420,0.309808
511.406480,0.314998
511.737500,0.308333
512.068480,0.308271
512.399420,0.307981
512.730320,0.299307
513.061180,0.307326
513.392000,0.298628
513.722780,0.306916
514.053520,0.304744
514.384220,0.303520
514.714880,0.296793
515.045500,0.293582
515.376080,0.295884
515.706620,0.296639
516.037120,0.303922
516.367580,0.298669
516.698000,0.288725
517.028380,0.301887
517.358720,0.289383
517.689020,0.294758
518.019280,0.291019
518.349500,0.295996
518.679680,0.292277
519.009820,0.281377
519.339920,0.294589
519.669980,0.286791
520.000000,0.288334
520.329980,0.284085
520.659920,0.277096
520.989820,0.281218
521.319680,0.278807
521.649500,0.271979
521.979280,0.277662
522.309020,0.279564
522.638720,0.275986
522.968380,0.274043
523.298000,0.275052
523.627580,0.277807
523.957120,0.272208
524.286620,0.274622
524.616080,0.276112
524.945500,0.269767
525.274880,0.271934
525.604220,0.261387
525.933520,0.267820
526.262780,0.261024
526.592000,0.271943
526.921180,0.268156
527.250320,0.258245
527.579420,0.263264
527.908480,0.264402
528.237500,0.258689
528.566480,0.260978
528.895420,0.259241
529.224320,0.265973
529.553180,0.258795
529.882000,0.263747
530.210780,0.256757
530.539520,0.256472
530.868220,0.258018
531.196880,0.258481
531.525500,0.261501
531.854080,0.257505
532.182620,0.255955
532.511120,0.256613
532.839580,0.261797
533.168000,0.255697
533.496380,0.254338
533.824720,0.254374
534.153020,0.255016
534.481280,0.253744
534.809500,0.252419
535.137680,0.251736
535.465820,0.246993
535.793920,0.255922
536.121980,0.256399
536.450000,0.253700
536.777980,0.255132
537.105920,0.251972
537.433820,0.251227
537.761680,0.262041
538.089500,0.257790
538.417280,0.257859
538.745020,0.255943
539.072720,0.255759
539.400380,0.259518
539.728000,0.256979
540.055580,0.250936
540.383120,0.255771
540.710620,0.252232
541.038080,0.254519
541.365500,0.251838
541.692880,0.258721
542.020220,0.251889
542.347520,0.258794
542.674780,0.261468
543.002000,0.257523
543.329180,0.264118
543.656320,0.264065
543.983420,0.260513
544.310480,0.257560
544.637500,0.259638
544.964480,0.268170
545.291420,0.262546
545.618320,0.263944
545.945180,0.262030
546.272000,0.261796
546.598780,0.265487
546.925520,0.265084
547.252220,0.269726
547.578880,0.270772
547.905500,0.273529
548.232080,0.273229
548.558620,0.275626
548.885120,0.277723
549.211580,0.273224
549.538000,0.280804
549.864380,0.280707
550.190720,0.285760
550.517020,0.275098
550.843280,0.283713
551.169500,0.280534
551.495680,0.284494
551.821820,0.288047
552.147920,0.291152
552.473980,0.293382
552.800000,0.286789
553.125980,0.294041
553.451920,0.300265
553.777820,0.304797
554.103680,0.298955
554.429500,0.293606
554.755280,0.300401
555.081020,0.300468
555.406720,0.308161
555.732380,0.295154
556.058000,0.306517
556.383580,0.305033
556.709120,0.311509
557.034620,0.312780
557.360080,0.315717
557.685500,0.311203
558.010880,0.317504
558.336220,0.313181
558.661520,0.327898
558.986780,0.324592
559.312000,0.327635
559.637180,0.327828
559.962320,0.328943
560.287420,0.334626
560.612480,0.327592
560.937500,0.333333
561.262480,0.333944
561.587420,0.340950
561.912320,0.339720
562.237180,0.339378
562.562000,0.344557
562.886780,0.345968
563.211520,0.342399
563.536220,0.346939
563.860880,0.354583
564.185500,0.350094
564.510080,0.359293
564.834620,0.354671
565.159120,0.355263
565.483580,0.367921
565.808000,0.360575
566.132380,0.370384
566.456720,0.371126
566.781020,0.373968
567.105280,0.368998
567.429500,0.378225
567.753680,0.381665
568.077820,0.373405
568.401920,0.386555
568.725980,0.385958
569.050000,0.391635
569.373980,0.383708
569.697920,0.394388
570.021820,0.398502
570.345680,0.394566
570.669500,0.397177
570.993280,0.404946
571.317020,0.395323
571.640720,0.402001
571.964380,0.407944
572.288000,0.403932
572.611580,0.410708
572.935120,0.421624
573.258620,0.417352
573.582080,0.416915
573.905500,0.419211
574.228880,0.424647
574.552220,0.426163
574.875520,0.423306
575.198780,0.421034
575.522000,0.421921
575.845180,0.415115
576.168320,0.433345
576.491420,0.440770
576.814480,0.440506
577.137500,0.448773
577.460480,0.438927
577.783420,0.443373
578.106320,0.451923
578.429180,0.449982
578.752000,0.448072
579.074780,0.453473
579.397520,0.450613
579.720220,0.457851
580.042880,0.465477
580.365500,0.457313
580.688080,0.460991
581.010620,0.455957
581.333120,0.470274
581.655580,0.465867
581.978000,0.471234
582.300380,0.465758
582.622720,0.473303
582.945020,0.473017
583.267280,0.475415
583.589500,0.477047
583.911680,0.483328
584.233820,0.478439
584.555920,0.488497
584.877980,0.489636
585.200000,0.476366
585.521980,0.485326
585.843920,0.489018
586.165820,0.492992
586.487680,0.494132
586.809500,0.500450
587.131280,0.490092
587.453020,0.506845
587.774720,0.502661
588.096380,0.501459
588.418000,0.498976
588.739580,0.501006
589.061120,0.500863
589.382620,0.501146
589.704080,0.503226
590.025500,0.507135
590.346880,0.514053
590.668220,0.504621
590.989520,0.506101
591.310780,0.510632
591.632000,0.507923
591.953180,0.507888
592.274320,0.503686
592.595420,0.505657
592.916480,0.511546
593.237500,0.512261
593.558480,0.517622
593.879420,0.517939
594.200320,0.515671
594.521180,0.517663
594.842000,0.524181
595.162780,0.520566
595.483520,0.523531
595.804220,0.523631
596.124880,0.529177
596.445500,0.512444
596.766080,0.532401
597.086620,0.522824
597.407120,0.517378
597.727580,0.527446
598.048000,0.518117
598.368380,0.519726
598.688720,0.517169
599.009020,0.516985
599.329280,0.530601
599.649500,0.521130
599.969680,0.523237
600.289820,0.526442
600.609920,0.523110
600.929980,0.523784
601.250000,0.522432
601.569980,0.523359
601.889920,0.516439
602.209820,0.517316
602.529680,0.536391
602.849500,0.518549
603.169280,0.525214
603.489020,0.525325
603.808720,0.517005
604.128380,0.520419
604.448000,0.522099
604.767580,0.518994
605.087120,0.512188
605.406620,0.523370
605.726080,0.522669
606.045500,0.508220
606.364880,0.515736
606.684220,0.516848
607.003520,0.516915
607.322780,0.519045
607.642000,0.512924
607.961180,0.516912
608.280320,0.515371
608.599420,0.512746
608.918480,0.516129
609.237500,0.519953
609.556480,0.512578
609.875420,0.513290
610.194320,0.512548
610.513180,0.505771
610.832000,0.512507
611.150780,0.505557
611.469520,0.507391
611.788220,0.511185
612.106880,0.503920
612.425500,0.508222
612.744080,0.504463
613.062620,0.499083
613.381120,0.496344
613.699580,0.499387
614.018000,0.496929
614.336380,0.496915
614.654720,0.497674
614.973020,0.499846
615.291280,0.493337
615.609500,0.498891
615.927680,0.495983
616.245820,0.491342
616.563920,0.487411
616.881980,0.494231
617.200000,0.491135
617.517980,0.484443
617.835920,0.479031
618.153820,0.479639
618.471680,0.475349
618.789500,0.478918
619.107280,0.485446
619.425020,0.472883
619.742720,0.475832
620.060380,0.467878
620.378000,0.471051
620.695580,0.476373
621.013120,0.466772
621.330620,0.469721
621.648080,0.460568
621.965500,0.460790
622.282880,0.459962
622.600220,0.462729
622.917520,0.466289
623.234780,0.461909
623.552000,0.465309
623.869180,0.459817
624.186320,0.448902
624.503420,0.458934
624.820480,0.454288
625.137500,0.453742
625.454480,0.449203
625.771420,0.445460
626.088320,0.452711
626.405180,0.450218
626.722000,0.446048
627.038780,0.442982
627.355520,0.441875
627.672220,0.442613
627.988880,0.437325
628.305500,0.436273
628.622080,0.442069
628.938620,0.431498
629.255120,0.439950
629.571580,0.429053
629.888000,0.428659
630.204380,0.425284
630.520720,0.427483
630.837020,0.425840
631.153280,0.424760
631.469500,0.417526
631.785680,0.414406
632.101820,0.422497
632.417920,0.410432
632.733980,0.409964
633.050000,0.414190
633.365980,0.408714
633.681920,0.406623
633.997820,0.409743
634.313680,0.406665
634.629500,0.404895
634.945280,0.402053
635.261020,0.405635
635.576720,0.399883
635.892380,0.400813
636.208000,0.397153
636.523580,0.392283
636.839120,0.396931
637.154620,0.392464
637.470080,0.385653
637.785500,0.393904
638.100880,0.384304
638.416220,0.392292
638.731520,0.387679
639.046780,0.389164
639.362000,0.382454
639.677180,0.377499
639.992320,0.378066
640.307420,0.378758
640.622480,0.371885
640.937500,0.367822
641.252480,0.367216
641.567420,0.374538
641.882320,0.365813
642.197180,0.362998
642.512000,0.359082
642.826780,0.365326
643.141520,0.365379
643.456220,0.360542
643.770880,0.362078
644.085500,0.358860
644.400080,0.361236
644.714620,0.361483
645.029120,0.355061
645.343580,0.349150
645.658000,0.353317
645.972380,0.351329
646.286720,0.351049
646.601020,0.344589
646.915280,0.348506
647.229500,0.347253
647.543680,0.347418
647.857820,0.346821
648.171920,0.347260
648.485980,0.339819
648.800000,0.336732
649.113980,0.343681
649.427920,0.339806
649.741820,0.333883
650.055680,0.339824
650.369500,0.338004
650.683280,0.334628
650.997020,0.334158
651.310720,0.329389
651.624380,0.328846
651.938000,0.327424
652.251580,0.329808
652.565120,0.325880
652.878620,0.327421
653.192080,0.327809
653.505500,0.326508
653.818880,0.327268
654.132220,0.322985
654.445520,0.328985
654.758780,0.326062
655.072000,0.325215
655.385180,0.316690
655.698320,0.318662
656.011420,0.315277
656.324480,0.318566
656.637500,0.317207
656.950480,0.317381
657.263420,0.316287
657.576320,0.317521
657.889180,0.318785
658.202000,0.320048
658.514780,0.317654
658.827520,0.313926
659.140220,0.317351
659.452880,0.318937
659.765500,0.313365
660.078080,0.312669
660.390620,0.307669
660.703120,0.312252
661.015580,0.308282
661.328000,0.318010
661.640380,0.312519
661.952720,0.315167
662.265020,0.309704
662.577280,0.309796
662.889500,0.306528
663.201680,0.313657
663.513820,0.311997
663.825920,0.311559
664.137980,0.314156
664.450000,0.308824
664.761980,0.309329
665.073920,0.308991
665.385820,0.317408
665.697680,0.309091
666.009500,0.313934
666.321280,0.319085
666.633020,0.312168
666.944720,0.319852
667.256380,0.315276
667.568000,0.320992
667.879580,0.314966
668.191120,0.316277
668.502620,0.309483
668.814080,0.318246
669.125500,0.311666
669.436880,0.320885
669.748220,0.314642
670.059520,0.317227
670.370780,0.315240
670.682000,0.320000
670.993180,0.320296
671.304320,0.318214
671.615420,0.318537
671.926480,0.323634
672.237500,0.315827
672.548480,0.325053
672.859420,0.324518
673.170320,0.332971
673.481180,0.333454
673.792000,0.330328
674.102780,0.329264
674.413520,0.329566
674.724220,0.326316
675.034880,0.337000
675.345500,0.332239
675.656080,0.339020
675.966620,0.328483
676.277120,0.338338
676.587580,0.337629
676.898000,0.337066
677.208380,0.336044
677.518720,0.331510
677.829020,0.340724
678.139280,0.343588
678.449500,0.347939
678.759680,0.348070
679.069820,0.346840
679.379920,0.352697
679.689980,0.345711
680.000000,0.345421
680.309980,0.351893
680.619920,0.354033
680.929820,0.349757
681.239680,0.351920
681.549500,0.353333
681.859280,0.352875
682.169020,0.358075
682.478720,0.361257
682.788380,0.362865
683.098000,0.368362
683.407580,0.365103
683.717120,0.370495
684.026620,0.364834
684.336080,0.367563
684.645500,0.364010
684.954880,0.371742
685.264220,0.375613
685.573520,0.383708
685.882780,0.379363
686.192000,0.374718
686.501180,0.382520
686.810320,0.387779
687.119420,0.383124
687.428480,0.382833
687.737500,0.389870
688.046480,0.387653
688.355420,0.388533
688.664320,0.394797
688.973180,0.394334
689.282000,0.398148
689.590780,0.395706
689.899520,0.394987
690.208220,0.410168
690.516880,0.405116
690.825500,0.404906
691.134080,0.401291
691.442620,0.410061
691.751120,0.414107
692.059580,0.410394
692.368000,0.410072
692.676380,0.417557
692.984720,0.411450
693.293020,0.418313
693.601280,0.421976
693.909500,0.425274
694.217680,0.423458
694.525820,0.432597
694.833920,0.426936
695.141980,0.428461
695.450000,0.433588
695.757980,0.437739
696.065920,0.444272
696.373820,0.437259
696.681680,0.440353
696.989500,0.455809
697.297280,0.449242
697.605020,0.453571
697.912720,0.447733
698.220380,0.455726
698.528000,0.460047
698.835580,0.456736
699.143120,0.454014
699.450620,0.463405
699.758080,0.459608
700.065500,0.467279
700.372880,0.465200
700.680220,0.464699
700.987520,0.468651
701.294780,0.477697
701.602000,0.479794
701.909180,0.484897
702.216320,0.481815
702.523420,0.486977
702.830480,0.498218
703.137500,0.483632
703.444480,0.484813
703.751420,0.490730
704.058320,0.494262
704.365180,0.498817
704.672000,0.497426
704.978780,0.499415
705.285520,0.501956
705.592220,0.498039
705.898880,0.509850
706.205500,0.514476
706.512080,0.504739
706.818620,0.520898
707.125120,0.516538
707.431580,0.517780
707.738000,0.525781
708.044380,0.520262
708.350720,0.527703
708.657020,0.539273
708.963280,0.532609
709.269500,0.534638
709.575680,0.535560
709.881820,0.536950
710.187920,0.533852
710.493980,0.537626
710.800000,0.531274
711.105980,0.536145
711.411920,0.546709
711.717820,0.545419
712.023680,0.553440
712.329500,0.555205
712.635280,0.556977
712.941020,0.562428
713.246720,0.561660
713.552380,0.562794
713.858000,0.556563
714.163580,0.562747
714.469120,0.570926
714.774620,0.564548
715.080080,0.572831
715.385500,0.584333
715.690880,0.565286
715.996220,0.577258
716.301520,0.581818
716.606780,0.580975
716.912000,0.587237
717.217180,0.596169
717.522320,0.589662
717.827420,0.593572
718.132480,0.586110
718.437500,0.590705
718.742480,0.600000
719.047420,0.597492
719.352320,0.605645
719.657180,0.601390
719.962000,0.604218
720.266780,0.605318
720.571520,0.608119
720.876220,0.610475
721.180880,0.602843
721.485500,0.615545
721.790080,0.613163
722.094620,0.622642
722.399120,0.621715
722.703580,0.612945
723.008000,0.621820
723.312380,0.622901
723.616720,0.619210
723.921020,0.623647
724.225280,0.627400
724.529500,0.631349
724.833680,0.639680
725.137820,0.627753
725.441920,0.633081
725.745980,0.627740
726.050000,0.641407
726.353980,0.646237
726.657920,0.637877
726.961820,0.646575
727.265680,0.653259
727.569500,0.644424
727.873280,0.648499
728.177020,0.647167
728.480720,0.652315
728.784380,0.658055
729.088000,0.650495
729.391580,0.665088
729.695120,0.663628
729.998620,0.663480
730.302080,0.659298
730.605500,0.667637
730.908880,0.672220
731.212220,0.678746
731.515520,0.667967
731.818780,0.660194
732.122000,0.677657
732.425180,0.674717
732.728320,0.669311
733.031420,0.673684
733.334480,0.676531
733.637500,0.679435
733.940480,0.682702
734.243420,0.679409
734.546320,0.691390
734.849180,0.678202
735.152000,0.683091
735.454780,0.683884
735.757520,0.689673
736.060220,0.687204
736.362880,0.690126
736.665500,0.689817
736.968080,0.689414
737.270620,0.691345
737.573120,0.700328
737.875580,0.717427
738.178000,0.701143
738.480380,0.690270
738.782720,0.700109
739.085020,0.703744
739.387280,0.699002
739.689500,0.712344
739.991680,0.706906
740.293820,0.711443
740.595920,0.713968
740.897980,0.704687
741.200000,0.704992
741.501980,0.717479
741.803920,0.707207
742.105820,0.707840
742.407680,0.716366
742.709500,0.706250
743.011280,0.712192
743.313020,0.711884
743.614720,0.713291
743.916380,0.717442
744.218000,0.736277
744.519580,0.726449
744.821120,0.725749
745.122620,0.724985
745.424080,0.716346
745.725500,0.730235
746.026880,0.740764
746.328220,0.724414
746.629520,0.712222
746.930780,0.723652
747.232000,0.725322
747.533180,0.728493
747.834320,0.741935
748.135420,0.733375
748.436480,0.726762
748.737500,0.722668
749.038480,0.715333
749.339420,0.732421
749.640320,0.744186
749.941180,0.722049
750.242000,0.733040
750.542780,0.726427
750.843520,0.741192
751.144220,0.717949
751.444880,0.740013
751.745500,0.738961
752.046080,0.745350
752.346620,0.722294
752.647120,0.739386
752.947580,0.741915
753.248000,0.741457
753.548380,0.732596
753.848720,0.730844
754.149020,0.721470
754.449280,0.745240
754.749500,0.737226
755.049680,0.754000
755.349820,0.741161
755.649920,0.742234
755.949980,0.728600
756.250000,0.733070
756.549980,0.741254
756.849920,0.753229
757.149820,0.726547
757.449680,0.749175
757.749500,0.751193
758.049280,0.752901
758.349020,0.745480
758.648720,0.746722
758.948380,0.750515
759.248000,0.756065
759.547580,0.751177
759.847120,0.729841
760.146620,0.737483
760.446080,0.746640
760.745500,0.733566
761.044880,0.747869
761.344220,0.736279
761.643520,0.747175
761.942780,0.732680
762.242000,0.749646
762.541180,0.751408
762.840320,0.738062
763.139420,0.738397
763.438480,0.728640
763.737500,0.747071
764.036480,0.728861
764.335420,0.738885
764.634320,0.736660
764.933180,0.732877
765.232000,0.741846
765.530780,0.761404
765.829520,0.744056
766.128220,0.745999
766.426880,0.744847
766.725500,0.747772
767.024080,0.730453
767.322620,0.745505
767.621120,0.737127
767.919580,0.748805
768.218000,0.740082
768.516380,0.736308
768.814720,0.732510
769.113020,0.749139
769.411280,0.750000
769.709500,0.745602
770.007680,0.736196
770.305820,0.732252
770.603920,0.714960
770.901980,0.743852
771.200000,0.727582
771.497980,0.723190
771.795920,0.731104
772.093820,0.721257
772.391680,0.733685
772.689500,0.729730
772.987280,0.740741
773.285020,0.736842
773.582720,0.731757
773.880380,0.739190
774.178000,0.725290
774.475580,0.726725
774.773120,0.726908
775.070620,0.726166
775.368080,0.714095
775.665500,0.721289
775.962880,0.719813
776.260220,0.723419
776.557520,0.739827
776.854780,0.718729
777.152000,0.711538
777.449180,0.725556
777.746320,0.715054
778.043420,0.721692
778.340480,0.723275
778.637500,0.721433
778.934480,0.709482
779.231420,0.713704
779.528320,0.716099
779.825180,0.700922
780.122000,0.705179
780.418780,0.729138
780.715520,0.720322
781.012220,0.722603
781.308880,0.699121
781.605500,0.715753
781.902080,0.725530
782.198620,0.698565
782.495120,0.707819
782.791580,0.703576
783.088000,0.717736
783.384380,0.696699
783.680720,0.705198
783.977020,0.690296
784.273280,0.707692
784.569500,0.715584
784.865680,0.705146
785.161820,0.690278
785.457920,0.704089
785.753980,0.683182
786.050000,0.687155
786.345980,0.687500
786.641920,0.691187
786.937820,0.700142
787.233680,0.681280
787.529500,0.680999
787.825280,0.684844
788.121020,0.689802
788.416720,0.682428
788.712380,0.685472
789.008000,0.676346
789.303580,0.673498
789.599120,0.693091
789.894620,0.682310
790.190080,0.673677
790.485500,0.685385
790.780880,0.682437
791.076220,0.676768
791.371520,0.665940
791.666780,0.678545
791.962000,0.678178
792.257180,0.666179
792.552320,0.667875
792.847420,0.668122
793.142480,0.663004
793.437500,0.654124
793.732480,0.658376
794.027420,0.649852
794.322320,0.660701
794.617180,0.648588
794.912000,0.666419
795.206780,0.637584
795.501520,0.659316
795.796220,0.642963
796.090880,0.654107
796.385500,0.641679
796.680080,0.637996
796.974620,0.638473
797.269120,0.649508
797.563580,0.634351
797.858000,0.635535
798.152380,0.652746
798.446720,0.646154
798.741020,0.632512
799.035280,0.632764
799.329500,0.631255
799.623680,0.643411
