399.985280,0.175676
400.329500,0.202703
400.673680,0.177215
401.017820,0.176471
401.361920,0.121212
401.705980,0.195122
402.050000,0.233766
402.393980,0.294118
402.737920,0.235955
403.081820,0.237113
403.425680,0.244186
403.769500,0.187500
404.113280,0.241379
404.457020,0.258427
404.800720,0.206522
405.144380,0.323232
405.488000,0.290323
405.831580,0.237113
406.175120,0.276596
406.518620,0.220000
406.862080,0.319588
407.205500,0.260417
407.548880,0.265306
407.892220,0.264706
408.235520,0.255319
408.578780,0.295238
408.922000,0.240385
409.265180,0.282828
409.608320,0.292929
409.951420,0.350515
410.294480,0.323529
410.637500,0.293478
410.980480,0.313725
411.323420,0.367347
411.666320,0.275229
412.009180,0.272727
412.352000,0.326733
412.694780,0.247706
413.037520,0.284404
413.380220,0.315315
413.722880,0.330357
414.065500,0.360360
414.408080,0.309735
414.750620,0.345133
415.093120,0.289256
415.435580,0.294118
415.778000,0.356061
416.120380,0.327731
416.462720,0.301587
416.805020,0.360902
417.147280,0.320896
417.489500,0.300000
417.831680,0.308219
418.173820,0.368794
418.515920,0.391608
418.857980,0.348101
419.200000,0.352564
419.541980,0.337278
419.883920,0.320225
420.225820,0.381503
420.567680,0.351955
420.909500,0.349727
421.251280,0.354167
421.593020,0.346939
421.934720,0.338384
422.276380,0.348718
422.618000,0.357843
422.959580,0.343137
423.301120,0.365297
423.642620,0.326087
423.984080,0.358140
424.325500,0.354260
424.666880,0.336207
425.008220,0.331933
425.349520,0.338983
425.690780,0.330769
426.032000,0.360784
426.373180,0.360996
426.714320,0.363281
427.055420,0.335907
427.396480,0.363296
427.737500,0.343874
428.078480,0.339921
428.419420,0.345382
428.760320,0.333333
429.101180,0.385827
429.442000,0.340996
429.782780,0.369231
430.123520,0.388235
430.464220,0.335793
430.804880,0.352490
431.145500,0.341818
431.486080,0.367041
431.826620,0.383721
432.167120,0.338235
432.507580,0.347826
432.848000,0.348921
433.188380,0.350181
433.528720,0.335849
433.869020,0.325000
434.209280,0.343860
434.549500,0.351916
434.889680,0.336700
435.229820,0.331058
435.569920,0.318339
435.909980,0.326861
436.250000,0.342373
436.589980,0.318885
436.929920,0.317460
437.269820,0.300940
437.609680,0.337278
437.949500,0.304217
438.289280,0.314448
438.629020,0.340116
438.968720,0.319767
439.308380,0.308943
439.648000,0.320548
439.987580,0.320106
440.327120,0.309333
440.666620,0.324675
441.006080,0.322251
441.345500,0.326781
441.684880,0.311005
442.024220,0.317618
442.363520,0.292857
442.702780,0.302273
443.042000,0.303965
443.381180,0.306034
443.720320,0.298056
444.059420,0.287815
444.398480,0.297071
444.737500,0.293033
445.076480,0.273810
445.415420,0.275449
445.754320,0.297297
446.093180,0.284404
446.432000,0.281955
446.770780,0.280835
447.109520,0.286765
447.448220,0.277281
447.786880,0.277281
448.125500,0.267241
448.464080,0.269643
448.802620,0.269504
449.141120,0.273356
449.479580,0.270979
449.818000,0.270224
450.156380,0.274247
450.494720,0.259504
450.833020,0.263986
451.171280,0.260274
451.509500,0.263066
451.847680,0.258010
452.185820,0.263339
452.523920,0.261168
452.861980,0.258010
453.200000,0.249169
453.537980,0.250420
453.875920,0.258824
454.213820,0.246575
454.551680,0.238411
454.889500,0.236088
455.227280,0.231317
455.565020,0.249581
455.902720,0.249584
456.240380,0.219634
456.578000,0.235192
456.915580,0.243523
457.253120,0.241776
457.590620,0.238095
457.928080,0.240741
458.265500,0.239865
458.602880,0.227273
458.940220,0.223350
459.277520,0.212800
459.614780,0.230769
459.952000,0.218944
460.289180,0.240506
460.626320,0.209449
460.963420,0.231018
461.300480,0.217125
461.637500,0.226502
461.974480,0.217125
462.311420,0.228018
462.648320,0.216691
462.985180,0.216643
463.322000,0.205357
463.658780,0.208564
463.995520,0.203576
464.332220,0.217452
464.668880,0.216398
465.005500,0.215818
465.342080,0.213828
465.678620,0.196802
466.015120,0.206986
466.351580,0.208597
466.688000,0.211937
467.024380,0.202916
467.360720,0.204545
467.697020,0.209567
468.033280,0.215556
468.369500,0.203091
468.705680,0.200676
469.041820,0.206250
469.377920,0.207158
469.713980,0.197734
470.050000,0.210628
470.385980,0.201566
470.721920,0.198825
471.057820,0.203704
471.393680,0.195510
471.729500,0.192771
472.065280,0.197674
472.401020,0.195035
472.736720,0.211169
473.072380,0.198384
473.408000,0.197563
473.743580,0.204152
474.079120,0.200689
474.414620,0.206955
474.750080,0.197722
475.085500,0.201480
475.420880,0.199001
475.756220,0.203598
476.091520,0.203751
476.426780,0.209547
476.762000,0.201931
477.097180,0.200800
477.432320,0.208401
477.767420,0.203431
478.102480,0.206299
478.437500,0.205255
478.772480,0.200158
479.107420,0.205045
479.442320,0.203837
479.777180,0.213206
480.112000,0.202619
480.446780,0.205768
480.781520,0.205314
481.116220,0.208569
481.450880,0.209212
481.785500,0.219937
482.120080,0.214734
482.454620,0.206682
482.789120,0.214172
483.123580,0.220405
483.458000,0.213608
483.792380,0.218051
484.126720,0.209266
484.461020,0.213115
484.795280,0.214341
485.129500,0.221356
485.463680,0.213178
485.797820,0.220062
486.131920,0.221882
486.465980,0.227027
486.800000,0.228244
487.133980,0.224320
487.467920,0.228003
487.801820,0.231121
488.135680,0.232752
488.469500,0.222390
488.803280,0.231798
489.137020,0.223443
489.470720,0.227745
489.804380,0.235338
490.138000,0.233680
490.471580,0.241710
490.805120,0.241601
491.138620,0.238095
491.472080,0.243816
491.805500,0.244073
492.138880,0.235580
492.472220,0.240138
492.805520,0.252095
493.138780,0.252929
493.472000,0.250836
493.805180,0.252387
494.138320,0.257505
494.471420,0.246745
494.804480,0.252911
495.137500,0.252888
495.470480,0.258764
495.803420,0.261335
496.136320,0.261905
496.469180,0.261510
496.802000,0.258557
497.134780,0.269254
497.467520,0.267890
497.800220,0.271226
498.132880,0.267490
498.465500,0.269409
498.798080,0.274543
499.130620,0.280180
499.463120,0.279618
499.795580,0.279428
500.128000,0.282834
500.460380,0.287406
500.792720,0.285260
501.125020,0.283762
501.457280,0.280940
501.789500,0.284607
502.121680,0.294971
502.453820,0.299337
502.785920,0.295148
503.117980,0.297350
503.450000,0.302863
503.781980,0.298455
504.113920,0.301091
504.445820,0.297521
504.777680,0.297412
505.109500,0.308173
505.441280,0.319790
505.773020,0.305777
506.104720,0.315591
506.436380,0.320871
506.768000,0.315248
507.099580,0.312128
507.431120,0.320375
507.762620,0.317669
508.094080,0.319508
508.425500,0.331466
508.756880,0.329218
509.088220,0.326127
509.419520,0.330074
509.750780,0.332240
510.082000,0.331623
510.413180,0.330723
510.744320,0.337782
511.075420,0.348304
511.406480,0.343677
511.737500,0.341667
512.068480,0.352914
512.399420,0.347887
512.730320,0.340416
513.061180,0.347764
513.392000,0.351633
513.722780,0.355908
514.053520,0.356013
514.384220,0.353949
514.714880,0.359023
515.045500,0.354406
515.376080,0.357869
515.706620,0.363858
516.037120,0.368137
516.367580,0.365205
516.698000,0.366667
517.028380,0.371897
517.358720,0.367407
517.689020,0.382789
518.019280,0.372805
518.349500,0.379625
518.679680,0.377587
519.009820,0.379049
519.339920,0.383267
519.669980,0.380713
520.000000,0.382068
520.329980,0.389321
520.659920,0.389571
520.989820,0.396285
521.319680,0.395576
521.649500,0.390231
521.979280,0.398747
522.309020,0.398859
522.638720,0.395289
522.968380,0.406412
523.298000,0.401879
523.627580,0.398345
523.957120,0.407792
524.286620,0.406983
524.616080,0.414685
524.945500,0.407752
525.274880,0.416111
525.604220,0.408903
525.933520,0.416667
526.262780,0.417131
526.592000,0.420091
526.921180,0.417471
527.250320,0.419077
527.579420,0.425467
527.908480,0.421467
528.237500,0.429494
528.566480,0.428144
528.895420,0.430754
529.224320,0.425953
529.553180,0.432771
529.882000,0.436496
530.210780,0.434363
530.539520,0.435762
530.868220,0.440402
531.196880,0.432394
531.525500,0.447458
531.854080,0.439024
532.182620,0.440448
532.511120,0.443155
532.839580,0.446007
533.168000,0.446673
533.496380,0.448858
533.824720,0.449080
534.153020,0.462327
534.481280,0.446696
534.809500,0.464380
535.137680,0.459635
535.465820,0.454038
535.793920,0.462775
536.121980,0.459505
536.450000,0.458351
536.777980,0.459992
537.105920,0.465753
537.433820,0.458265
537.761680,0.466122
538.089500,0.466613
538.417280,0.470752
538.745020,0.473059
539.072720,0.469738
539.400380,0.469308
539.728000,0.471893
540.055580,0.475281
540.383120,0.469099
540.710620,0.471726
541.038080,0.470306
541.365500,0.476103
541.692880,0.473837
542.020220,0.472472
542.347520,0.484566
542.674780,0.478123
543.002000,0.479706
543.329180,0.484742
543.656320,0.487693
543.983420,0.481709
544.310480,0.474686
544.637500,0.485500
544.964480,0.479475
545.291420,0.478564
545.618320,0.489708
545.945180,0.484838
546.272000,0.481324
546.598780,0.485742
546.925520,0.484339
547.252220,0.489931
547.578880,0.487781
547.905500,0.490196
548.232080,0.487005
548.558620,0.483567
548.885120,0.488060
549.211580,0.486017
549.538000,0.495460
549.864380,0.494534
550.190720,0.485631
550.517020,0.493807
550.843280,0.490879
551.169500,0.487595
551.495680,0.495401
551.821820,0.495754
552.147920,0.490241
552.473980,0.494238
552.800000,0.489536
553.125980,0.493451
553.451920,0.494028
553.777820,0.496003
554.103680,0.496124
554.429500,0.487446
554.755280,0.492323
555.081020,0.485628
555.406720,0.495090
555.732380,0.492037
556.058000,0.489817
556.383580,0.483738
556.709120,0.489662
557.034620,0.486393
557.360080,0.496718
557.685500,0.487552
558.010880,0.488735
558.336220,0.493497
558.661520,0.488479
558.986780,0.490787
559.312000,0.492165
559.637180,0.486894
559.962320,0.488074
560.287420,0.486601
560.612480,0.485827
560.937500,0.491557
561.262480,0.490836
561.587420,0.483497
561.912320,0.484893
562.237180,0.485936
562.562000,0.488215
562.886780,0.496841
563.211520,0.480253
563.536220,0.476438
563.860880,0.490004
564.185500,0.482552
564.510080,0.484199
564.834620,0.482694
565.159120,0.477068
565.483580,0.474344
565.808000,0.480515
566.132380,0.479672
566.456720,0.487906
566.781020,0.476369
567.105280,0.474858
567.429500,0.477618
567.753680,0.481780
568.077820,0.474681
568.401920,0.482429
568.725980,0.472865
569.050000,0.471863
569.373980,0.468215
569.697920,0.482746
570.021820,0.486142
570.345680,0.466896
570.669500,0.469287
570.993280,0.473606
571.317020,0.465108
571.640720,0.474991
571.964380,0.462509
572.288000,0.471068
572.611580,0.465743
572.935120,0.469136
573.258620,0.463351
573.582080,0.465723
573.905500,0.463887
574.228880,0.467706
574.552220,0.466471
574.875520,0.461281
575.198780,0.461872
575.522000,0.459677
575.845180,0.456662
576.168320,0.458498
576.491420,0.461119
576.814480,0.465099
577.137500,0.454906
577.460480,0.456687
577.783420,0.453019
578.106320,0.452991
578.429180,0.452103
578.752000,0.441473
579.074780,0.451787
579.397520,0.456423
579.720220,0.456885
580.042880,0.452263
580.365500,0.448048
580.688080,0.447422
581.010620,0.452244
581.333120,0.441884
581.655580,0.449550
581.978000,0.441636
582.300380,0.443038
582.622720,0.442320
582.945020,0.442133
583.267280,0.442852
583.589500,0.440770
583.911680,0.439187
584.233820,0.429336
584.555920,0.427356
584.877980,0.433731
585.200000,0.429711
585.521980,0.430955
585.843920,0.434106
586.165820,0.432358
586.487680,0.428228
586.809500,0.431143
587.131280,0.428867
587.453020,0.432440
587.774720,0.428740
588.096380,0.423571
588.418000,0.427275
588.739580,0.426847
589.061120,0.423232
589.382620,0.421203
589.704080,0.422160
590.025500,0.421233
590.346880,0.418494
590.668220,0.415850
590.989520,0.415696
591.310780,0.417840
591.632000,0.411749
591.953180,0.410462
592.274320,0.407316
592.595420,0.408675
592.916480,0.402608
593.237500,0.403126
593.558480,0.408932
593.879420,0.402212
594.200320,0.403697
594.521180,0.406109
594.842000,0.407308
595.162780,0.407051
595.483520,0.395639
595.804220,0.392052
596.124880,0.400480
596.445500,0.391669
596.766080,0.396343
597.086620,0.399947
597.407120,0.388626
597.727580,0.396977
598.048000,0.393547
598.368380,0.394529
598.688720,0.387942
599.009020,0.388800
599.329280,0.391166
599.649500,0.384575
599.969680,0.385951
600.289820,0.383814
600.609920,0.379909
600.929980,0.381881
601.250000,0.376486
601.569980,0.380502
601.889920,0.376637
602.209820,0.377435
602.529680,0.379291
602.849500,0.371522
603.169280,0.374208
603.489020,0.377249
603.808720,0.371092
604.128380,0.377208
604.448000,0.371271
604.767580,0.377374
605.087120,0.363989
605.406620,0.364959
605.726080,0.371828
606.045500,0.356088
606.364880,0.364049
606.684220,0.361508
607.003520,0.361239
607.322780,0.366117
607.642000,0.359276
607.961180,0.365424
608.280320,0.357599
608.599420,0.352549
608.918480,0.356305
609.237500,0.355047
609.556480,0.359870
609.875420,0.346131
610.194320,0.350753
610.513180,0.347440
610.832000,0.350506
611.150780,0.351457
611.469520,0.351131
611.788220,0.353386
612.106880,0.346502
612.425500,0.347138
612.744080,0.350877
613.062620,0.350459
613.381120,0.340951
613.699580,0.344267
614.018000,0.344287
614.336380,0.341764
614.654720,0.345736
614.973020,0.338784
615.291280,0.341804
615.609500,0.343265
615.927680,0.340853
616.245820,0.340445
616.563920,0.339758
616.881980,0.338634
617.200000,0.338414
617.517980,0.330429
617.835920,0.327431
618.153820,0.332919
618.471680,0.332093
618.789500,0.334172
619.107280,0.338028
619.425020,0.331113
619.742720,0.334589
620.060380,0.325917
620.378000,0.332284
620.695580,0.332056
621.013120,0.326299
621.330620,0.330405
621.648080,0.323975
621.965500,0.330301
622.282880,0.329445
622.600220,0.331333
622.917520,0.327662
623.234780,0.328512
623.552000,0.324952
623.869180,0.325559
624.186320,0.325056
624.503420,0.327273
624.820480,0.328621
625.137500,0.323334
625.454480,0.322288
625.771420,0.327869
626.088320,0.321564
626.405180,0.328251
626.722000,0.322459
627.038780,0.322368
627.355520,0.322500
627.672220,0.329393
627.988880,0.325350
628.305500,0.324089
628.622080,0.331784
628.938620,0.322324
629.255120,0.322340
629.571580,0.327613
629.888000,0.328628
630.204380,0.326787
630.520720,0.326630
630.837020,0.323774
631.153280,0.320743
631.469500,0.326258
631.785680,0.326401
632.101820,0.325694
632.417920,0.321610
632.733980,0.319328
633.050000,0.327774
633.365980,0.327801
633.681920,0.324284
633.997820,0.325463
634.313680,0.325863
634.629500,0.323503
634.945280,0.327273
635.261020,0.328441
635.576720,0.327657
635.892380,0.325298
636.208000,0.332365
636.523580,0.330897
636.839120,0.330921
637.154620,0.326377
637.470080,0.325968
637.785500,0.330891
638.100880,0.329279
638.416220,0.331032
638.731520,0.331232
639.046780,0.332362
639.362000,0.329702
639.677180,0.331239
639.992320,0.329856
640.307420,0.334926
640.622480,0.334640
640.937500,0.334535
641.252480,0.337336
641.567420,0.334470
641.882320,0.333797
642.197180,0.340258
642.512000,0.337531
642.826780,0.338974
643.141520,0.335093
643.456220,0.338683
643.770880,0.341349
644.085500,0.339296
644.400080,0.339045
644.714620,0.340022
645.029120,0.342134
645.343580,0.345036
645.658000,0.345268
645.972380,0.345574
646.286720,0.343418
646.601020,0.347634
646.915280,0.346860
647.229500,0.346154
647.543680,0.344380
647.857820,0.353977
648.171920,0.352143
648.485980,0.343930
648.800000,0.348581
649.113980,0.353381
649.427920,0.358669
649.741820,0.350371
650.055680,0.352715
650.369500,0.359585
650.683280,0.355716
650.997020,0.357261
651.310720,0.351679
651.624380,0.351923
651.938000,0.355679
652.251580,0.358196
652.565120,0.357462
652.878620,0.363739
653.192080,0.359551
653.505500,0.364095
653.818880,0.367359
654.132220,0.362575
654.445520,0.364719
654.758780,0.361190
655.072000,0.367335
655.385180,0.360342
655.698320,0.368677
656.011420,0.369447
656.324480,0.369572
656.637500,0.371958
656.950480,0.374633
657.263420,0.371268
657.576320,0.372369
657.889180,0.377175
658.202000,0.377415
658.514780,0.379577
658.827520,0.381152
659.140220,0.375187
659.452880,0.383872
659.765500,0.381096
660.078080,0.385495
660.390620,0.385885
660.703120,0.391690
661.015580,0.389571
661.328000,0.392947
661.640380,0.393290
661.952720,0.388353
662.265020,0.393510
662.577280,0.383588
662.889500,0.390728
663.201680,0.399489
663.513820,0.396269
663.825920,0.400256
664.137980,0.402715
664.450000,0.392583
664.761980,0.397381
665.073920,0.399870
665.385820,0.401832
665.697680,0.405950
666.009500,0.404390
666.321280,0.412856
666.633020,0.410239
666.944720,0.411864
667.256380,0.411844
667.568000,0.403193
667.879580,0.413605
668.191120,0.421360
668.502620,0.414242
668.814080,0.425263
669.125500,0.416011
669.436880,0.419433
669.748220,0.422291
670.059520,0.431723
670.370780,0.430411
670.682000,0.434690
670.993180,0.435870
671.304320,0.428270
671.615420,0.431818
671.926480,0.436480
672.237500,0.428367
672.548480,0.433286
672.859420,0.434954
673.170320,0.443961
673.481180,0.442795
673.792000,0.443924
674.102780,0.444524
674.413520,0.447685
674.724220,0.439564
675.034880,0.454345
675.345500,0.448942
675.656080,0.451543
675.966620,0.452164
676.277120,0.455877
676.587580,0.453608
676.898000,0.460620
677.208380,0.452495
677.518720,0.456236
677.829020,0.463415
678.139280,0.472202
678.449500,0.468994
678.759680,0.466842
679.069820,0.472862
679.379920,0.485854
679.689980,0.478277
680.000000,0.466168
680.309980,0.472160
680.619920,0.477471
680.929820,0.480030
681.239680,0.483752
681.549500,0.482963
681.859280,0.482823
682.169020,0.479672
682.478720,0.493642
682.788380,0.490218
683.098000,0.497756
683.407580,0.490432
683.717120,0.488363
684.026620,0.493223
684.336080,0.501326
684.645500,0.498316
684.954880,0.497922
685.264220,0.500189
685.573520,0.509707
685.882780,0.510549
686.192000,0.504138
686.501180,0.510405
686.810320,0.515373
687.119420,0.519194
687.428480,0.513103
687.737500,0.513047
688.046480,0.510353
688.355420,0.520558
688.664320,0.521041
688.973180,0.513400
689.282000,0.527778
689.590780,0.527991
689.899520,0.520319
690.208220,0.535168
690.516880,0.537228
690.825500,0.533962
691.134080,0.534548
691.442620,0.533155
691.751120,0.534699
692.059580,0.535346
692.368000,0.539568
692.676380,0.548092
692.984720,0.544275
693.293020,0.545213
693.601280,0.556658
693.909500,0.553159
694.217680,0.552551
694.525820,0.548743
694.833920,0.556658
695.141980,0.558427
695.450000,0.553817
695.757980,0.564553
696.065920,0.558447
696.373820,0.570439
696.681680,0.566168
696.989500,0.556542
697.297280,0.557760
697.605020,0.576984
697.912720,0.571099
698.220380,0.572609
698.528000,0.581883
698.835580,0.580008
699.143120,0.579111
699.450620,0.579952
699.758080,0.574902
700.065500,0.586193
700.372880,0.590800
700.680220,0.591145
700.987520,0.585714
701.294780,0.593674
701.602000,0.593502
701.909180,0.601351
702.216320,0.588580
702.523420,0.591949
702.830480,0.609505
703.137500,0.597428
703.444480,0.597239
703.751420,0.613018
704.058320,0.603482
704.365180,0.605678
704.672000,0.613069
704.978780,0.611393
705.285520,0.611894
705.592220,0.601569
705.898880,0.617021
706.205500,0.626369
706.512080,0.621643
706.818620,0.624226
707.125120,0.625385
707.431580,0.622509
707.738000,0.629687
708.044380,0.626785
708.350720,0.623615
708.657020,0.643220
708.963280,0.635093
709.269500,0.636791
709.575680,0.640079
709.881820,0.638365
710.187920,0.644747
710.493980,0.642358
710.800000,0.641495
711.105980,0.633283
711.411920,0.649586
711.717820,0.651852
712.023680,0.650214
712.329500,0.663249
712.635280,0.659302
712.941020,0.651720
713.246720,0.666008
713.552380,0.651491
713.858000,0.651951
714.163580,0.658642
714.469120,0.652208
714.774620,0.661271
715.080080,0.680016
715.385500,0.674261
715.690880,0.666667
715.996220,0.676704
716.301520,0.681423
716.606780,0.668632
716.912000,0.683764
717.217180,0.674781
717.522320,0.671173
717.827420,0.686330
718.132480,0.674829
718.437500,0.688545
718.742480,0.672581
719.047420,0.679612
719.352320,0.684932
719.657180,0.694603
719.962000,0.685277
720.266780,0.689240
720.571520,0.691384
720.876220,0.688625
721.180880,0.691472
721.485500,0.685750
721.790080,0.683227
722.094620,0.706261
722.399120,0.705299
722.703580,0.696099
723.008000,0.710220
723.312380,0.709427
723.616720,0.690183
723.921020,0.702469
724.225280,0.697644
724.529500,0.704466
724.833680,0.717972
725.137820,0.703524
725.441920,0.713330
725.745980,0.719463
726.050000,0.713126
726.353980,0.710680
726.657920,0.711651
726.961820,0.720091
727.265680,0.723070
727.569500,0.715722
727.873280,0.715473
728.177020,0.731921
728.480720,0.725926
728.784380,0.725223
729.088000,0.734809
729.391580,0.725249
729.695120,0.735125
729.998620,0.726099
730.302080,0.727054
730.605500,0.725861
730.908880,0.723665
731.212220,0.733105
731.515520,0.734276
731.818780,0.744660
732.122000,0.737205
732.425180,0.727945
732.728320,0.738721
733.031420,0.737845
733.334480,0.744898
733.637500,0.739415
733.940480,0.750256
734.243420,0.750255
734.546320,0.758299
734.849180,0.740702
735.152000,0.743776
735.454780,0.746384
735.757520,0.753425
736.060220,0.746182
736.362880,0.743172
736.665500,0.737337
736.968080,0.759269
737.270620,0.757757
737.573120,0.760371
737.875580,0.768554
738.178000,0.770822
738.480380,0.765946
738.782720,0.756270
739.085020,0.763216
739.387280,0.758869
739.689500,0.770102
739.991680,0.766423
740.293820,0.763958
740.595920,0.762382
740.897980,0.763411
741.200000,0.761638
741.501980,0.761032
741.803920,0.763514
742.105820,0.759165
742.407680,0.774024
742.709500,0.765341
743.011280,0.774326
743.313020,0.770435
743.614720,0.758561
743.916380,0.775000
744.218000,0.767303
744.519580,0.783816
744.821120,0.794012
745.122620,0.783104
745.424080,0.774038
745.725500,0.782136
746.026880,0.792488
746.328220,0.781134
746.629520,0.760987
746.930780,0.770221
747.232000,0.787860
747.533180,0.790116
747.834320,0.795496
748.135420,0.774394
748.436480,0.785402
748.737500,0.778876
749.038480,0.773977
749.339420,0.787803
749.640320,0.785669
749.941180,0.778888
750.242000,0.793970
750.542780,0.785980
750.843520,0.797566
751.144220,0.785256
751.444880,0.790108
751.745500,0.787013
752.046080,0.807569
752.346620,0.794459
752.647120,0.787067
752.947580,0.785252
753.248000,0.794326
753.548380,0.801561
753.848720,0.804250
754.149020,0.783366
754.449280,0.794485
754.749500,0.796948
755.049680,0.796667
755.349820,0.801201
755.649920,0.797753
755.949980,0.810219
756.250000,0.805391
756.549980,0.794059
756.849920,0.807614
757.149820,0.796407
757.449680,0.797360
757.749500,0.804363
758.049280,0.809556
758.349020,0.789291
758.648720,0.814355
758.948380,0.810997
759.248000,0.816712
759.547580,0.804976
759.847120,0.804273
760.146620,0.802436
760.446080,0.809140
760.745500,0.795105
761.044880,0.821733
761.344220,0.798289
761.643520,0.809322
761.942780,0.801959
762.242000,0.805516
762.541180,0.809859
762.840320,0.810393
763.139420,0.810127
763.438480,0.796992
763.737500,0.807030
764.036480,0.812020
764.335420,0.803105
764.634320,0.813583
764.933180,0.810959
765.232000,0.824427
765.530780,0.807018
765.829520,0.819580
766.128220,0.819068
766.426880,0.819474
766.725500,0.812200
767.024080,0.806584
767.322620,0.812586
767.621120,0.802168
767.919580,0.818430
768.218000,0.818741
768.516380,0.810683
768.814720,0.816187
769.113020,0.809097
769.411280,0.817680
769.709500,0.807172
770.007680,0.818678
770.305820,0.818120
770.603920,0.794474
770.901980,0.818989
771.200000,0.815217
771.497980,0.798928
771.795920,0.802676
772.093820,0.790775
772.391680,0.815425
772.689500,0.804730
772.987280,0.812121
773.285020,0.813397
773.582720,0.819595
773.880380,0.825669
774.178000,0.805044
774.475580,0.812458
774.773120,0.818608
775.070620,0.826234
775.368080,0.802271
775.665500,0.792478
775.962880,0.816544
776.260220,0.811575
776.557520,0.811875
776.854780,0.814740
777.152000,0.804377
777.449180,0.822657
777.746320,0.797715
778.043420,0.813097
778.340480,0.826116
778.637500,0.814740
778.934480,0.804976
779.231420,0.806649
779.528320,0.796927
779.825180,0.806324
780.122000,0.798141
780.418780,0.830369
780.715520,0.812207
781.012220,0.818493
781.308880,0.804598
781.605500,0.800685
781.902080,0.798768
782.198620,0.796992
782.495120,0.807270
782.791580,0.823934
783.088000,0.794341
783.384380,0.790922
783.680720,0.795486
783.977020,0.790778
784.273280,0.819580
784.569500,0.805031
784.865680,0.817107
785.161820,0.794444
785.457920,0.802495
785.753980,0.803908
786.050000,0.798343
786.345980,0.804861
786.641920,0.793199
786.937820,0.824786
787.233680,0.803758
787.529500,0.802358
787.825280,0.804533
788.121020,0.793909
788.416720,0.791814
788.712380,0.790550
789.008000,0.793909
789.303580,0.785159
789.599120,0.807273
789.894620,0.796390
790.190080,0.800580
790.485500,0.797696
790.780880,0.788530
791.076220,0.794372
791.371520,0.799564
791.666780,0.805091
791.962000,0.803821
792.257180,0.781113
792.552320,0.795504
792.847420,0.788937
793.142480,0.797802
793.437500,0.804631
793.732480,0.795903
794.027420,0.796736
794.322320,0.778523
794.617180,0.791233
794.912000,0.791976
795.206780,0.804623
795.501520,0.800760
795.796220,0.780000
796.090880,0.797287
796.385500,0.760870
796.680080,0.780105
796.974620,0.781437
797.269120,0.785768
797.563580,0.798473
797.858000,0.790433
798.152380,0.791957
798.446720,0.781538
798.741020,0.789676
799.035280,0.778727
799.329500,0.764434
799.623680,0.772093
