399.985280,0.283784
400.329500,0.216216
400.673680,0.265823
401.017820,0.279412
401.361920,0.242424
401.705980,0.207317
402.050000,0.311688
402.393980,0.341176
402.737920,0.337079
403.081820,0.319588
403.425680,0.348837
403.769500,0.322917
404.113280,0.229885
404.457020,0.280899
404.800720,0.260870
405.144380,0.363636
405.488000,0.344086
405.831580,0.288660
406.175120,0.351064
406.518620,0.410000
406.862080,0.329897
407.205500,0.364583
407.548880,0.357143
407.892220,0.303922
408.235520,0.340426
408.578780,0.342857
408.922000,0.355769
409.265180,0.323232
409.608320,0.363636
409.951420,0.391753
410.294480,0.401961
410.637500,0.369565
410.980480,0.372549
411.323420,0.377551
411.666320,0.376147
412.009180,0.381818
412.352000,0.356436
412.694780,0.376147
413.037520,0.302752
413.380220,0.369369
413.722880,0.392857
414.065500,0.405405
414.408080,0.353982
414.750620,0.336283
415.093120,0.330579
415.435580,0.403361
415.778000,0.371212
416.120380,0.352941
416.462720,0.349206
416.805020,0.375940
417.147280,0.395522
417.489500,0.421429
417.831680,0.349315
418.173820,0.382979
418.515920,0.405594
418.857980,0.379747
419.200000,0.352564
419.541980,0.396450
419.883920,0.387640
420.225820,0.346821
420.567680,0.357542
420.909500,0.360656
421.251280,0.369792
421.593020,0.372449
421.934720,0.353535
422.276380,0.374359
422.618000,0.411765
422.959580,0.387255
423.301120,0.369863
423.642620,0.334783
423.984080,0.358140
424.325500,0.358744
424.666880,0.349138
425.008220,0.361345
425.349520,0.343220
425.690780,0.338462
426.032000,0.337255
426.373180,0.352697
426.714320,0.351562
427.055420,0.343629
427.396480,0.318352
427.737500,0.339921
428.078480,0.343874
428.419420,0.333333
428.760320,0.340996
429.101180,0.358268
429.442000,0.318008
429.782780,0.311538
430.123520,0.337255
430.464220,0.309963
430.804880,0.356322
431.145500,0.301818
431.486080,0.310861
431.826620,0.325581
432.167120,0.323529
432.507580,0.322464
432.848000,0.320144
433.188380,0.324910
433.528720,0.320755
433.869020,0.328571
434.209280,0.291228
434.549500,0.320557
434.889680,0.340067
435.229820,0.296928
435.569920,0.283737
435.909980,0.284790
436.250000,0.305085
436.589980,0.287926
436.929920,0.320635
437.269820,0.282132
437.609680,0.286982
437.949500,0.289157
438.289280,0.277620
438.629020,0.296512
438.968720,0.270349
439.308380,0.273713
439.648000,0.287671
439.987580,0.264550
440.327120,0.290667
440.666620,0.277922
441.006080,0.248082
441.345500,0.277641
441.684880,0.260766
442.024220,0.263027
442.363520,0.269048
442.702780,0.243182
443.042000,0.253304
443.381180,0.262931
443.720320,0.261339
444.059420,0.245798
444.398480,0.248954
444.737500,0.258197
445.076480,0.238095
445.415420,0.253493
445.754320,0.243243
446.093180,0.231193
446.432000,0.251880
446.770780,0.237192
447.109520,0.240809
447.448220,0.225403
447.786880,0.234347
448.125500,0.227586
448.464080,0.244643
448.802620,0.225177
449.141120,0.228374
449.479580,0.227273
449.818000,0.232358
450.156380,0.214047
450.494720,0.211570
450.833020,0.227273
451.171280,0.210616
451.509500,0.224739
451.847680,0.210793
452.185820,0.215146
452.523920,0.231959
452.861980,0.217538
453.200000,0.217608
453.537980,0.201681
453.875920,0.210084
454.213820,0.198630
454.551680,0.218543
454.889500,0.205734
455.227280,0.185053
455.565020,0.214405
455.902720,0.209651
456.240380,0.194676
456.578000,0.202091
456.915580,0.205527
457.253120,0.203947
457.590620,0.193760
457.928080,0.198653
458.265500,0.211149
458.602880,0.209416
458.940220,0.187817
459.277520,0.192000
459.614780,0.199673
459.952000,0.190994
460.289180,0.210443
460.626320,0.195276
460.963420,0.197092
461.300480,0.201835
461.637500,0.180277
461.974480,0.201835
462.311420,0.192250
462.648320,0.193265
462.985180,0.190818
463.322000,0.188988
463.658780,0.196133
463.995520,0.184319
464.332220,0.185596
464.668880,0.196237
465.005500,0.198391
465.342080,0.195903
465.678620,0.201722
466.015120,0.192755
466.351580,0.201011
466.688000,0.198538
467.024380,0.207776
467.360720,0.197727
467.697020,0.192483
468.033280,0.194444
468.369500,0.196468
468.705680,0.201804
469.041820,0.193750
469.377920,0.195228
469.713980,0.187436
470.050000,0.207729
470.385980,0.201566
470.721920,0.204701
471.057820,0.204678
471.393680,0.202993
471.729500,0.199259
472.065280,0.203936
472.401020,0.202128
472.736720,0.200698
473.072380,0.201975
473.408000,0.205396
473.743580,0.199827
474.079120,0.218777
474.414620,0.208651
474.750080,0.205858
475.085500,0.214638
475.420880,0.208993
475.756220,0.206868
476.091520,0.214834
476.426780,0.214401
476.762000,0.213194
477.097180,0.216000
477.432320,0.215670
477.767420,0.223856
478.102480,0.217323
478.437500,0.234811
478.772480,0.224586
479.107420,0.224573
479.442320,0.221423
479.777180,0.229912
480.112000,0.223421
480.446780,0.221356
480.781520,0.227858
481.116220,0.225546
481.450880,0.225605
481.785500,0.242089
482.120080,0.235110
482.454620,0.228438
482.789120,0.237261
483.123580,0.246106
483.458000,0.242880
483.792380,0.247604
484.126720,0.230888
484.461020,0.246682
484.795280,0.249807
485.129500,0.250195
485.463680,0.248837
485.797820,0.248056
486.131920,0.248661
486.465980,0.256371
486.800000,0.253435
487.133980,0.251511
487.467920,0.257842
487.801820,0.263921
488.135680,0.269143
488.469500,0.267776
488.803280,0.271174
489.137020,0.265934
489.470720,0.270030
489.804380,0.268003
490.138000,0.275964
490.471580,0.282977
490.805120,0.274482
491.138620,0.273632
491.472080,0.282686
491.805500,0.282427
492.138880,0.288395
492.472220,0.294118
492.805520,0.293994
493.138780,0.303239
493.472000,0.291639
493.805180,0.299454
494.138320,0.297532
494.471420,0.298177
494.804480,0.307245
495.137500,0.308729
495.470480,0.311663
495.803420,0.304156
496.136320,0.313910
496.469180,0.312462
496.802000,0.319682
497.134780,0.321407
497.467520,0.321101
497.800220,0.320755
498.132880,0.325103
498.465500,0.320394
498.798080,0.329338
499.130620,0.329029
499.463120,0.330713
499.795580,0.330583
500.128000,0.341144
500.460380,0.332616
500.792720,0.335631
501.125020,0.336311
501.457280,0.338903
501.789500,0.340393
502.121680,0.350441
502.453820,0.346762
502.785920,0.350675
503.117980,0.350343
503.450000,0.358614
503.781980,0.352765
504.113920,0.357041
504.445820,0.352941
504.777680,0.351529
505.109500,0.359615
505.441280,0.371415
505.773020,0.368718
506.104720,0.363636
506.436380,0.373876
506.768000,0.376520
507.099580,0.369336
507.431120,0.372834
507.762620,0.374530
508.094080,0.382862
508.425500,0.385154
508.756880,0.383631
509.088220,0.382705
509.419520,0.391993
509.750780,0.388941
510.082000,0.382463
510.413180,0.394288
510.744320,0.398067
511.075420,0.394134
511.406480,0.398213
511.737500,0.388426
512.068480,0.398966
512.399420,0.398592
512.730320,0.394919
513.061180,0.403425
513.392000,0.403218
513.722780,0.411143
514.053520,0.411596
514.384220,0.414367
514.714880,0.415510
515.045500,0.401341
515.376080,0.412107
515.706620,0.415490
516.037120,0.424020
516.367580,0.416954
516.698000,0.419608
517.028380,0.429990
517.358720,0.412840
517.689020,0.418398
518.019280,0.425991
518.349500,0.432843
518.679680,0.423523
519.009820,0.432186
519.339920,0.435872
519.669980,0.436966
520.000000,0.435558
520.329980,0.434940
520.659920,0.435583
520.989820,0.441692
521.319680,0.451646
521.649500,0.442159
521.979280,0.444154
522.309020,0.442427
522.638720,0.437788
522.968380,0.455016
523.298000,0.443633
523.627580,0.448526
523.957120,0.447792
524.286620,0.453882
524.616080,0.446743
524.945500,0.455814
525.274880,0.449974
525.604220,0.452899
525.933520,0.457023
526.262780,0.457679
526.592000,0.458650
526.921180,0.463687
527.250320,0.466261
527.579420,0.465892
527.908480,0.456425
528.237500,0.462264
528.566480,0.461577
528.895420,0.469197
529.224320,0.473502
529.553180,0.464578
529.882000,0.478345
530.210780,0.459459
530.539520,0.464046
530.868220,0.471039
531.196880,0.467750
531.525500,0.474576
531.854080,0.467636
532.182620,0.469407
532.511120,0.475638
532.839580,0.472777
533.168000,0.473108
533.496380,0.478082
533.824720,0.478241
534.153020,0.472581
534.481280,0.474449
534.809500,0.486807
535.137680,0.488715
535.465820,0.478093
535.793920,0.477580
536.121980,0.480487
536.450000,0.485412
536.777980,0.484709
537.105920,0.483188
537.433820,0.479951
537.761680,0.487347
538.089500,0.490490
538.417280,0.484282
538.745020,0.493661
539.072720,0.479500
539.400380,0.485237
539.728000,0.481836
540.055580,0.480150
540.383120,0.490692
540.710620,0.496652
541.038080,0.488381
541.365500,0.487500
541.692880,0.488372
542.020220,0.485067
542.347520,0.488514
542.674780,0.481651
543.002000,0.478307
543.329180,0.492108
543.656320,0.501055
543.983420,0.485470
544.310480,0.483860
544.637500,0.498465
544.964480,0.486205
545.291420,0.492855
545.618320,0.485060
545.945180,0.477587
546.272000,0.481651
546.598780,0.480170
546.925520,0.487636
547.252220,0.485639
547.578880,0.481590
547.905500,0.486601
548.232080,0.481157
548.558620,0.483892
548.885120,0.487406
549.211580,0.482803
549.538000,0.487030
549.864380,0.479743
550.190720,0.481434
550.517020,0.482725
550.843280,0.479805
551.169500,0.479326
551.495680,0.481603
551.821820,0.477466
552.147920,0.471047
552.473980,0.478762
552.800000,0.476782
553.125980,0.479371
553.451920,0.477439
553.777820,0.482345
554.103680,0.478598
554.429500,0.474724
554.755280,0.471629
555.081020,0.464572
555.406720,0.468337
555.732380,0.474415
556.058000,0.472166
556.383580,0.469017
556.709120,0.466230
557.034620,0.461591
557.360080,0.467703
557.685500,0.467497
558.010880,0.460312
558.336220,0.458348
558.661520,0.467565
558.986780,0.464564
559.312000,0.462963
559.637180,0.465350
559.962320,0.459238
560.287420,0.462623
560.612480,0.463581
560.937500,0.467327
561.262480,0.454179
561.587420,0.452666
561.912320,0.453574
562.237180,0.447816
562.562000,0.450430
562.886780,0.453735
563.211520,0.448212
563.536220,0.447495
563.860880,0.447378
564.185500,0.448780
564.510080,0.450339
564.834620,0.442501
565.159120,0.442105
565.483580,0.442417
565.808000,0.436247
566.132380,0.441626
566.456720,0.444822
566.781020,0.435859
567.105280,0.438941
567.429500,0.443096
567.753680,0.444956
568.077820,0.440665
568.401920,0.440413
568.725980,0.433397
569.050000,0.426996
569.373980,0.424819
569.697920,0.428517
570.021820,0.425843
570.345680,0.427095
570.669500,0.420069
570.993280,0.424511
571.317020,0.420533
571.640720,0.426825
571.964380,0.419822
572.288000,0.423591
572.611580,0.423063
572.935120,0.414141
573.258620,0.418474
573.582080,0.407228
573.905500,0.414371
574.228880,0.424647
574.552220,0.411872
574.875520,0.418094
575.198780,0.405493
575.522000,0.413123
575.845180,0.396848
576.168320,0.401365
576.491420,0.404070
576.814480,0.407595
577.137500,0.399711
577.460480,0.406669
577.783420,0.402287
578.106320,0.397792
578.429180,0.399788
578.752000,0.402223
579.074780,0.399865
579.397520,0.393480
579.720220,0.393822
580.042880,0.394450
580.365500,0.396757
580.688080,0.392469
581.010620,0.391833
581.333120,0.386106
581.655580,0.391608
581.978000,0.390755
582.300380,0.383642
582.622720,0.393540
582.945020,0.388817
583.267280,0.385217
583.589500,0.382665
583.911680,0.385519
584.233820,0.377400
584.555920,0.374094
584.877980,0.384422
585.200000,0.368324
585.521980,0.376892
585.843920,0.373398
586.165820,0.370506
586.487680,0.373458
586.809500,0.372037
587.131280,0.367051
587.453020,0.370536
587.774720,0.371378
588.096380,0.365519
588.418000,0.372256
588.739580,0.371659
589.061120,0.363715
589.382620,0.359312
589.704080,0.369425
590.025500,0.363014
590.346880,0.367341
590.668220,0.365444
590.989520,0.354964
591.310780,0.361502
591.632000,0.354372
591.953180,0.358151
592.274320,0.353808
592.595420,0.352371
592.916480,0.348818
593.237500,0.358394
593.558480,0.351628
593.879420,0.354195
594.200320,0.347442
594.521180,0.350863
594.842000,0.354917
595.162780,0.349626
595.483520,0.349375
595.804220,0.346939
596.124880,0.339995
596.445500,0.343725
596.766080,0.343103
597.086620,0.341295
597.407120,0.340442
597.727580,0.340228
598.048000,0.338799
598.368380,0.336928
598.688720,0.336304
599.009020,0.335191
599.329280,0.341139
599.649500,0.334654
599.969680,0.337874
600.289820,0.332799
600.609920,0.331018
600.929980,0.332175
601.250000,0.335135
601.569980,0.332433
601.889920,0.331997
602.209820,0.324675
602.529680,0.337270
602.849500,0.335243
603.169280,0.333425
603.489020,0.324661
603.808720,0.326111
604.128380,0.323400
604.448000,0.321823
604.767580,0.318715
605.087120,0.319391
605.406620,0.325497
605.726080,0.324209
606.045500,0.321538
606.364880,0.321236
606.684220,0.324101
607.003520,0.319954
607.322780,0.319500
607.642000,0.319644
607.961180,0.319167
608.280320,0.313515
608.599420,0.315759
608.918480,0.320821
609.237500,0.310153
609.556480,0.326724
609.875420,0.319256
610.194320,0.315028
610.513180,0.317550
610.832000,0.325491
611.150780,0.320817
611.469520,0.318552
611.788220,0.315599
612.106880,0.317551
612.425500,0.317600
612.744080,0.317328
613.062620,0.313761
613.381120,0.309263
613.699580,0.313611
614.018000,0.309889
614.336380,0.314312
614.654720,0.311008
614.973020,0.310398
615.291280,0.315463
615.609500,0.321712
615.927680,0.305624
616.245820,0.314471
616.563920,0.311159
616.881980,0.312753
617.200000,0.313841
617.517980,0.318295
617.835920,0.309724
618.153820,0.311159
618.471680,0.311008
618.789500,0.316866
619.107280,0.312676
619.425020,0.316841
619.742720,0.311048
620.060380,0.312128
620.378000,0.314978
620.695580,0.320243
621.013120,0.314961
621.330620,0.315657
621.648080,0.312303
621.965500,0.314931
622.282880,0.317150
622.600220,0.313961
622.917520,0.320731
623.234780,0.320797
623.552000,0.320178
623.869180,0.315474
624.186320,0.320280
624.503420,0.318495
624.820480,0.324537
625.137500,0.320493
625.454480,0.318537
625.771420,0.316204
626.088320,0.324401
626.405180,0.325140
626.722000,0.319636
627.038780,0.324561
627.355520,0.325625
627.672220,0.326594
627.988880,0.323484
628.305500,0.325335
628.622080,0.331165
628.938620,0.327523
629.255120,0.332296
629.571580,0.327000
629.888000,0.332617
630.204380,0.331697
630.520720,0.335771
630.837020,0.335183
631.153280,0.329736
631.469500,0.330807
631.785680,0.336950
632.101820,0.337153
632.417920,0.330253
632.733980,0.332833
633.050000,0.345967
633.365980,0.336396
633.681920,0.337411
633.997820,0.342797
634.313680,0.338838
634.629500,0.336479
634.945280,0.345455
635.261020,0.343704
635.576720,0.348796
635.892380,0.339820
636.208000,0.342533
636.523580,0.351359
636.839120,0.352345
637.154620,0.351884
637.470080,0.350933
637.785500,0.353458
638.100880,0.352737
638.416220,0.354904
638.731520,0.357020
639.046780,0.357996
639.362000,0.357798
639.677180,0.355797
639.992320,0.364533
640.307420,0.363023
640.622480,0.360403
640.937500,0.358114
641.252480,0.370008
641.567420,0.363740
641.882320,0.360523
642.197180,0.370859
642.512000,0.367758
642.826780,0.370319
643.141520,0.374826
643.456220,0.376591
643.770880,0.378939
644.085500,0.378703
644.400080,0.378652
644.714620,0.382943
645.029120,0.380638
645.343580,0.380965
645.658000,0.383569
645.972380,0.386681
646.286720,0.389207
646.601020,0.387213
646.915280,0.384974
647.229500,0.388462
647.543680,0.390500
647.857820,0.384531
648.171920,0.396907
648.485980,0.396547
648.800000,0.392946
649.113980,0.395510
649.427920,0.394452
649.741820,0.401209
650.055680,0.403182
650.369500,0.405549
650.683280,0.399001
650.997020,0.410066
651.310720,0.405614
651.624380,0.404945
651.938000,0.408587
652.251580,0.406902
652.565120,0.404136
652.878620,0.411881
653.192080,0.411517
653.505500,0.412903
653.818880,0.419392
654.132220,0.418114
654.445520,0.416336
654.758780,0.416714
655.072000,0.427794
655.385180,0.419971
655.698320,0.429837
656.011420,0.430209
656.324480,0.428738
656.637500,0.426999
656.950480,0.434527
657.263420,0.431274
657.576320,0.434628
657.889180,0.434090
658.202000,0.439010
658.514780,0.440905
658.827520,0.442377
659.140220,0.440515
659.452880,0.446995
659.765500,0.449428
660.078080,0.444177
660.390620,0.443324
660.703120,0.450962
661.015580,0.455215
661.328000,0.462217
661.640380,0.460081
661.952720,0.460604
662.265020,0.460933
662.577280,0.461196
662.889500,0.461053
663.201680,0.467135
663.513820,0.467031
663.825920,0.468140
664.137980,0.475113
664.450000,0.467391
664.761980,0.469722
665.073920,0.469328
665.385820,0.470223
665.697680,0.473719
666.009500,0.484204
666.321280,0.485421
666.633020,0.485372
666.944720,0.487698
667.256380,0.484186
667.568000,0.483016
667.879580,0.493197
668.191120,0.493132
668.502620,0.496063
668.814080,0.497193
669.125500,0.501882
669.436880,0.497580
669.748220,0.497058
670.059520,0.511555
670.370780,0.504175
670.682000,0.500531
670.993180,0.516913
671.304320,0.508087
671.615420,0.502486
671.926480,0.518453
672.237500,0.503037
672.548480,0.511356
672.859420,0.520372
673.170320,0.525934
673.481180,0.523896
673.792000,0.518572
674.102780,0.515978
674.413520,0.528254
674.724220,0.524501
675.034880,0.531720
675.345500,0.525164
675.656080,0.530309
675.966620,0.534740
676.277120,0.541194
676.587580,0.550074
676.898000,0.544979
677.208380,0.536784
677.518720,0.540117
677.829020,0.545085
678.139280,0.549296
678.449500,0.551058
678.759680,0.557512
679.069820,0.561710
679.379920,0.566579
679.689980,0.562198
680.000000,0.559626
680.309980,0.556793
680.619920,0.565316
680.929820,0.562523
681.239680,0.569424
681.549500,0.568148
681.859280,0.579164
682.169020,0.576278
682.478720,0.575168
682.788380,0.575120
683.098000,0.580404
683.407580,0.578987
683.717120,0.578078
684.026620,0.575678
684.336080,0.589238
684.645500,0.582866
684.954880,0.585946
685.264220,0.584749
685.573520,0.597640
685.882780,0.609896
686.192000,0.594808
686.501180,0.599697
686.810320,0.590699
687.119420,0.595591
687.428480,0.593240
687.737500,0.612049
688.046480,0.603528
688.355420,0.605055
688.664320,0.599082
688.973180,0.616003
689.282000,0.615355
689.590780,0.617331
689.899520,0.600456
690.208220,0.619648
690.516880,0.628102
690.825500,0.627925
691.134080,0.622627
691.442620,0.620427
691.751120,0.628745
692.059580,0.637753
692.368000,0.630822
692.676380,0.643130
692.984720,0.622901
693.293020,0.634878
693.601280,0.638306
693.909500,0.640560
694.217680,0.642422
694.525820,0.646992
694.833920,0.647463
695.141980,0.649441
695.450000,0.646947
695.757980,0.648969
696.065920,0.650097
696.373820,0.646266
696.681680,0.636747
696.989500,0.656503
697.297280,0.660443
697.605020,0.670238
697.912720,0.658340
698.220380,0.659976
698.528000,0.661788
698.835580,0.661399
699.143120,0.665627
699.450620,0.667462
699.758080,0.660000
700.065500,0.680367
700.372880,0.678400
700.680220,0.668528
700.987520,0.682540
701.294780,0.682887
701.602000,0.684628
701.909180,0.688792
702.216320,0.675010
702.523420,0.690213
702.830480,0.692277
703.137500,0.680826
703.444480,0.693886
703.751420,0.693491
704.058320,0.691334
704.365180,0.682177
704.672000,0.695842
704.978780,0.690597
705.285520,0.685837
705.592220,0.692157
705.898880,0.700552
706.205500,0.700704
706.512080,0.701422
706.818620,0.702786
707.125120,0.703846
707.431580,0.698710
707.738000,0.710937
708.044380,0.700116
708.350720,0.705006
708.657020,0.715123
708.963280,0.720109
709.269500,0.717808
709.575680,0.732024
709.881820,0.717767
710.187920,0.725292
710.493980,0.718386
710.800000,0.722731
711.105980,0.713479
711.411920,0.729208
711.717820,0.724366
712.023680,0.719782
712.329500,0.745662
712.635280,0.736822
712.941020,0.731349
713.246720,0.732016
713.552380,0.732339
713.858000,0.731573
714.163580,0.733228
714.469120,0.729973
714.774620,0.739045
715.080080,0.733412
715.385500,0.747802
715.690880,0.731361
715.996220,0.746830
716.301520,0.750198
716.606780,0.745283
716.912000,0.759693
717.217180,0.752195
717.522320,0.745924
717.827420,0.753458
718.132480,0.755118
718.437500,0.758255
718.742480,0.744758
719.047420,0.746764
719.352320,0.757161
719.657180,0.757563
719.962000,0.761787
720.266780,0.761944
720.571520,0.765949
720.876220,0.766367
721.180880,0.755853
721.485500,0.772252
721.790080,0.762633
722.094620,0.776158
722.399120,0.771219
722.703580,0.762538
723.008000,0.778353
723.312380,0.778734
723.616720,0.765831
723.921020,0.771330
724.225280,0.758290
724.529500,0.772329
724.833680,0.777580
725.137820,0.771806
725.441920,0.787784
725.745980,0.773602
726.050000,0.784844
726.353980,0.784137
726.657920,0.773729
726.961820,0.777626
727.265680,0.791956
727.569500,0.777879
727.873280,0.778291
728.177020,0.797789
728.480720,0.786111
728.784380,0.800376
729.088000,0.776731
729.391580,0.774988
729.695120,0.801823
729.998620,0.798757
730.302080,0.790005
730.605500,0.801067
730.908880,0.798138
731.212220,0.789912
731.515520,0.784008
731.818780,0.776214
732.122000,0.795768
732.425180,0.788073
732.728320,0.797224
733.031420,0.787970
733.334480,0.807653
733.637500,0.782762
733.940480,0.794780
734.243420,0.797146
734.546320,0.800311
734.849180,0.792355
735.152000,0.800830
735.454780,0.799587
735.757520,0.794521
736.060220,0.797788
736.362880,0.798319
736.665500,0.790601
736.968080,0.809780
737.270620,0.819271
737.573120,0.811135
737.875580,0.817482
738.178000,0.814371
738.480380,0.805946
738.782720,0.801527
739.085020,0.794053
739.387280,0.805987
739.689500,0.812005
739.991680,0.814711
740.293820,0.813156
740.595920,0.808570
740.897980,0.798419
741.200000,0.808749
741.501980,0.810888
741.803920,0.806306
742.105820,0.816695
742.407680,0.813628
742.709500,0.806250
743.011280,0.810082
743.313020,0.808116
743.614720,0.800348
743.916380,0.805814
744.218000,0.818019
744.519580,0.813406
744.821120,0.826347
745.122620,0.817256
745.424080,0.806490
745.725500,0.811104
746.026880,0.830665
746.328220,0.816276
746.629520,0.799518
746.930780,0.805760
747.232000,0.812385
747.533180,0.823063
747.834320,0.808886
748.135420,0.807955
748.436480,0.807236
748.737500,0.797406
749.038480,0.798412
749.339420,0.825762
749.640320,0.817725
749.941180,0.835728
750.242000,0.812186
750.542780,0.813275
750.843520,0.829596
751.144220,0.813462
751.444880,0.807229
751.745500,0.830519
752.046080,0.829378
752.346620,0.811211
752.647120,0.822992
752.947580,0.827296
753.248000,0.816248
753.548380,0.821731
753.848720,0.817772
754.149020,0.807221
754.449280,0.812213
754.749500,0.811546
755.049680,0.822667
755.349820,0.823883
755.649920,0.824190
755.949980,0.804910
756.250000,0.818540
756.549980,0.804620
756.849920,0.815092
757.149820,0.808383
757.449680,0.838284
757.749500,0.819359
758.049280,0.814334
758.349020,0.804590
758.648720,0.824707
758.948380,0.810309
759.248000,0.826819
759.547580,0.813719
759.847120,0.818057
760.146620,0.813261
760.446080,0.809140
760.745500,0.821678
761.044880,0.806108
761.344220,0.811832
761.643520,0.821328
761.942780,0.814556
762.242000,0.828147
762.541180,0.819014
762.840320,0.821629
763.139420,0.796062
763.438480,0.797676
763.737500,0.814611
764.036480,0.823201
764.335420,0.812279
764.634320,0.810118
764.933180,0.808219
765.232000,0.813324
765.530780,0.812632
765.829520,0.809790
766.128220,0.816284
766.426880,0.816631
766.725500,0.799863
767.024080,0.803841
767.322620,0.817427
767.621120,0.815041
767.919580,0.812969
768.218000,0.811218
768.516380,0.810007
768.814720,0.792867
769.113020,0.800138
769.411280,0.794199
769.709500,0.811231
770.007680,0.808453
770.305820,0.802569
770.603920,0.794474
770.901980,0.814891
771.200000,0.785326
771.497980,0.792225
771.795920,0.793311
772.093820,0.788770
772.391680,0.812788
772.689500,0.787162
772.987280,0.787879
773.285020,0.792208
773.582720,0.791892
773.880380,0.821551
774.178000,0.798909
774.475580,0.798392
774.773120,0.786479
775.070620,0.793103
775.368080,0.786907
775.665500,0.783747
775.962880,0.795864
776.260220,0.807537
776.557520,0.797865
776.854780,0.805950
777.152000,0.783156
777.449180,0.807148
777.746320,0.788306
778.043420,0.794679
778.340480,0.796346
778.637500,0.795132
778.934480,0.785474
779.231420,0.787653
779.528320,0.778891
779.825180,0.765481
780.122000,0.778884
780.418780,0.797538
780.715520,0.788732
781.012220,0.799315
781.308880,0.774172
781.605500,0.780822
781.902080,0.789870
782.198620,0.774436
782.495120,0.791495
782.791580,0.788858
783.088000,0.783989
783.384380,0.789546
783.680720,0.764706
783.977020,0.763937
784.273280,0.786014
784.569500,0.779874
784.865680,0.785814
785.161820,0.772917
785.457920,0.764380
785.753980,0.766225
786.050000,0.762431
786.345980,0.762500
786.641920,0.751561
786.937820,0.774929
787.233680,0.744607
787.529500,0.747573
787.825280,0.781870
788.121020,0.761331
788.416720,0.748765
788.712380,0.765867
789.008000,0.757790
789.303580,0.742049
789.599120,0.757091
789.894620,0.769675
790.190080,0.765772
790.485500,0.755940
790.780880,0.757706
791.076220,0.748196
791.371520,0.759622
791.666780,0.762909
791.962000,0.763409
792.257180,0.749634
792.552320,0.756345
792.847420,0.750364
793.142480,0.754579
793.437500,0.743126
793.732480,0.741039
794.027420,0.747033
794.322320,0.747204
794.617180,0.751114
794.912000,0.744428
795.206780,0.739001
795.501520,0.749810
795.796220,0.733333
796.090880,0.742276
796.385500,0.721139
796.680080,0.729245
796.974620,0.745509
797.269120,0.720666
797.563580,0.738931
797.858000,0.742597
798.152380,0.740913
798.446720,0.729231
798.741020,0.731895
799.035280,0.720497
799.329500,0.714396
799.623680,0.730233
