399.985280,0.378378
400.329500,0.351351
400.673680,0.303797
401.017820,0.382353
401.361920,0.424242
401.705980,0.378049
402.050000,0.363636
402.393980,0.388235
402.737920,0.426966
403.081820,0.391753
403.425680,0.348837
403.769500,0.312500
404.113280,0.356322
404.457020,0.460674
404.800720,0.380435
405.144380,0.373737
405.488000,0.354839
405.831580,0.360825
406.175120,0.361702
406.518620,0.380000
406.862080,0.350515
407.205500,0.385417
407.548880,0.316327
407.892220,0.343137
408.235520,0.372340
408.578780,0.371429
408.922000,0.346154
409.265180,0.363636
409.608320,0.323232
409.951420,0.350515
410.294480,0.411765
410.637500,0.369565
410.980480,0.352941
411.323420,0.306122
411.666320,0.376147
412.009180,0.354545
412.352000,0.277228
412.694780,0.357798
413.037520,0.321101
413.380220,0.315315
413.722880,0.348214
414.065500,0.288288
414.408080,0.336283
414.750620,0.300885
415.093120,0.280992
415.435580,0.352941
415.778000,0.310606
416.120380,0.327731
416.462720,0.301587
416.805020,0.353383
417.147280,0.320896
417.489500,0.321429
417.831680,0.294521
418.173820,0.312057
418.515920,0.300699
418.857980,0.284810
419.200000,0.314103
419.541980,0.278107
419.883920,0.286517
420.225820,0.289017
420.567680,0.301676
420.909500,0.262295
421.251280,0.296875
421.593020,0.265306
421.934720,0.247475
422.276380,0.261538
422.618000,0.294118
422.959580,0.259804
423.301120,0.260274
423.642620,0.213043
423.984080,0.232558
424.325500,0.242152
424.666880,0.228448
425.008220,0.239496
425.349520,0.241525
425.690780,0.242308
426.032000,0.227451
426.373180,0.232365
426.714320,0.222656
427.055420,0.235521
427.396480,0.247191
427.737500,0.217391
428.078480,0.217391
428.419420,0.220884
428.760320,0.195402
429.101180,0.224409
429.442000,0.226054
429.782780,0.223077
430.123520,0.219608
430.464220,0.202952
430.804880,0.218391
431.145500,0.210909
431.486080,0.224719
431.826620,0.201550
432.167120,0.183824
432.507580,0.199275
432.848000,0.183453
433.188380,0.191336
433.528720,0.181132
433.869020,0.203571
434.209280,0.185965
434.549500,0.198606
434.889680,0.202020
435.229820,0.177474
435.569920,0.179931
435.909980,0.165049
436.250000,0.169492
436.589980,0.157895
436.929920,0.187302
437.269820,0.181818
437.609680,0.195266
437.949500,0.180723
438.289280,0.201133
438.629020,0.197674
438.968720,0.174419
439.308380,0.176152
439.648000,0.175342
439.987580,0.174603
440.327120,0.178667
440.666620,0.176623
441.006080,0.173913
441.345500,0.174447
441.684880,0.165072
442.024220,0.173697
442.363520,0.169048
442.702780,0.168182
443.042000,0.174009
443.381180,0.187500
443.720320,0.187905
444.059420,0.178571
444.398480,0.175732
444.737500,0.176230
445.076480,0.166667
445.415420,0.175649
445.754320,0.178794
446.093180,0.172477
446.432000,0.172932
446.770780,0.184061
447.109520,0.193015
447.448220,0.182469
447.786880,0.189624
448.125500,0.186207
448.464080,0.180357
448.802620,0.184397
449.141120,0.192042
449.479580,0.192308
449.818000,0.199656
450.156380,0.192308
450.494720,0.176860
450.833020,0.197552
451.171280,0.166096
451.509500,0.193380
451.847680,0.190556
452.185820,0.189329
452.523920,0.189003
452.861980,0.193929
453.200000,0.192691
453.537980,0.196639
453.875920,0.206723
454.213820,0.195205
454.551680,0.195364
454.889500,0.197302
455.227280,0.195730
455.565020,0.217755
455.902720,0.221298
456.240380,0.201331
456.578000,0.209059
456.915580,0.212435
457.253120,0.208882
457.590620,0.213465
457.928080,0.225589
458.265500,0.214527
458.602880,0.219156
458.940220,0.214890
459.277520,0.219200
459.614780,0.227496
459.952000,0.220497
460.289180,0.238924
460.626320,0.225197
460.963420,0.226171
461.300480,0.224771
461.637500,0.229584
461.974480,0.247706
462.311420,0.236960
462.648320,0.229868
462.985180,0.236729
463.322000,0.242560
463.658780,0.234807
463.995520,0.243466
464.332220,0.247922
464.668880,0.250000
465.005500,0.262735
465.342080,0.253521
465.678620,0.259533
466.015120,0.252264
466.351580,0.262958
466.688000,0.264312
467.024380,0.263670
467.360720,0.264773
467.697020,0.280182
468.033280,0.272222
468.369500,0.272627
468.705680,0.287486
469.041820,0.267708
469.377920,0.278742
469.713980,0.273944
470.050000,0.276329
470.385980,0.281800
470.721920,0.284035
471.057820,0.289474
471.393680,0.281572
471.729500,0.294717
472.065280,0.301431
472.401020,0.300532
472.736720,0.294066
473.072380,0.303411
473.408000,0.302872
473.743580,0.301038
474.079120,0.308355
474.414620,0.296862
474.750080,0.309194
475.085500,0.308388
475.420880,0.308909
475.756220,0.309894
476.091520,0.308610
476.426780,0.323625
476.762000,0.324216
477.097180,0.324000
477.432320,0.336026
477.767420,0.324346
478.102480,0.329134
478.437500,0.334975
478.772480,0.332545
479.107420,0.336046
479.442320,0.334133
479.777180,0.346062
480.112000,0.334361
480.446780,0.334373
480.781520,0.344605
481.116220,0.356508
481.450880,0.349727
481.785500,0.360759
482.120080,0.354232
482.454620,0.356643
482.789120,0.355096
483.123580,0.363707
483.458000,0.374209
483.792380,0.362620
484.126720,0.363707
484.461020,0.363778
484.795280,0.363146
485.129500,0.359314
485.463680,0.368217
485.797820,0.374028
486.131920,0.377965
486.465980,0.374517
486.800000,0.378626
487.133980,0.376133
487.467920,0.371844
487.801820,0.387490
488.135680,0.386657
488.469500,0.390318
488.803280,0.391530
489.137020,0.389011
489.470720,0.393917
489.804380,0.388270
490.138000,0.399110
490.471580,0.395726
490.805120,0.385275
491.138620,0.397299
491.472080,0.402120
491.805500,0.398884
492.138880,0.398193
492.472220,0.399308
492.805520,0.407821
493.138780,0.407994
493.472000,0.399331
493.805180,0.414052
494.138320,0.413609
494.471420,0.408203
494.804480,0.410091
495.137500,0.411425
495.470480,0.413639
495.803420,0.425063
496.136320,0.431704
496.469180,0.417434
496.802000,0.416870
497.134780,0.420255
497.467520,0.434251
497.800220,0.428066
498.132880,0.419753
498.465500,0.426419
498.798080,0.415525
499.130620,0.434587
499.463120,0.423919
499.795580,0.437294
500.128000,0.433243
500.460380,0.427341
500.792720,0.424708
501.125020,0.426695
501.457280,0.438642
501.789500,0.440083
502.121680,0.439606
502.453820,0.424783
502.785920,0.434217
503.117980,0.441609
503.450000,0.451030
503.781980,0.438964
504.113920,0.435277
504.445820,0.438503
504.777680,0.430118
505.109500,0.439423
505.441280,0.443595
505.773020,0.445279
506.104720,0.442770
506.436380,0.442026
506.768000,0.447147
507.099580,0.434783
507.431120,0.435597
507.762620,0.453008
508.094080,0.446217
508.425500,0.451447
508.756880,0.445359
509.088220,0.439282
509.419520,0.440410
509.750780,0.450328
510.082000,0.447295
510.413180,0.451405
510.744320,0.443626
511.075420,0.445463
511.406480,0.444288
511.737500,0.435185
512.068480,0.451598
512.399420,0.457277
512.730320,0.446189
513.061180,0.450999
513.392000,0.444392
513.722780,0.447166
514.053520,0.444657
514.384220,0.441009
514.714880,0.441838
515.045500,0.437739
515.376080,0.448910
515.706620,0.438383
516.037120,0.434804
516.367580,0.440611
516.698000,0.434314
517.028380,0.445382
517.358720,0.441481
517.689020,0.448566
518.019280,0.442047
518.349500,0.446528
518.679680,0.435134
519.009820,0.446356
519.339920,0.452405
519.669980,0.439980
520.000000,0.441671
520.329980,0.439606
520.659920,0.440695
520.989820,0.432921
521.319680,0.441358
521.649500,0.425707
521.979280,0.452505
522.309020,0.432573
522.638720,0.429595
522.968380,0.436401
523.298000,0.434238
523.627580,0.427832
523.957120,0.432727
524.286620,0.435122
524.616080,0.421406
524.945500,0.435142
525.274880,0.431503
525.604220,0.428054
525.933520,0.425052
526.262780,0.421693
526.592000,0.425165
526.921180,0.425597
527.250320,0.419077
527.579420,0.427994
527.908480,0.418021
528.237500,0.424032
528.566480,0.422655
528.895420,0.419418
529.224320,0.414066
529.553180,0.415904
529.882000,0.419951
530.210780,0.418436
530.539520,0.412752
530.868220,0.419818
531.196880,0.414238
531.525500,0.418886
531.854080,0.407598
532.182620,0.398879
532.511120,0.398144
532.839580,0.414247
533.168000,0.406563
533.496380,0.407306
533.824720,0.406909
534.153020,0.403032
534.481280,0.403084
534.809500,0.405453
535.137680,0.397569
535.465820,0.402062
535.793920,0.398054
536.121980,0.397818
536.450000,0.405497
536.777980,0.402597
537.105920,0.404732
537.433820,0.392390
537.761680,0.395510
538.089500,0.393768
538.417280,0.387585
538.745020,0.391046
539.072720,0.390863
539.400380,0.383450
539.728000,0.386233
540.055580,0.382772
540.383120,0.393522
540.710620,0.380580
541.038080,0.376983
541.365500,0.375735
541.692880,0.378634
542.020220,0.373875
542.347520,0.377602
542.674780,0.375088
543.002000,0.369139
543.329180,0.370396
543.656320,0.366737
543.983420,0.372991
544.310480,0.367312
544.637500,0.373251
544.964480,0.371467
545.291420,0.357594
545.618320,0.368526
545.945180,0.360580
546.272000,0.351900
546.598780,0.364471
546.925520,0.363666
547.252220,0.359194
547.578880,0.353861
547.905500,0.358170
548.232080,0.354126
548.558620,0.351123
548.885120,0.352960
549.211580,0.347798
549.538000,0.355058
549.864380,0.350161
550.190720,0.344204
550.517020,0.341265
550.843280,0.350163
551.169500,0.339695
551.495680,0.342641
551.821820,0.343893
552.147920,0.337996
552.473980,0.343431
552.800000,0.335513
553.125980,0.336280
553.451920,0.332117
553.777820,0.337442
554.103680,0.329963
554.429500,0.328088
554.755280,0.331108
555.081020,0.320856
555.406720,0.327125
555.732380,0.320569
556.058000,0.322471
556.383580,0.323862
556.709120,0.322192
557.034620,0.316569
557.360080,0.316753
557.685500,0.321577
558.010880,0.314731
558.336220,0.310369
558.661520,0.318681
558.986780,0.321049
559.312000,0.314103
559.637180,0.311670
559.962320,0.315059
560.287420,0.306770
560.612480,0.304629
560.937500,0.309104
561.262480,0.309018
561.587420,0.309757
561.912320,0.304716
562.237180,0.297557
562.562000,0.299663
562.886780,0.307692
563.211520,0.304024
563.536220,0.302041
563.860880,0.305545
564.185500,0.303565
564.510080,0.294206
564.834620,0.297358
565.159120,0.297368
565.483580,0.294565
565.808000,0.289065
566.132380,0.293920
566.456720,0.292517
566.781020,0.288822
567.105280,0.284310
567.429500,0.292109
567.753680,0.293441
568.077820,0.287205
568.401920,0.286478
568.725980,0.288425
569.050000,0.284411
569.373980,0.286258
569.697920,0.283656
570.021820,0.285393
570.345680,0.290471
570.669500,0.285387
570.993280,0.283499
571.317020,0.281695
571.640720,0.287884
571.964380,0.287305
572.288000,0.283383
572.611580,0.284163
572.935120,0.280958
573.258620,0.279357
573.582080,0.286140
573.905500,0.282576
574.228880,0.280252
574.552220,0.274460
574.875520,0.279598
575.198780,0.280087
575.522000,0.278592
575.845180,0.282593
576.168320,0.279554
576.491420,0.286337
576.814480,0.284268
577.137500,0.282107
577.460480,0.279087
577.783420,0.277242
578.106320,0.279202
578.429180,0.283492
578.752000,0.281695
579.074780,0.278152
579.397520,0.277921
579.720220,0.275740
580.042880,0.281136
580.365500,0.280940
580.688080,0.281886
581.010620,0.284846
581.333120,0.276219
581.655580,0.283383
581.978000,0.277685
582.300380,0.280428
582.622720,0.281806
582.945020,0.280884
583.267280,0.282644
583.589500,0.278331
583.911680,0.281994
584.233820,0.281398
584.555920,0.284904
584.877980,0.284234
585.200000,0.277778
585.521980,0.284832
585.843920,0.285845
586.165820,0.280926
586.487680,0.281673
586.809500,0.288629
587.131280,0.282165
587.453020,0.288988
587.774720,0.285038
588.096380,0.287048
588.418000,0.284753
588.739580,0.290601
589.061120,0.286659
589.382620,0.289685
589.704080,0.294530
590.025500,0.290240
590.346880,0.288364
590.668220,0.287595
590.989520,0.287576
591.310780,0.292184
591.632000,0.289071
591.953180,0.290617
592.274320,0.286923
592.595420,0.294989
592.916480,0.296930
593.237500,0.293721
593.558480,0.295938
593.879420,0.291880
594.200320,0.293866
594.521180,0.295086
594.842000,0.299033
595.162780,0.299145
595.483520,0.297793
595.804220,0.299678
596.124880,0.305356
596.445500,0.296044
596.766080,0.305727
597.086620,0.307590
597.407120,0.302001
597.727580,0.309997
598.048000,0.305739
598.368380,0.305103
598.688720,0.307471
599.009020,0.306794
599.329280,0.312932
599.649500,0.304015
599.969680,0.313835
600.289820,0.310363
600.609920,0.312316
600.929980,0.314805
601.250000,0.316486
601.569980,0.309209
601.889920,0.314354
602.209820,0.318994
602.529680,0.328481
602.849500,0.318331
603.169280,0.323505
603.489020,0.324384
603.808720,0.328031
604.128380,0.324503
604.448000,0.325691
604.767580,0.322905
605.087120,0.322992
605.406620,0.332774
605.726080,0.332193
606.045500,0.324324
606.364880,0.335413
606.684220,0.335808
607.003520,0.335436
607.322780,0.331154
607.642000,0.337163
607.961180,0.340850
608.280320,0.335847
608.599420,0.338065
608.918480,0.338710
609.237500,0.341256
609.556480,0.346848
609.875420,0.342587
610.194320,0.346324
610.513180,0.346848
610.832000,0.349911
611.150780,0.355362
611.469520,0.355354
611.788220,0.357316
612.106880,0.354041
612.425500,0.355968
612.744080,0.363804
613.062620,0.356269
613.381120,0.361060
613.699580,0.366033
614.018000,0.364558
614.336380,0.367674
614.654720,0.364961
614.973020,0.362542
615.291280,0.375891
615.609500,0.381300
615.927680,0.374227
616.245820,0.376933
616.563920,0.378924
616.881980,0.382289
617.200000,0.378538
617.517980,0.380212
617.835920,0.386145
618.153820,0.378924
618.471680,0.377054
618.789500,0.390497
619.107280,0.390923
619.425020,0.393276
619.742720,0.393911
620.060380,0.390160
620.378000,0.397105
620.695580,0.393997
621.013120,0.400315
621.330620,0.399121
621.648080,0.394637
621.965500,0.404642
622.282880,0.404161
622.600220,0.407770
622.917520,0.409263
623.234780,0.421408
623.552000,0.413749
623.869180,0.422628
624.186320,0.416110
624.503420,0.417241
624.820480,0.420672
625.137500,0.422798
625.454480,0.421694
625.771420,0.421816
626.088320,0.422131
626.405180,0.428438
626.722000,0.435696
627.038780,0.431078
627.355520,0.434063
627.672220,0.437014
627.988880,0.444168
628.305500,0.434403
628.622080,0.444238
628.938620,0.445566
629.255120,0.456129
629.571580,0.448360
629.888000,0.448911
630.204380,0.453820
630.520720,0.450335
630.837020,0.456368
631.153280,0.458034
631.469500,0.453305
631.785680,0.459614
632.101820,0.466526
632.417920,0.464978
632.733980,0.464886
633.050000,0.472711
633.365980,0.478068
633.681920,0.477625
633.997820,0.476987
634.313680,0.480094
634.629500,0.474491
634.945280,0.479179
635.261020,0.489287
635.576720,0.487962
635.892380,0.489980
636.208000,0.487217
636.523580,0.495177
636.839120,0.493631
637.154620,0.497391
637.470080,0.494978
637.785500,0.500000
638.100880,0.501593
638.416220,0.508772
638.731520,0.501146
639.046780,0.508302
639.362000,0.507454
639.677180,0.509994
639.992320,0.513392
640.307420,0.507446
640.622480,0.515822
640.937500,0.514840
641.252480,0.523038
641.567420,0.527138
641.882320,0.518653
642.197180,0.527513
642.512000,0.531486
642.826780,0.527323
643.141520,0.532926
643.456220,0.525733
643.770880,0.537313
644.085500,0.538010
644.400080,0.540169
644.714620,0.536789
645.029120,0.543729
645.343580,0.547998
645.658000,0.552318
645.972380,0.553302
646.286720,0.550286
646.601020,0.554110
646.915280,0.560735
647.229500,0.556593
647.543680,0.555371
647.857820,0.561795
648.171920,0.564569
648.485980,0.575226
648.800000,0.559107
649.113980,0.564302
649.427920,0.567822
649.741820,0.559769
650.055680,0.574328
650.369500,0.575392
650.683280,0.574639
650.997020,0.570957
651.310720,0.569620
651.624380,0.571978
651.938000,0.580055
652.251580,0.579460
652.565120,0.578815
652.878620,0.592342
653.192080,0.589326
653.505500,0.591865
653.818880,0.597384
654.132220,0.596696
654.445520,0.591605
654.758780,0.588669
655.072000,0.602865
655.385180,0.592011
655.698320,0.602744
656.011420,0.606191
656.324480,0.611775
656.637500,0.609502
656.950480,0.609806
657.263420,0.618386
657.576320,0.616958
657.889180,0.609850
658.202000,0.616244
658.514780,0.621018
658.827520,0.621248
659.140220,0.617920
659.452880,0.620960
659.765500,0.622517
660.078080,0.613903
660.390620,0.621143
660.703120,0.628781
661.015580,0.628834
661.328000,0.638539
661.640380,0.639018
661.952720,0.630956
662.265020,0.643982
662.577280,0.639631
662.889500,0.643961
663.201680,0.641034
663.513820,0.641042
663.825920,0.639129
664.137980,0.647382
664.450000,0.643862
664.761980,0.647136
665.073920,0.644596
665.385820,0.648887
665.697680,0.652562
666.009500,0.662122
666.321280,0.655070
666.633020,0.656582
666.944720,0.650826
667.256380,0.661507
667.568000,0.654212
667.879580,0.657483
668.191120,0.673077
668.502620,0.664156
668.814080,0.671579
669.125500,0.665070
669.436880,0.667704
669.748220,0.671166
670.059520,0.686275
670.370780,0.675365
670.682000,0.684956
670.993180,0.674066
671.304320,0.671941
671.615420,0.685014
671.926480,0.679915
672.237500,0.674527
672.548480,0.683463
672.859420,0.686204
673.170320,0.694596
673.481180,0.690080
673.792000,0.681933
674.102780,0.688689
674.413520,0.699964
674.724220,0.683848
675.034880,0.697470
675.345500,0.696207
675.656080,0.696189
675.966620,0.697344
676.277120,0.708166
676.587580,0.704713
676.898000,0.706234
677.208380,0.697967
677.518720,0.694019
677.829020,0.704730
678.139280,0.712750
678.449500,0.701448
678.759680,0.717497
679.069820,0.713755
679.379920,0.715579
679.689980,0.714816
680.000000,0.711776
680.309980,0.698589
680.619920,0.720182
680.929820,0.713326
681.239680,0.714180
681.549500,0.711111
681.859280,0.722181
682.169020,0.712048
682.478720,0.722887
682.788380,0.720930
683.098000,0.725505
683.407580,0.727955
683.717120,0.727102
684.026620,0.727786
684.336080,0.723001
684.645500,0.727647
684.954880,0.722705
685.264220,0.734617
685.573520,0.743053
685.882780,0.736862
686.192000,0.734763
686.501180,0.736285
686.810320,0.732513
687.119420,0.738883
687.428480,0.742119
687.737500,0.737529
688.046480,0.736196
688.355420,0.738212
688.664320,0.741393
688.973180,0.745023
689.282000,0.743056
689.590780,0.751150
689.899520,0.729966
690.208220,0.740826
690.516880,0.754486
690.825500,0.740755
691.134080,0.738800
691.442620,0.745808
691.751120,0.747440
692.059580,0.754681
692.368000,0.744794
692.676380,0.758779
692.984720,0.754198
693.293020,0.750000
693.601280,0.755437
693.909500,0.745743
694.217680,0.749810
694.525820,0.750571
694.833920,0.750858
695.141980,0.757038
695.450000,0.745802
695.757980,0.751337
696.065920,0.753786
696.373820,0.755966
696.681680,0.756425
696.989500,0.760710
697.297280,0.760793
697.605020,0.771825
697.912720,0.754035
698.220380,0.768201
698.528000,0.769778
698.835580,0.764125
699.143120,0.754482
699.450620,0.767701
699.758080,0.755294
700.065500,0.763368
700.372880,0.774800
700.680220,0.771041
700.987520,0.771429
701.294780,0.773723
701.602000,0.767829
701.909180,0.769475
702.216320,0.754791
702.523420,0.768350
702.830480,0.771485
703.137500,0.763445
703.444480,0.772387
703.751420,0.773176
704.058320,0.767313
704.365180,0.769716
704.672000,0.769901
704.978780,0.772142
705.285520,0.769562
705.592220,0.769412
705.898880,0.767139
706.205500,0.778951
706.512080,0.766588
706.818620,0.776316
707.125120,0.768077
707.431580,0.767878
707.738000,0.774609
708.044380,0.768429
708.350720,0.768055
708.657020,0.774521
708.963280,0.767857
709.269500,0.781605
709.575680,0.778389
709.881820,0.772406
710.187920,0.778988
710.493980,0.771140
710.800000,0.767735
711.105980,0.766190
711.411920,0.771384
711.717820,0.769591
712.023680,0.766032
712.329500,0.783912
712.635280,0.782558
712.941020,0.776189
713.246720,0.774704
713.552380,0.780220
713.858000,0.767048
714.163580,0.771902
714.469120,0.774131
714.774620,0.779708
715.080080,0.778170
715.385500,0.785771
715.690880,0.773964
715.996220,0.767829
716.301520,0.772332
716.606780,0.773192
716.912000,0.776252
717.217180,0.782522
717.522320,0.768191
717.827420,0.785191
718.132480,0.780811
718.437500,0.780677
718.742480,0.772177
719.047420,0.769417
719.352320,0.772105
719.657180,0.786182
719.962000,0.778329
720.266780,0.773162
720.571520,0.766363
720.876220,0.765139
721.180880,0.758779
721.485500,0.767656
721.790080,0.767728
722.094620,0.768010
722.399120,0.778544
722.703580,0.771539
723.008000,0.774472
723.312380,0.777873
723.616720,0.758181
723.921020,0.765699
724.225280,0.761344
724.529500,0.760946
724.833680,0.782028
725.137820,0.761674
725.441920,0.759251
725.745980,0.765996
726.050000,0.772215
726.353980,0.762956
726.657920,0.752137
726.961820,0.768493
727.265680,0.773463
727.569500,0.775137
727.873280,0.752887
728.177020,0.770152
728.480720,0.756944
728.784380,0.754345
729.088000,0.760716
729.391580,0.767883
729.695120,0.777831
729.998620,0.757648
730.302080,0.764536
730.605500,0.754003
730.908880,0.757962
731.212220,0.761019
731.515520,0.756216
731.818780,0.755340
732.122000,0.762303
732.425180,0.744209
732.728320,0.752107
733.031420,0.749875
733.334480,0.750000
733.637500,0.744456
733.940480,0.757421
734.243420,0.757390
734.546320,0.755187
734.849180,0.747417
735.152000,0.749481
735.454780,0.747417
735.757520,0.753425
736.060220,0.737757
736.362880,0.747899
736.665500,0.733681
736.968080,0.754433
737.270620,0.740338
737.573120,0.748908
737.875580,0.763057
738.178000,0.742515
738.480380,0.750270
738.782720,0.732279
739.085020,0.737335
739.387280,0.733370
739.689500,0.753114
739.991680,0.737226
740.293820,0.739635
740.595920,0.736784
740.897980,0.730096
741.200000,0.720135
741.501980,0.734097
741.803920,0.737613
742.105820,0.722504
742.407680,0.742574
742.709500,0.715341
743.011280,0.715123
743.313020,0.725797
743.614720,0.724318
743.916380,0.720349
744.218000,0.730310
744.519580,0.738527
744.821120,0.743713
745.122620,0.717196
745.424080,0.700120
745.725500,0.714544
746.026880,0.735222
746.328220,0.726264
746.629520,0.708609
746.930780,0.712010
747.232000,0.711220
747.533180,0.720561
747.834320,0.715155
748.135420,0.707272
748.436480,0.704304
748.737500,0.701050
749.038480,0.709835
749.339420,0.717486
749.640320,0.711502
749.941180,0.712055
750.242000,0.693467
750.542780,0.699132
750.843520,0.711083
751.144220,0.703846
751.444880,0.700698
751.745500,0.707143
752.046080,0.715202
752.346620,0.689433
752.647120,0.697583
752.947580,0.684347
753.248000,0.696325
753.548380,0.692258
753.848720,0.706375
754.149020,0.680851
754.449280,0.691399
754.749500,0.698739
755.049680,0.688667
755.349820,0.687125
755.649920,0.684071
755.949980,0.684141
756.250000,0.690993
756.549980,0.672607
756.849920,0.690007
757.149820,0.671324
757.449680,0.666667
757.749500,0.684390
758.049280,0.684642
758.349020,0.671766
758.648720,0.674258
758.948380,0.673540
759.248000,0.674528
759.547580,0.655010
759.847120,0.664369
760.146620,0.684709
760.446080,0.656586
760.745500,0.670629
761.044880,0.659091
761.344220,0.675695
761.643520,0.651130
761.942780,0.658502
762.242000,0.662659
762.541180,0.652817
762.840320,0.650281
763.139420,0.656118
763.438480,0.647300
763.737500,0.657478
764.036480,0.651992
764.335420,0.650670
764.634320,0.648649
764.933180,0.635616
765.232000,0.660652
765.530780,0.649123
765.829520,0.646154
766.128220,0.648573
766.426880,0.644634
766.725500,0.642906
767.024080,0.640604
767.322620,0.643154
767.621120,0.631436
767.919580,0.629352
768.218000,0.645007
768.516380,0.634888
768.814720,0.625514
769.113020,0.636113
769.411280,0.645718
769.709500,0.629229
770.007680,0.620314
770.305820,0.636241
770.603920,0.613208
770.901980,0.639344
771.200000,0.609375
771.497980,0.608579
771.795920,0.619398
772.093820,0.606952
772.391680,0.616348
772.689500,0.631081
772.987280,0.614815
773.285020,0.630895
773.582720,0.620946
773.880380,0.625944
774.178000,0.605317
774.475580,0.602143
774.773120,0.604418
775.070620,0.601082
775.368080,0.603206
775.665500,0.594359
775.962880,0.593062
776.260220,0.606999
776.557520,0.598399
776.854780,0.602434
777.152000,0.598143
777.449180,0.613621
777.746320,0.592742
778.043420,0.598909
778.340480,0.604195
778.637500,0.587559
778.934480,0.587761
779.231420,0.584125
779.528320,0.577154
779.825180,0.569170
780.122000,0.583001
780.418780,0.603967
780.715520,0.570087
781.012220,0.592466
781.308880,0.573360
781.605500,0.577397
781.902080,0.579055
782.198620,0.580998
782.495120,0.581619
782.791580,0.574966
783.088000,0.575569
783.384380,0.574966
783.680720,0.562244
783.977020,0.560220
784.273280,0.566434
784.569500,0.569532
784.865680,0.557719
785.161820,0.560417
785.457920,0.556480
785.753980,0.551291
786.050000,0.560083
786.345980,0.565972
786.641920,0.571131
786.937820,0.559829
787.233680,0.553932
787.529500,0.546463
787.825280,0.558782
788.121020,0.549575
788.416720,0.556810
788.712380,0.545839
789.008000,0.544618
789.303580,0.544876
789.599120,0.552727
789.894620,0.552347
790.190080,0.543147
790.485500,0.529158
790.780880,0.541935
791.076220,0.533911
791.371520,0.541031
791.666780,0.538909
791.962000,0.550331
792.257180,0.538067
792.552320,0.539521
792.847420,0.537118
793.142480,0.528938
793.437500,0.518813
793.732480,0.529627
794.027420,0.537834
794.322320,0.524236
794.617180,0.523031
794.912000,0.527489
795.206780,0.519016
795.501520,0.538403
795.796220,0.512593
796.090880,0.528259
796.385500,0.511244
796.680080,0.506358
796.974620,0.508982
797.269120,0.514762
797.563580,0.509924
797.858000,0.512528
798.152380,0.523589
798.446720,0.511538
798.741020,0.503852
799.035280,0.504658
799.329500,0.501155
799.623680,0.513953
