399.985280,0.310811
400.329500,0.310811
400.673680,0.316456
401.017820,0.426471
401.361920,0.393939
401.705980,0.317073
402.050000,0.272727
402.393980,0.423529
402.737920,0.382022
403.081820,0.371134
403.425680,0.383721
403.769500,0.364583
404.113280,0.356322
404.457020,0.382022
404.800720,0.326087
405.144380,0.393939
405.488000,0.419355
405.831580,0.371134
406.175120,0.393617
406.518620,0.370000
406.862080,0.360825
407.205500,0.343750
407.548880,0.418367
407.892220,0.352941
408.235520,0.361702
408.578780,0.409524
408.922000,0.355769
409.265180,0.414141
409.608320,0.373737
409.951420,0.453608
410.294480,0.431373
410.637500,0.402174
410.980480,0.441176
411.323420,0.408163
411.666320,0.422018
412.009180,0.427273
412.352000,0.346535
412.694780,0.385321
413.037520,0.394495
413.380220,0.414414
413.722880,0.437500
414.065500,0.450450
414.408080,0.380531
414.750620,0.389381
415.093120,0.396694
415.435580,0.378151
415.778000,0.363636
416.120380,0.411765
416.462720,0.373016
416.805020,0.436090
417.147280,0.462687
417.489500,0.414286
417.831680,0.397260
418.173820,0.453901
418.515920,0.447552
418.857980,0.436709
419.200000,0.455128
419.541980,0.390533
419.883920,0.432584
420.225820,0.433526
420.567680,0.413408
420.909500,0.420765
421.251280,0.406250
421.593020,0.418367
421.934720,0.393939
422.276380,0.400000
422.618000,0.421569
422.959580,0.436275
423.301120,0.438356
423.642620,0.395652
423.984080,0.413953
424.325500,0.394619
424.666880,0.405172
425.008220,0.415966
425.349520,0.398305
425.690780,0.411538
426.032000,0.380392
426.373180,0.406639
426.714320,0.417969
427.055420,0.405405
427.396480,0.408240
427.737500,0.383399
428.078480,0.422925
428.419420,0.425703
428.760320,0.390805
429.101180,0.425197
429.442000,0.421456
429.782780,0.438462
430.123520,0.423529
430.464220,0.442804
430.804880,0.429119
431.145500,0.363636
431.486080,0.423221
431.826620,0.445736
432.167120,0.419118
432.507580,0.431159
432.848000,0.424460
433.188380,0.415162
433.528720,0.437736
433.869020,0.421429
434.209280,0.424561
434.549500,0.407666
434.889680,0.420875
435.229820,0.423208
435.569920,0.415225
435.909980,0.417476
436.250000,0.403390
436.589980,0.396285
436.929920,0.441270
437.269820,0.423197
437.609680,0.426036
437.949500,0.424699
438.289280,0.453258
438.629020,0.441860
438.968720,0.427326
439.308380,0.409214
439.648000,0.424658
439.987580,0.436508
440.327120,0.440000
440.666620,0.441558
441.006080,0.450128
441.345500,0.449631
441.684880,0.435407
442.024220,0.429280
442.363520,0.435714
442.702780,0.429545
443.042000,0.433921
443.381180,0.441810
443.720320,0.440605
444.059420,0.443277
444.398480,0.426778
444.737500,0.428279
445.076480,0.428571
445.415420,0.455090
445.754320,0.411642
446.093180,0.412844
446.432000,0.447368
446.770780,0.440228
447.109520,0.439338
447.448220,0.425760
447.786880,0.431127
448.125500,0.436207
448.464080,0.421429
448.802620,0.453901
449.141120,0.439446
449.479580,0.445804
449.818000,0.442341
450.156380,0.436455
450.494720,0.444628
450.833020,0.447552
451.171280,0.436644
451.509500,0.459930
451.847680,0.443508
452.185820,0.444062
452.523920,0.441581
452.861980,0.443508
453.200000,0.440199
453.537980,0.433613
453.875920,0.435294
454.213820,0.431507
454.551680,0.422185
454.889500,0.426644
455.227280,0.435943
455.565020,0.437186
455.902720,0.457571
456.240380,0.427621
456.578000,0.437282
456.915580,0.440415
457.253120,0.434211
457.590620,0.444992
457.928080,0.462963
458.265500,0.449324
458.602880,0.436688
458.940220,0.455161
459.277520,0.432000
459.614780,0.466448
459.952000,0.444099
460.289180,0.476266
460.626320,0.458268
460.963420,0.460420
461.300480,0.461774
461.637500,0.440678
461.974480,0.470948
462.311420,0.463487
462.648320,0.453880
462.985180,0.461980
463.322000,0.455357
463.658780,0.451657
463.995520,0.451169
464.332220,0.451524
464.668880,0.459677
465.005500,0.463807
465.342080,0.444302
465.678620,0.453875
466.015120,0.467012
466.351580,0.472819
466.688000,0.472594
467.024380,0.450790
467.360720,0.460227
467.697020,0.466970
468.033280,0.466667
468.369500,0.456954
468.705680,0.464487
469.041820,0.465625
469.377920,0.466377
469.713980,0.461380
470.050000,0.465700
470.385980,0.466732
470.721920,0.470127
471.057820,0.470760
471.393680,0.460243
471.729500,0.479147
472.065280,0.461538
472.401020,0.455674
472.736720,0.463351
473.072380,0.454219
473.408000,0.456049
473.743580,0.461073
474.079120,0.472868
474.414620,0.471586
474.750080,0.462164
475.085500,0.478618
475.420880,0.464613
475.756220,0.484056
476.091520,0.484228
476.426780,0.476537
476.762000,0.460177
477.097180,0.470400
477.432320,0.460420
477.767420,0.461601
478.102480,0.466142
478.437500,0.469622
478.772480,0.464145
479.107420,0.481692
479.442320,0.478018
479.777180,0.486078
480.112000,0.468413
480.446780,0.466095
480.781520,0.472625
481.116220,0.486661
481.450880,0.472287
481.785500,0.479430
482.120080,0.479624
482.454620,0.486402
482.789120,0.477707
483.123580,0.464174
483.458000,0.484968
483.792380,0.492812
484.126720,0.483398
484.461020,0.480094
484.795280,0.492675
485.129500,0.488698
485.463680,0.482171
485.797820,0.493779
486.131920,0.485845
486.465980,0.492664
486.800000,0.495420
487.133980,0.478097
487.467920,0.487376
487.801820,0.499619
488.135680,0.486732
488.469500,0.484871
488.803280,0.486627
489.137020,0.479121
489.470720,0.487389
489.804380,0.498886
490.138000,0.500742
490.471580,0.504053
490.805120,0.486776
491.138620,0.489694
491.472080,0.500353
491.805500,0.491632
492.138880,0.498263
492.472220,0.485813
492.805520,0.506983
493.138780,0.494142
493.472000,0.488963
493.805180,0.501364
494.138320,0.503669
494.471420,0.489583
494.804480,0.490944
495.137500,0.497433
495.470480,0.492033
495.803420,0.492443
496.136320,0.501880
496.469180,0.497851
496.802000,0.496944
497.134780,0.500303
497.467520,0.513150
497.800220,0.502948
498.132880,0.510288
498.465500,0.505214
498.798080,0.503425
499.130620,0.503650
499.463120,0.504773
499.795580,0.504400
500.128000,0.499728
500.460380,0.501615
500.792720,0.502121
501.125020,0.499737
501.457280,0.500261
501.789500,0.508264
502.121680,0.508554
502.453820,0.501275
502.785920,0.506253
503.117980,0.505888
503.450000,0.520342
503.781980,0.513204
504.113920,0.502134
504.445820,0.508508
504.777680,0.497412
505.109500,0.509615
505.441280,0.520554
505.773020,0.508220
506.104720,0.500236
506.436380,0.513015
506.768000,0.510290
507.099580,0.502975
507.431120,0.503981
507.762620,0.513158
508.094080,0.509116
508.425500,0.503268
508.756880,0.502515
509.088220,0.508280
509.419520,0.515829
509.750780,0.515933
510.082000,0.510261
510.413180,0.510825
510.744320,0.518178
511.075420,0.519248
511.406480,0.514810
511.737500,0.513426
512.068480,0.522556
512.399420,0.516901
512.730320,0.504388
513.061180,0.525214
513.392000,0.520587
513.722780,0.530259
514.053520,0.522760
514.384220,0.519981
514.714880,0.519866
515.045500,0.514847
515.376080,0.519613
515.706620,0.522650
516.037120,0.525000
516.367580,0.520946
516.698000,0.513235
517.028380,0.516882
517.358720,0.519506
517.689020,0.516815
518.019280,0.526844
518.349500,0.533198
518.679680,0.527511
519.009820,0.524291
519.339920,0.527054
519.669980,0.529382
520.000000,0.524198
520.329980,0.538103
520.659920,0.528630
520.989820,0.524768
521.319680,0.532407
521.649500,0.528021
521.979280,0.531837
522.309020,0.528008
522.638720,0.522785
522.968380,0.527404
523.298000,0.529228
523.627580,0.530781
523.957120,0.532468
524.286620,0.534132
524.616080,0.535160
524.945500,0.533333
525.274880,0.530528
525.604220,0.522257
525.933520,0.535639
526.262780,0.534719
526.592000,0.536276
526.921180,0.528695
527.250320,0.538813
527.579420,0.537140
527.908480,0.542097
528.237500,0.543694
528.566480,0.546906
528.895420,0.536225
529.224320,0.531947
529.553180,0.535904
529.882000,0.544526
530.210780,0.543919
530.539520,0.541227
530.868220,0.549067
531.196880,0.532728
531.525500,0.550121
531.854080,0.535647
532.182620,0.531994
532.511120,0.548492
532.839580,0.549456
533.168000,0.543300
533.496380,0.544749
533.824720,0.544190
534.153020,0.549710
534.481280,0.538326
534.809500,0.553210
535.137680,0.540365
535.465820,0.543814
535.793920,0.537225
536.121980,0.548049
536.450000,0.553066
536.777980,0.558023
537.105920,0.549606
537.433820,0.550327
537.761680,0.563673
538.089500,0.555645
538.417280,0.545961
538.745020,0.552298
539.072720,0.549395
539.400380,0.552059
539.728000,0.557170
540.055580,0.550936
540.383120,0.548771
540.710620,0.553199
541.038080,0.550719
541.365500,0.552941
541.692880,0.554869
542.020220,0.551277
542.347520,0.560302
542.674780,0.555046
543.002000,0.544437
543.329180,0.557348
543.656320,0.566456
543.983420,0.546325
544.310480,0.559633
544.637500,0.560560
544.964480,0.552153
545.291420,0.565304
545.618320,0.558765
545.945180,0.552736
546.272000,0.553735
546.598780,0.553589
546.925520,0.562150
547.252220,0.570485
547.578880,0.559791
547.905500,0.556863
548.232080,0.557180
548.558620,0.552555
548.885120,0.558391
549.211580,0.551913
549.538000,0.563878
549.864380,0.561415
550.190720,0.564740
550.517020,0.563233
550.843280,0.564169
551.169500,0.555344
551.495680,0.565046
551.821820,0.562051
552.147920,0.559532
552.473980,0.563385
552.800000,0.553630
553.125980,0.562868
553.451920,0.561712
553.777820,0.561959
554.103680,0.566903
554.429500,0.567459
554.755280,0.563084
555.081020,0.562500
555.406720,0.569252
555.732380,0.562860
556.058000,0.563136
556.383580,0.559397
556.709120,0.570296
557.034620,0.565622
557.360080,0.569948
557.685500,0.572960
558.010880,0.570884
558.336220,0.563093
558.661520,0.568238
558.986780,0.566619
559.312000,0.569088
559.637180,0.573429
559.962320,0.568174
560.287420,0.568054
560.612480,0.566918
560.937500,0.581498
561.262480,0.569648
561.587420,0.564744
561.912320,0.571481
562.237180,0.566617
562.562000,0.577254
562.886780,0.576737
563.211520,0.564829
563.536220,0.571058
563.860880,0.579404
564.185500,0.569606
564.510080,0.569601
564.834620,0.567920
565.159120,0.569173
565.483580,0.568225
565.808000,0.568672
566.132380,0.571429
566.456720,0.577475
566.781020,0.569767
567.105280,0.568998
567.429500,0.583460
567.753680,0.575758
568.077820,0.569772
568.401920,0.580214
568.725980,0.578748
569.050000,0.581749
569.373980,0.572897
569.697920,0.573000
570.021820,0.580150
570.345680,0.577880
570.669500,0.582602
570.993280,0.574382
571.317020,0.563391
571.640720,0.578733
571.964380,0.576466
572.288000,0.577893
572.611580,0.580681
572.935120,0.579125
573.258620,0.579656
573.582080,0.577124
573.905500,0.580417
574.228880,0.581292
574.552220,0.585562
574.875520,0.583768
575.198780,0.573907
575.522000,0.575513
575.845180,0.574140
576.168320,0.580309
576.491420,0.586483
576.814480,0.580470
577.137500,0.585137
577.460480,0.577746
577.783420,0.580564
578.106320,0.593305
578.429180,0.588547
578.752000,0.579715
579.074780,0.584289
579.397520,0.586507
579.720220,0.580759
580.042880,0.591014
580.365500,0.584050
580.688080,0.587517
581.010620,0.587580
581.333120,0.589512
581.655580,0.588079
581.978000,0.595943
582.300380,0.583577
582.622720,0.587673
582.945020,0.583875
583.267280,0.588082
583.589500,0.585233
583.911680,0.591934
584.233820,0.581681
584.555920,0.589032
584.877980,0.594535
585.200000,0.579190
585.521980,0.592524
585.843920,0.588164
586.165820,0.590189
586.487680,0.589828
586.809500,0.597060
587.131280,0.586513
587.453020,0.588095
587.774720,0.587226
588.096380,0.593057
588.418000,0.588528
588.739580,0.601897
589.061120,0.598907
589.382620,0.596562
589.704080,0.589341
590.025500,0.597317
590.346880,0.593030
590.668220,0.591431
590.989520,0.590405
591.310780,0.595139
591.632000,0.596995
591.953180,0.601993
592.274320,0.588043
592.595420,0.589170
592.916480,0.595219
593.237500,0.593102
593.558480,0.597794
593.879420,0.595090
594.200320,0.598982
594.521180,0.598938
594.842000,0.602096
595.162780,0.594284
595.483520,0.592662
595.804220,0.600967
596.124880,0.598721
596.445500,0.588158
596.766080,0.601775
597.086620,0.592357
597.407120,0.596103
597.727580,0.603553
598.048000,0.594287
598.368380,0.595739
598.688720,0.593709
599.009020,0.601380
599.329280,0.599787
599.649500,0.596672
599.969680,0.604167
600.289820,0.603098
600.609920,0.604061
600.929980,0.606093
601.250000,0.597297
601.569980,0.598434
601.889920,0.593692
602.209820,0.600649
602.529680,0.612469
602.849500,0.606656
603.169280,0.597410
603.489020,0.610850
603.808720,0.608338
604.128380,0.606236
604.448000,0.600276
604.767580,0.599162
605.087120,0.595568
605.406620,0.593059
605.726080,0.605931
606.045500,0.593480
606.364880,0.599093
606.684220,0.602513
607.003520,0.598050
607.322780,0.594940
607.642000,0.603389
607.961180,0.603932
608.280320,0.608469
608.599420,0.594728
608.918480,0.597361
609.237500,0.601526
609.556480,0.602249
609.875420,0.602185
610.194320,0.595512
610.513180,0.596922
610.832000,0.602144
611.150780,0.607390
611.469520,0.598492
611.788220,0.600967
612.106880,0.597708
612.425500,0.605055
612.744080,0.607572
613.062620,0.597554
613.381120,0.599330
613.699580,0.605150
614.018000,0.606880
614.336380,0.605490
614.654720,0.607752
614.973020,0.595187
615.291280,0.607685
615.609500,0.614897
615.927680,0.604141
616.245820,0.602350
616.563920,0.598384
616.881980,0.605550
617.200000,0.603421
617.517980,0.599876
617.835920,0.605157
618.153820,0.592477
618.471680,0.594729
618.789500,0.603524
619.107280,0.599687
619.425020,0.601015
619.742720,0.606717
620.060380,0.596992
620.378000,0.607930
620.695580,0.607280
621.013120,0.606929
621.330620,0.608409
621.648080,0.600315
621.965500,0.601945
622.282880,0.603720
622.600220,0.600126
622.917520,0.607435
623.234780,0.617808
623.552000,0.610757
623.869180,0.610148
624.186320,0.606495
624.503420,0.609091
624.820480,0.608545
625.137500,0.609094
625.454480,0.603626
625.771420,0.604981
626.088320,0.605927
626.405180,0.603298
626.722000,0.608532
627.038780,0.601504
627.355520,0.611563
627.672220,0.605599
627.988880,0.610575
628.305500,0.611405
628.622080,0.605638
628.938620,0.610398
629.255120,0.616055
629.571580,0.599142
629.888000,0.598957
630.204380,0.606321
630.520720,0.606338
630.837020,0.609312
631.153280,0.610012
631.469500,0.607035
631.785680,0.608800
632.101820,0.608565
632.417920,0.611028
632.733980,0.603842
633.050000,0.610067
633.365980,0.607587
633.681920,0.610979
633.997820,0.618649
634.313680,0.603657
634.629500,0.608965
634.945280,0.606452
635.261020,0.607573
635.576720,0.613329
635.892380,0.608481
636.208000,0.607786
636.523580,0.614148
636.839120,0.612913
637.154620,0.614493
637.470080,0.608321
637.785500,0.611665
638.100880,0.614828
638.416220,0.614035
638.731520,0.608883
639.046780,0.613458
639.362000,0.612959
639.677180,0.605083
639.992320,0.615450
640.307420,0.608036
640.622480,0.614114
640.937500,0.613870
641.252480,0.613795
641.567420,0.617221
641.882320,0.606069
642.197180,0.620719
642.512000,0.613770
642.826780,0.607490
643.141520,0.617949
643.456220,0.616491
643.770880,0.617745
644.085500,0.625210
644.400080,0.623596
644.714620,0.614270
645.029120,0.608361
645.343580,0.613001
645.658000,0.619761
645.972380,0.617978
646.286720,0.609158
646.601020,0.617492
646.915280,0.614203
647.229500,0.614286
647.543680,0.610605
647.857820,0.611340
648.171920,0.611232
648.485980,0.620992
648.800000,0.613943
649.113980,0.620843
649.427920,0.618031
649.741820,0.612806
650.055680,0.614920
650.369500,0.621637
650.683280,0.610433
650.997020,0.614686
651.310720,0.612548
651.624380,0.609341
651.938000,0.614681
652.251580,0.616198
652.565120,0.611794
652.878620,0.618243
653.192080,0.615449
653.505500,0.616830
653.818880,0.618425
654.132220,0.617488
654.445520,0.605502
654.758780,0.613031
655.072000,0.613754
655.385180,0.609700
655.698320,0.607602
656.011420,0.614789
656.324480,0.613524
656.637500,0.606315
656.950480,0.613329
657.263420,0.618977
657.576320,0.610732
657.889180,0.613388
658.202000,0.613829
658.514780,0.609705
658.827520,0.622149
659.140220,0.617621
659.452880,0.613410
659.765500,0.609874
660.078080,0.601565
660.390620,0.606477
660.703120,0.617782
661.015580,0.612270
661.328000,0.624685
661.640380,0.610749
661.952720,0.610402
662.265020,0.614997
662.577280,0.615140
662.889500,0.611164
663.201680,0.612955
663.513820,0.608877
663.825920,0.608069
664.137980,0.620556
664.450000,0.603261
664.761980,0.613093
665.073920,0.605648
665.385820,0.610602
665.697680,0.616529
666.009500,0.609910
666.321280,0.615308
666.633020,0.604056
666.944720,0.613751
667.256380,0.606326
667.568000,0.604959
667.879580,0.621088
668.191120,0.624313
668.502620,0.611092
668.814080,0.624912
669.125500,0.611016
669.436880,0.612033
669.748220,0.609207
670.059520,0.616597
670.370780,0.619346
670.682000,0.619115
670.993180,0.610289
671.304320,0.605837
671.615420,0.605824
671.926480,0.617459
672.237500,0.613433
672.548480,0.612136
672.859420,0.612223
673.170320,0.607907
673.481180,0.611875
673.792000,0.613054
674.102780,0.606463
674.413520,0.615385
674.724220,0.612341
675.034880,0.615328
675.345500,0.611233
675.656080,0.602541
675.966620,0.608221
676.277120,0.602710
676.587580,0.614875
676.898000,0.605450
677.208380,0.614418
677.518720,0.613421
677.829020,0.610126
678.139280,0.611193
678.449500,0.610100
678.759680,0.614088
679.069820,0.614870
679.379920,0.618634
679.689980,0.607130
680.000000,0.604860
680.309980,0.609874
680.619920,0.607346
680.929820,0.611422
681.239680,0.605982
681.549500,0.606296
681.859280,0.607170
682.169020,0.604252
682.478720,0.607330
682.788380,0.606497
683.098000,0.609948
683.407580,0.610507
683.717120,0.609985
684.026620,0.611822
684.336080,0.602122
684.645500,0.608679
684.954880,0.612014
685.264220,0.609287
685.573520,0.615531
685.882780,0.617952
686.192000,0.608728
686.501180,0.606508
686.810320,0.617602
687.119420,0.616496
687.428480,0.611470
687.737500,0.611282
688.046480,0.610046
688.355420,0.603923
688.664320,0.600995
688.973180,0.609877
689.282000,0.618056
689.590780,0.613497
689.899520,0.603114
690.208220,0.607416
690.516880,0.612829
690.825500,0.608679
691.134080,0.602885
691.442620,0.594893
691.751120,0.609784
692.059580,0.613680
692.368000,0.605452
692.676380,0.613359
692.984720,0.605725
693.293020,0.602204
693.601280,0.613506
693.909500,0.614453
694.217680,0.597106
694.525820,0.616146
694.833920,0.607020
695.141980,0.611647
695.450000,0.607252
695.757980,0.610390
696.065920,0.602718
696.373820,0.610085
696.681680,0.605293
696.989500,0.613277
697.297280,0.603267
697.605020,0.618651
697.912720,0.593774
698.220380,0.606061
698.528000,0.615506
698.835580,0.604504
699.143120,0.598207
699.450620,0.607399
699.758080,0.610196
700.065500,0.606943
700.372880,0.627200
700.680220,0.608696
700.987520,0.611905
701.294780,0.618005
701.602000,0.610143
701.909180,0.606518
702.216320,0.601095
702.523420,0.608919
702.830480,0.609505
703.137500,0.601715
703.444480,0.602761
703.751420,0.616963
704.058320,0.610210
704.365180,0.601735
704.672000,0.606337
704.978780,0.599688
705.285520,0.611111
705.592220,0.606667
705.898880,0.596139
706.205500,0.603678
706.512080,0.605845
706.818620,0.606037
707.125120,0.600385
707.431580,0.603361
707.738000,0.605859
708.044380,0.607873
708.350720,0.602216
708.657020,0.612739
708.963280,0.619565
709.269500,0.599217
709.575680,0.611788
709.881820,0.613994
710.187920,0.612062
710.493980,0.608611
710.800000,0.607170
711.105980,0.589232
711.411920,0.605045
711.717820,0.604678
712.023680,0.599689
712.329500,0.609621
712.635280,0.613178
712.941020,0.601855
713.246720,0.608696
713.552380,0.606750
713.858000,0.601104
714.163580,0.603788
714.469120,0.598281
714.774620,0.607975
715.080080,0.604633
715.385500,0.607114
715.690880,0.601972
715.996220,0.610143
716.301520,0.606324
716.606780,0.602594
716.912000,0.605008
717.217180,0.610535
717.522320,0.603579
717.827420,0.604150
718.132480,0.599759
718.437500,0.601712
718.742480,0.587097
719.047420,0.602751
719.352320,0.617684
719.657180,0.612837
719.962000,0.600496
720.266780,0.599501
720.571520,0.589478
720.876220,0.599427
721.180880,0.599080
721.485500,0.605098
721.790080,0.605520
722.094620,0.613208
722.399120,0.610082
722.703580,0.590656
723.008000,0.604140
723.312380,0.600517
723.616720,0.586910
723.921020,0.600693
724.225280,0.594677
724.529500,0.596322
724.833680,0.611655
725.137820,0.609692
725.441920,0.595185
725.745980,0.600000
726.050000,0.611637
726.353980,0.593511
726.657920,0.604139
726.961820,0.597260
727.265680,0.603791
727.569500,0.596892
727.873280,0.588915
728.177020,0.596499
728.480720,0.598148
728.784380,0.605449
729.088000,0.599623
729.391580,0.598768
729.695120,0.604127
729.998620,0.592734
730.302080,0.597790
730.605500,0.592431
730.908880,0.608525
731.212220,0.601861
731.515520,0.591906
731.818780,0.586408
732.122000,0.597933
732.425180,0.584032
732.728320,0.602380
733.031420,0.596491
733.334480,0.597449
733.637500,0.591734
733.940480,0.602866
734.243420,0.590214
734.546320,0.605809
734.849180,0.592459
735.152000,0.592324
735.454780,0.590393
735.757520,0.591149
736.060220,0.594523
736.362880,0.588235
736.665500,0.582768
736.968080,0.596991
737.270620,0.600435
737.573120,0.582424
737.875580,0.605827
738.178000,0.598802
738.480380,0.604324
738.782720,0.584515
739.085020,0.588106
739.387280,0.598670
739.689500,0.594564
739.991680,0.596856
740.293820,0.593145
740.595920,0.606010
740.897980,0.600791
741.200000,0.596186
741.501980,0.596562
741.803920,0.587838
742.105820,0.585448
742.407680,0.590565
742.709500,0.590341
743.011280,0.584408
743.313020,0.590145
743.614720,0.586767
743.916380,0.582558
744.218000,0.588902
744.519580,0.584541
744.821120,0.596407
745.122620,0.581786
745.424080,0.578726
745.725500,0.593241
746.026880,0.589901
746.328220,0.595561
746.629520,0.572547
746.930780,0.581495
747.232000,0.594114
747.533180,0.596095
747.834320,0.591601
748.135420,0.577999
748.436480,0.577667
748.737500,0.579370
749.038480,0.575443
749.339420,0.597386
749.640320,0.605280
749.941180,0.577764
750.242000,0.582915
750.542780,0.577543
750.843520,0.586163
751.144220,0.590385
751.444880,0.582752
751.745500,0.584416
752.046080,0.593970
752.346620,0.579897
752.647120,0.595689
752.947580,0.578266
753.248000,0.587363
753.548380,0.592062
753.848720,0.589826
754.149020,0.578337
754.449280,0.578464
754.749500,0.586596
755.049680,0.579333
755.349820,0.592395
755.649920,0.576999
755.949980,0.593232
756.250000,0.585799
756.549980,0.570297
756.849920,0.588035
757.149820,0.571524
757.449680,0.580858
757.749500,0.592365
758.049280,0.578840
758.349020,0.570932
758.648720,0.590752
758.948380,0.590378
759.248000,0.578841
759.547580,0.585071
759.847120,0.580979
760.146620,0.579838
760.446080,0.588710
760.745500,0.592308
761.044880,0.582386
761.344220,0.587313
761.643520,0.579802
761.942780,0.594122
762.242000,0.582037
762.541180,0.576056
762.840320,0.567416
763.139420,0.578059
763.438480,0.569378
763.737500,0.580289
764.036480,0.570231
764.335420,0.573747
764.634320,0.575884
764.933180,0.586986
765.232000,0.587786
765.530780,0.578947
765.829520,0.587413
766.128220,0.580376
766.426880,0.596304
766.725500,0.577793
767.024080,0.576132
767.322620,0.576072
767.621120,0.579946
767.919580,0.583618
768.218000,0.575923
768.516380,0.592968
768.814720,0.566529
769.113020,0.598897
769.411280,0.596685
769.709500,0.576455
770.007680,0.575324
770.305820,0.586883
770.603920,0.572102
770.901980,0.577869
771.200000,0.566576
771.497980,0.569035
771.795920,0.574582
772.093820,0.556818
772.391680,0.570204
772.689500,0.578378
772.987280,0.573737
773.285020,0.576213
773.582720,0.583108
773.880380,0.596431
774.178000,0.571915
774.475580,0.571333
774.773120,0.570281
775.070620,0.580122
775.368080,0.574482
775.665500,0.571525
775.962880,0.570380
776.260220,0.578735
776.557520,0.578386
776.854780,0.576741
777.152000,0.559682
777.449180,0.565071
777.746320,0.563172
778.043420,0.568895
778.340480,0.573072
778.637500,0.580798
778.934480,0.572293
779.231420,0.565129
779.528320,0.568470
779.825180,0.559289
780.122000,0.560425
780.418780,0.586183
780.715520,0.584172
781.012220,0.581507
781.308880,0.564571
781.605500,0.573288
781.902080,0.575633
782.198620,0.574846
782.495120,0.580247
782.791580,0.582531
783.088000,0.585231
783.384380,0.581843
783.680720,0.568399
783.977020,0.563661
784.273280,0.572727
784.569500,0.577219
784.865680,0.564673
785.161820,0.559028
785.457920,0.559252
785.753980,0.565248
786.050000,0.564917
786.345980,0.561806
786.641920,0.573213
786.937820,0.584758
787.233680,0.566458
787.529500,0.554092
787.825280,0.578612
788.121020,0.564448
788.416720,0.565279
788.712380,0.564175
789.008000,0.570113
789.303580,0.573145
789.599120,0.578182
789.894620,0.579783
790.190080,0.578680
790.485500,0.560835
790.780880,0.560573
791.076220,0.569986
791.371520,0.568627
791.666780,0.581091
791.962000,0.561352
792.257180,0.568082
792.552320,0.563452
792.847420,0.564047
793.142480,0.570696
793.437500,0.559334
793.732480,0.572787
794.027420,0.555638
794.322320,0.568978
794.617180,0.567608
794.912000,0.563150
795.206780,0.577927
795.501520,0.582510
795.796220,0.561481
796.090880,0.569706
796.385500,0.550975
796.680080,0.565445
796.974620,0.568862
797.269120,0.562453
797.563580,0.563359
797.858000,0.563402
798.152380,0.570766
798.446720,0.567692
798.741020,0.573190
799.035280,0.568323
799.329500,0.557352
799.623680,0.562016
