399.985280,0.445946
400.329500,0.472973
400.673680,0.379747
401.017820,0.426471
401.361920,0.484848
401.705980,0.390244
402.050000,0.454545
402.393980,0.458824
402.737920,0.528090
403.081820,0.453608
403.425680,0.465116
403.769500,0.406250
404.113280,0.425287
404.457020,0.460674
404.800720,0.423913
405.144380,0.464646
405.488000,0.451613
405.831580,0.494845
406.175120,0.414894
406.518620,0.410000
406.862080,0.453608
407.205500,0.427083
407.548880,0.489796
407.892220,0.450980
408.235520,0.404255
408.578780,0.457143
408.922000,0.413462
409.265180,0.494949
409.608320,0.424242
409.951420,0.494845
410.294480,0.480392
410.637500,0.434783
410.980480,0.480392
411.323420,0.448980
411.666320,0.412844
412.009180,0.527273
412.352000,0.415842
412.694780,0.513761
413.037520,0.440367
413.380220,0.531532
413.722880,0.473214
414.065500,0.441441
414.408080,0.469027
414.750620,0.477876
415.093120,0.462810
415.435580,0.495798
415.778000,0.484848
416.120380,0.453782
416.462720,0.468254
416.805020,0.451128
417.147280,0.514925
417.489500,0.507143
417.831680,0.417808
418.173820,0.432624
418.515920,0.503497
418.857980,0.443038
419.200000,0.480769
419.541980,0.467456
419.883920,0.500000
420.225820,0.468208
420.567680,0.463687
420.909500,0.524590
421.251280,0.494792
421.593020,0.505102
421.934720,0.454545
422.276380,0.471795
422.618000,0.504902
422.959580,0.465686
423.301120,0.474886
423.642620,0.452174
423.984080,0.479070
424.325500,0.475336
424.666880,0.456897
425.008220,0.436975
425.349520,0.491525
425.690780,0.430769
426.032000,0.454902
426.373180,0.481328
426.714320,0.480469
427.055420,0.455598
427.396480,0.464419
427.737500,0.466403
428.078480,0.458498
428.419420,0.469880
428.760320,0.482759
429.101180,0.500000
429.442000,0.498084
429.782780,0.480769
430.123520,0.501961
430.464220,0.476015
430.804880,0.517241
431.145500,0.465455
431.486080,0.479401
431.826620,0.476744
432.167120,0.459559
432.507580,0.471014
432.848000,0.492806
433.188380,0.476534
433.528720,0.464151
433.869020,0.485714
434.209280,0.463158
434.549500,0.512195
434.889680,0.481481
435.229820,0.467577
435.569920,0.467128
435.909980,0.469256
436.250000,0.477966
436.589980,0.427245
436.929920,0.457143
437.269820,0.457680
437.609680,0.482249
437.949500,0.509036
438.289280,0.487252
438.629020,0.502907
438.968720,0.511628
439.308380,0.468835
439.648000,0.482192
439.987580,0.505291
440.327120,0.517333
440.666620,0.472727
441.006080,0.483376
441.345500,0.461916
441.684880,0.468900
442.024220,0.481390
442.363520,0.507143
442.702780,0.472727
443.042000,0.482379
443.381180,0.487069
443.720320,0.494600
444.059420,0.476891
444.398480,0.504184
444.737500,0.493852
445.076480,0.474206
445.415420,0.499002
445.754320,0.496881
446.093180,0.466055
446.432000,0.500000
446.770780,0.480076
447.109520,0.509191
447.448220,0.481216
447.786880,0.483005
448.125500,0.486207
448.464080,0.478571
448.802620,0.485816
449.141120,0.486159
449.479580,0.484266
449.818000,0.495697
450.156380,0.489967
450.494720,0.485950
450.833020,0.503497
451.171280,0.477740
451.509500,0.510453
451.847680,0.507589
452.185820,0.487091
452.523920,0.515464
452.861980,0.492411
453.200000,0.470100
453.537980,0.478992
453.875920,0.489076
454.213820,0.486301
454.551680,0.475166
454.889500,0.494098
455.227280,0.496441
455.565020,0.494137
455.902720,0.485857
456.240380,0.479201
456.578000,0.496516
456.915580,0.499136
457.253120,0.488487
457.590620,0.490969
457.928080,0.506734
458.265500,0.513514
458.602880,0.488636
458.940220,0.505922
459.277520,0.494400
459.614780,0.513912
459.952000,0.493789
460.289180,0.487342
460.626320,0.507087
460.963420,0.512116
461.300480,0.509174
461.637500,0.502311
461.974480,0.510703
462.311420,0.511177
462.648320,0.491947
462.985180,0.497848
463.322000,0.501488
463.658780,0.490331
463.995520,0.506190
464.332220,0.512465
464.668880,0.509409
465.005500,0.524129
465.342080,0.501921
465.678620,0.496925
466.015120,0.501940
466.351580,0.500632
466.688000,0.496955
467.024380,0.509113
467.360720,0.503409
467.697020,0.510251
468.033280,0.518889
468.369500,0.519868
468.705680,0.514092
469.041820,0.503125
469.377920,0.507592
469.713980,0.504634
470.050000,0.494686
470.385980,0.504892
470.721920,0.502449
471.057820,0.499025
471.393680,0.491113
471.729500,0.512512
472.065280,0.511628
472.401020,0.502660
472.736720,0.515707
473.072380,0.509874
473.408000,0.511749
473.743580,0.506920
474.079120,0.505599
474.414620,0.512299
474.750080,0.497966
475.085500,0.512336
475.420880,0.504580
475.756220,0.501226
476.091520,0.519182
476.426780,0.516990
476.762000,0.504425
477.097180,0.506400
477.432320,0.512116
477.767420,0.513072
478.102480,0.496063
478.437500,0.509031
478.772480,0.488574
479.107420,0.503662
479.442320,0.517986
479.777180,0.521082
480.112000,0.498459
480.446780,0.507405
480.781520,0.513688
481.116220,0.508488
481.450880,0.498829
481.785500,0.511867
482.120080,0.515674
482.454620,0.501166
482.789120,0.514331
483.123580,0.501558
483.458000,0.517405
483.792380,0.526358
484.126720,0.506564
484.461020,0.512100
484.795280,0.515806
485.129500,0.526111
485.463680,0.507752
485.797820,0.510886
486.131920,0.514155
486.465980,0.524324
486.800000,0.519847
487.133980,0.508308
487.467920,0.519510
487.801820,0.532418
488.135680,0.518575
488.469500,0.517398
488.803280,0.511887
489.137020,0.507692
489.470720,0.517062
489.804380,0.519673
490.138000,0.525964
490.471580,0.532056
490.805120,0.504646
491.138620,0.513149
491.472080,0.524382
491.805500,0.527197
492.138880,0.519110
492.472220,0.521107
492.805520,0.530726
493.138780,0.533425
493.472000,0.521739
493.805180,0.536835
494.138320,0.534356
494.471420,0.522786
494.804480,0.525873
495.137500,0.531451
495.470480,0.522626
495.803420,0.517003
496.136320,0.530702
496.469180,0.511357
496.802000,0.518949
497.134780,0.528805
497.467520,0.544954
497.800220,0.525943
498.132880,0.522634
498.465500,0.534762
498.798080,0.519406
499.130620,0.525547
499.463120,0.535654
499.795580,0.513201
500.128000,0.525341
500.460380,0.525296
500.792720,0.521209
501.125020,0.534419
501.457280,0.525849
501.789500,0.527893
502.121680,0.542250
502.453820,0.530342
502.785920,0.534767
503.117980,0.540726
503.450000,0.536916
503.781980,0.529646
504.113920,0.528212
504.445820,0.528439
504.777680,0.525647
505.109500,0.536058
505.441280,0.530593
505.773020,0.525129
506.104720,0.530382
506.436380,0.536678
506.768000,0.539289
507.099580,0.526316
507.431120,0.531616
507.762620,0.540883
508.094080,0.530082
508.425500,0.546218
508.756880,0.529950
509.088220,0.528979
509.419520,0.538641
509.750780,0.535145
510.082000,0.527519
510.413180,0.532013
510.744320,0.528302
511.075420,0.543538
511.406480,0.537847
511.737500,0.530093
512.068480,0.532425
512.399420,0.531455
512.730320,0.528868
513.061180,0.537583
513.392000,0.536204
513.722780,0.546110
514.053520,0.538093
514.384220,0.533302
514.714880,0.538535
515.045500,0.529215
515.376080,0.543341
515.706620,0.538724
516.037120,0.534804
516.367580,0.541646
516.698000,0.525000
517.028380,0.545680
517.358720,0.542222
517.689020,0.542532
518.019280,0.544907
518.349500,0.545869
518.679680,0.545179
519.009820,0.540992
519.339920,0.533567
519.669980,0.534907
520.000000,0.542537
520.329980,0.550544
520.659920,0.546012
520.989820,0.537668
521.319680,0.540123
521.649500,0.536247
521.979280,0.551148
522.309020,0.548755
522.638720,0.537122
522.968380,0.547053
523.298000,0.534447
523.627580,0.539058
523.957120,0.540260
524.286620,0.534653
524.616080,0.548604
524.945500,0.537984
525.274880,0.556183
525.604220,0.542443
525.933520,0.547170
526.262780,0.535226
526.592000,0.540335
526.921180,0.544439
527.250320,0.551497
527.579420,0.546741
527.908480,0.542590
528.237500,0.545184
528.566480,0.560878
528.895420,0.555939
529.224320,0.546310
529.553180,0.544096
529.882000,0.560097
530.210780,0.540058
530.539520,0.557526
530.868220,0.558640
531.196880,0.546584
531.525500,0.564165
531.854080,0.552064
532.182620,0.538533
532.511120,0.552204
532.839580,0.560345
533.168000,0.552416
533.496380,0.553425
533.824720,0.554957
534.153020,0.554169
534.481280,0.543612
534.809500,0.554529
535.137680,0.551649
535.465820,0.547680
535.793920,0.549492
536.121980,0.554343
536.450000,0.556871
536.777980,0.559698
537.105920,0.559568
537.433820,0.549100
537.761680,0.566939
538.089500,0.557264
538.417280,0.558695
538.745020,0.561014
539.072720,0.555252
539.400380,0.564103
539.728000,0.557553
540.055580,0.561049
540.383120,0.555845
540.710620,0.561756
541.038080,0.559572
541.365500,0.558456
541.692880,0.559593
542.020220,0.564951
542.347520,0.555635
542.674780,0.556810
543.002000,0.560182
543.329180,0.562259
543.656320,0.567862
543.983420,0.557607
544.310480,0.557594
544.637500,0.566701
544.964480,0.561238
545.291420,0.558325
545.618320,0.560425
545.945180,0.557350
546.272000,0.557995
546.598780,0.561455
546.925520,0.569074
547.252220,0.560581
547.578880,0.557185
547.905500,0.561111
548.232080,0.561079
548.558620,0.560039
548.885120,0.558063
549.211580,0.556091
549.538000,0.565824
549.864380,0.560450
550.190720,0.560220
550.517020,0.564211
550.843280,0.571336
551.169500,0.549936
551.495680,0.565046
551.821820,0.566297
552.147920,0.562459
552.473980,0.566019
552.800000,0.565402
553.125980,0.562213
553.451920,0.561712
553.777820,0.568954
554.103680,0.560836
554.429500,0.562437
554.755280,0.563084
555.081020,0.562500
555.406720,0.563156
555.732380,0.556760
556.058000,0.561439
556.383580,0.565902
556.709120,0.554445
557.034620,0.559766
557.360080,0.560276
557.685500,0.564661
558.010880,0.559445
558.336220,0.557118
558.661520,0.571429
558.986780,0.569809
559.312000,0.557692
559.637180,0.561580
559.962320,0.564258
560.287420,0.568759
560.612480,0.567635
560.937500,0.570852
561.262480,0.575147
561.587420,0.565470
561.912320,0.559322
562.237180,0.559215
562.562000,0.574261
562.886780,0.568190
563.211520,0.561848
563.536220,0.561039
563.860880,0.572991
564.185500,0.564353
564.510080,0.564334
564.834620,0.566059
565.159120,0.565789
565.483580,0.563664
565.808000,0.568672
566.132380,0.561731
566.456720,0.569917
566.781020,0.561515
567.105280,0.559924
567.429500,0.566009
567.753680,0.578059
568.077820,0.558562
568.401920,0.569901
568.725980,0.568501
569.050000,0.573764
569.373980,0.560716
569.697920,0.565036
570.021820,0.574157
570.345680,0.573287
570.669500,0.573827
570.993280,0.568845
571.317020,0.556083
571.640720,0.574287
571.964380,0.568300
572.288000,0.570475
572.611580,0.566455
572.935120,0.570894
573.258620,0.574046
573.582080,0.564083
573.905500,0.571854
574.228880,0.580178
574.552220,0.575302
574.875520,0.565525
575.198780,0.570293
575.522000,0.566716
575.845180,0.567335
576.168320,0.564858
576.491420,0.579578
576.814480,0.573237
577.137500,0.575397
577.460480,0.575933
577.783420,0.577706
578.106320,0.584758
578.429180,0.571227
578.752000,0.568600
579.074780,0.571140
579.397520,0.572628
579.720220,0.575290
580.042880,0.574166
580.365500,0.568498
580.688080,0.575305
581.010620,0.579480
581.333120,0.569138
581.655580,0.575425
581.978000,0.585301
582.300380,0.569620
582.622720,0.576467
582.945020,0.572497
583.267280,0.574080
583.589500,0.582343
583.911680,0.580502
584.233820,0.573812
584.555920,0.581784
584.877980,0.581972
585.200000,0.569675
585.521980,0.580476
585.843920,0.571080
586.165820,0.573736
586.487680,0.574782
586.809500,0.581458
587.131280,0.572020
587.453020,0.579762
587.774720,0.584565
588.096380,0.579347
588.418000,0.577700
588.739580,0.580052
589.061120,0.585394
589.382620,0.581948
589.704080,0.573352
590.025500,0.581906
590.346880,0.579539
590.668220,0.585270
590.989520,0.574598
591.310780,0.579122
591.632000,0.580328
591.953180,0.577083
592.274320,0.577669
592.595420,0.580011
592.916480,0.577560
593.237500,0.581784
593.558480,0.576540
593.879420,0.583491
594.200320,0.575409
594.521180,0.583533
594.842000,0.584095
595.162780,0.579861
595.483520,0.580697
595.804220,0.587272
596.124880,0.580602
596.445500,0.578465
596.766080,0.589137
597.086620,0.580945
597.407120,0.583992
597.727580,0.582339
598.048000,0.578683
598.368380,0.581010
598.688720,0.577982
599.009020,0.581741
599.329280,0.587280
599.649500,0.577919
599.969680,0.578526
600.289820,0.584402
600.609920,0.581352
600.929980,0.574025
601.250000,0.578649
601.569980,0.581150
601.889920,0.580059
602.209820,0.575216
602.529680,0.583356
602.849500,0.579105
603.169280,0.588867
603.489020,0.585663
603.808720,0.579265
604.128380,0.585817
604.448000,0.577348
604.767580,0.584637
605.087120,0.572853
605.406620,0.585223
605.726080,0.580553
606.045500,0.571747
606.364880,0.575276
606.684220,0.578527
607.003520,0.581135
607.322780,0.580159
607.642000,0.574957
607.961180,0.572998
608.280320,0.576856
608.599420,0.574160
608.918480,0.584457
609.237500,0.589495
609.556480,0.587748
609.875420,0.575901
610.194320,0.581045
610.513180,0.580349
610.832000,0.580107
611.150780,0.584560
611.469520,0.580090
611.788220,0.586457
612.106880,0.581122
612.425500,0.583130
612.744080,0.592182
613.062620,0.572171
613.381120,0.578306
613.699580,0.581239
614.018000,0.574017
614.336380,0.582048
614.654720,0.578915
614.973020,0.580685
615.291280,0.580105
615.609500,0.589223
615.927680,0.582509
616.245820,0.575139
616.563920,0.577246
616.881980,0.586218
617.200000,0.575428
617.517980,0.576851
617.835920,0.577819
618.153820,0.570096
618.471680,0.574884
618.789500,0.577093
619.107280,0.585603
619.425020,0.588329
619.742720,0.576271
620.060380,0.581322
620.378000,0.584015
620.695580,0.579183
621.013120,0.579528
621.330620,0.583935
621.648080,0.568139
621.965500,0.577792
622.282880,0.580391
622.600220,0.576121
622.917520,0.585066
623.234780,0.586628
623.552000,0.589752
623.869180,0.582414
624.186320,0.578160
624.503420,0.589342
624.820480,0.582784
625.137500,0.582570
625.454480,0.579556
625.771420,0.580391
626.088320,0.586696
626.405180,0.579029
626.722000,0.586888
627.038780,0.577381
627.355520,0.581875
627.672220,0.583204
627.988880,0.583826
628.305500,0.583671
628.622080,0.582404
628.938620,0.579817
629.255120,0.585563
629.571580,0.579528
629.888000,0.580546
630.204380,0.577478
630.520720,0.588665
630.837020,0.580944
631.153280,0.585432
631.469500,0.581261
631.785680,0.583183
632.101820,0.582328
632.417920,0.581222
632.733980,0.576230
633.050000,0.586416
633.365980,0.577356
633.681920,0.574284
633.997820,0.579797
634.313680,0.574167
634.629500,0.582129
634.945280,0.581525
635.261020,0.584092
635.576720,0.580740
635.892380,0.582922
636.208000,0.578152
636.523580,0.581409
636.839120,0.581644
637.154620,0.582609
637.470080,0.576471
637.785500,0.589683
638.100880,0.584709
638.416220,0.582974
638.731520,0.575645
639.046780,0.581124
639.362000,0.581995
639.677180,0.588521
639.992320,0.583874
640.307420,0.580219
640.622480,0.581070
640.937500,0.580305
641.252480,0.592013
641.567420,0.590509
641.882320,0.580457
642.197180,0.591241
642.512000,0.582704
642.826780,0.578363
643.141520,0.584885
643.456220,0.582180
643.770880,0.588447
644.085500,0.583566
644.400080,0.586236
644.714620,0.588071
645.029120,0.583333
645.343580,0.591333
645.658000,0.585068
645.972380,0.593861
646.286720,0.575361
646.601020,0.589261
646.915280,0.582122
647.229500,0.587088
647.543680,0.585750
647.857820,0.583815
648.171920,0.581932
648.485980,0.584818
648.800000,0.577018
649.113980,0.587029
649.427920,0.585576
649.741820,0.574334
650.055680,0.580636
650.369500,0.588845
650.683280,0.579634
650.997020,0.586084
651.310720,0.574849
651.624380,0.576099
651.938000,0.585873
652.251580,0.579460
652.565120,0.568753
652.878620,0.585586
653.192080,0.573034
653.505500,0.578401
653.818880,0.580893
654.132220,0.585873
654.445520,0.578843
654.758780,0.574788
655.072000,0.572206
655.385180,0.576034
655.698320,0.578737
656.011420,0.582975
656.324480,0.589915
656.637500,0.585458
656.950480,0.581033
657.263420,0.574342
657.576320,0.578713
657.889180,0.577411
658.202000,0.584541
658.514780,0.585591
658.827520,0.580432
659.140220,0.582260
659.452880,0.579885
659.765500,0.572848
660.078080,0.570268
660.390620,0.578063
660.703120,0.583562
661.015580,0.576380
661.328000,0.583123
661.640380,0.587760
661.952720,0.581750
662.265020,0.583491
662.577280,0.572837
662.889500,0.576474
663.201680,0.585195
663.513820,0.572210
663.825920,0.578290
664.137980,0.581771
664.450000,0.569373
664.761980,0.575777
665.073920,0.570594
665.385820,0.578861
665.697680,0.583802
666.009500,0.586299
666.321280,0.576872
666.633020,0.576130
666.944720,0.579710
667.256380,0.582100
667.568000,0.578465
667.879580,0.581293
668.191120,0.578297
668.502620,0.577542
668.814080,0.582105
669.125500,0.575094
669.436880,0.585062
669.748220,0.571132
670.059520,0.574580
670.370780,0.575852
670.682000,0.577699
670.993180,0.586328
671.304320,0.571378
671.615420,0.571733
671.926480,0.576295
672.237500,0.565559
672.548480,0.567424
672.859420,0.578270
673.170320,0.580341
673.481180,0.575670
673.792000,0.574829
674.102780,0.566966
674.413520,0.578564
674.724220,0.569873
675.034880,0.576824
675.345500,0.567469
675.656080,0.573866
675.966620,0.573663
676.277120,0.573782
676.587580,0.582842
676.898000,0.578574
677.208380,0.567098
677.518720,0.573669
677.829020,0.577605
678.139280,0.571534
678.449500,0.573710
678.759680,0.573998
679.069820,0.566171
679.379920,0.578272
679.689980,0.570739
680.000000,0.569720
680.309980,0.567929
680.619920,0.577054
680.929820,0.571109
681.239680,0.568316
681.549500,0.567778
681.859280,0.570202
682.169020,0.570683
682.478720,0.579282
682.788380,0.569214
683.098000,0.577412
683.407580,0.580113
683.717120,0.563438
684.026620,0.563253
684.336080,0.570671
684.645500,0.565657
684.954880,0.571968
685.264220,0.572291
685.573520,0.577465
685.882780,0.572305
686.192000,0.565463
686.501180,0.561483
686.810320,0.571099
687.119420,0.577347
687.428480,0.571591
687.737500,0.575595
688.046480,0.572853
688.355420,0.567333
688.664320,0.568095
688.973180,0.573124
689.282000,0.571759
689.590780,0.576687
689.899520,0.559438
690.208220,0.581804
690.516880,0.579229
690.825500,0.565660
691.134080,0.556948
691.442620,0.560976
691.751120,0.565036
692.059580,0.565915
692.368000,0.572132
692.676380,0.572519
692.984720,0.567176
693.293020,0.565729
693.601280,0.566578
693.909500,0.565645
694.217680,0.556359
694.525820,0.573115
694.833920,0.558565
695.141980,0.572696
695.450000,0.572901
695.757980,0.566081
696.065920,0.567767
696.373820,0.567360
696.681680,0.558113
696.989500,0.566577
697.297280,0.558926
697.605020,0.575000
697.912720,0.554189
698.220380,0.552538
698.528000,0.560918
698.835580,0.563809
699.143120,0.560016
699.450620,0.570804
699.758080,0.557647
700.065500,0.558659
700.372880,0.574800
700.680220,0.560830
700.987520,0.570238
701.294780,0.577453
701.602000,0.566561
701.909180,0.580684
702.216320,0.561205
702.523420,0.565904
702.830480,0.569901
703.137500,0.545986
703.444480,0.570809
703.751420,0.566469
704.058320,0.568658
704.365180,0.557571
704.672000,0.568317
704.978780,0.565743
705.285520,0.557903
705.592220,0.559608
705.898880,0.562648
706.205500,0.569249
706.512080,0.565956
706.818620,0.560372
707.125120,0.562692
707.431580,0.559594
707.738000,0.558203
708.044380,0.560787
708.350720,0.556362
708.657020,0.565064
708.963280,0.565217
709.269500,0.559295
709.575680,0.567387
709.881820,0.562893
710.187920,0.562257
710.493980,0.553530
710.800000,0.559497
711.105980,0.549322
711.411920,0.560899
711.717820,0.560624
712.023680,0.562379
712.329500,0.570189
712.635280,0.565116
712.941020,0.560108
713.246720,0.568379
713.552380,0.561224
713.858000,0.554986
714.163580,0.548934
714.469120,0.554513
714.774620,0.555863
715.080080,0.560660
715.385500,0.560751
715.690880,0.558185
715.996220,0.558241
716.301520,0.566403
716.606780,0.554638
716.912000,0.563813
717.217180,0.565443
717.522320,0.558648
717.827420,0.557771
718.132480,0.561622
718.437500,0.566653
718.742480,0.562097
719.047420,0.557848
719.352320,0.567455
719.657180,0.559280
719.962000,0.555004
720.266780,0.559202
720.571520,0.554681
720.876220,0.557283
721.180880,0.562291
721.485500,0.548684
721.790080,0.562208
722.094620,0.564322
722.399120,0.560103
722.703580,0.553793
723.008000,0.554549
723.312380,0.556177
723.616720,0.549511
723.921020,0.550022
724.225280,0.551047
724.529500,0.556042
724.833680,0.556050
725.137820,0.548458
725.441920,0.552831
725.745980,0.550336
726.050000,0.548038
726.353980,0.556557
726.657920,0.551057
726.961820,0.557991
727.265680,0.557097
727.569500,0.548446
727.873280,0.554734
728.177020,0.555044
728.480720,0.545833
728.784380,0.556130
729.088000,0.544041
729.391580,0.551871
729.695120,0.564299
729.998620,0.558795
730.302080,0.548294
730.605500,0.556041
730.908880,0.550220
731.212220,0.557297
731.515520,0.556802
731.818780,0.535437
732.122000,0.551673
732.425180,0.541153
732.728320,0.546852
733.031420,0.543860
733.334480,0.550000
733.637500,0.549899
733.940480,0.546059
734.243420,0.547401
734.546320,0.550830
734.849180,0.546488
735.152000,0.547199
735.454780,0.535640
735.757520,0.550053
736.060220,0.542391
736.362880,0.543067
736.665500,0.537859
736.968080,0.548630
737.270620,0.553076
737.573120,0.546943
737.875580,0.556899
738.178000,0.550354
738.480380,0.544865
738.782720,0.546892
739.085020,0.542401
739.387280,0.545455
739.689500,0.552095
739.991680,0.549130
740.293820,0.539525
740.595920,0.543127
740.897980,0.543196
741.200000,0.551879
741.501980,0.551289
741.803920,0.534347
742.105820,0.540891
742.407680,0.548049
742.709500,0.536932
743.011280,0.533998
743.313020,0.554203
743.614720,0.531631
743.916380,0.543023
744.218000,0.548926
744.519580,0.542271
744.821120,0.546108
745.122620,0.541043
745.424080,0.534856
745.725500,0.533494
746.026880,0.547414
746.328220,0.555487
746.629520,0.526791
746.930780,0.539828
747.232000,0.529736
747.533180,0.539353
747.834320,0.539257
748.135420,0.539466
748.436480,0.546475
748.737500,0.528721
749.038480,0.532682
749.339420,0.551338
749.640320,0.539283
749.941180,0.534666
750.242000,0.539573
750.542780,0.524194
750.843520,0.537476
751.144220,0.526923
751.444880,0.532657
751.745500,0.545455
752.046080,0.548428
752.346620,0.528351
752.647120,0.535598
752.947580,0.525873
753.248000,0.540941
753.548380,0.534157
753.848720,0.536381
754.149020,0.527402
754.449280,0.533815
754.749500,0.532183
755.049680,0.538667
755.349820,0.534356
755.649920,0.529412
755.949980,0.532183
756.250000,0.533202
756.549980,0.520132
756.849920,0.530931
757.149820,0.527611
757.449680,0.518152
757.749500,0.535106
758.049280,0.525597
758.349020,0.528512
758.648720,0.540373
758.948380,0.526460
759.248000,0.539757
759.547580,0.539341
759.847120,0.532047
760.146620,0.538566
760.446080,0.536290
760.745500,0.527273
761.044880,0.544744
761.344220,0.524590
761.643520,0.534605
761.942780,0.531840
762.242000,0.536068
762.541180,0.534507
762.840320,0.523174
763.139420,0.518987
763.438480,0.520848
763.737500,0.528601
764.036480,0.535989
764.335420,0.520113
764.634320,0.529453
764.933180,0.521918
765.232000,0.523942
765.530780,0.525614
765.829520,0.539860
766.128220,0.536534
766.426880,0.529495
766.725500,0.533927
767.024080,0.513032
767.322620,0.535270
767.621120,0.530488
767.919580,0.542662
768.218000,0.538304
768.516380,0.534145
768.814720,0.524005
769.113020,0.533425
769.411280,0.536602
769.709500,0.533153
770.007680,0.526926
770.305820,0.519270
770.603920,0.526954
770.901980,0.531421
771.200000,0.521739
771.497980,0.522118
771.795920,0.527759
772.093820,0.522727
772.391680,0.521424
772.689500,0.526351
772.987280,0.529966
773.285020,0.524265
773.582720,0.521622
773.880380,0.526424
774.178000,0.531697
774.475580,0.537173
774.773120,0.524096
775.070620,0.539554
775.368080,0.523714
775.665500,0.513768
775.962880,0.526351
776.260220,0.528937
776.557520,0.529019
776.854780,0.517241
777.152000,0.519231
777.449180,0.534053
777.746320,0.522177
778.043420,0.522510
778.340480,0.523681
778.637500,0.530088
778.934480,0.523201
779.231420,0.521031
779.528320,0.523046
779.825180,0.512516
780.122000,0.521912
780.418780,0.524624
780.715520,0.512408
781.012220,0.526712
781.308880,0.522650
781.605500,0.527397
781.902080,0.526352
782.198620,0.526999
782.495120,0.519204
782.791580,0.530261
783.088000,0.514148
783.384380,0.524072
783.680720,0.525308
783.977020,0.517550
784.273280,0.518881
784.569500,0.525507
784.865680,0.516690
785.161820,0.523611
785.457920,0.512821
785.753980,0.517795
786.050000,0.520028
786.345980,0.512500
786.641920,0.508675
786.937820,0.534900
787.233680,0.512178
787.529500,0.509709
787.825280,0.510623
788.121020,0.519830
788.416720,0.517996
788.712380,0.507757
789.008000,0.514873
789.303580,0.516608
789.599120,0.520727
789.894620,0.520578
790.190080,0.518492
790.485500,0.523398
790.780880,0.507527
791.076220,0.509380
791.371520,0.511256
791.666780,0.528727
791.962000,0.522410
792.257180,0.518302
792.552320,0.517041
792.847420,0.522562
793.142480,0.517949
793.437500,0.508683
793.732480,0.516459
794.027420,0.516320
794.322320,0.520507
794.617180,0.508915
794.912000,0.520059
795.206780,0.507084
795.501520,0.526996
795.796220,0.513333
796.090880,0.514695
796.385500,0.506747
796.680080,0.507853
796.974620,0.512725
797.269120,0.517790
797.563580,0.509160
797.858000,0.516325
798.152380,0.515855
798.446720,0.520769
798.741020,0.508475
799.035280,0.513199
799.329500,0.515012
799.623680,0.527907
