399.985280,0.418919
400.329500,0.459459
400.673680,0.417722
401.017820,0.470588
401.361920,0.530303
401.705980,0.378049
402.050000,0.376623
402.393980,0.482353
402.737920,0.460674
403.081820,0.432990
403.425680,0.523256
403.769500,0.479167
404.113280,0.494253
404.457020,0.505618
404.800720,0.402174
405.144380,0.525253
405.488000,0.483871
405.831580,0.432990
406.175120,0.521277
406.518620,0.500000
406.862080,0.453608
407.205500,0.479167
407.548880,0.438776
407.892220,0.441176
408.235520,0.531915
408.578780,0.428571
408.922000,0.461538
409.265180,0.515152
409.608320,0.484848
409.951420,0.567010
410.294480,0.490196
410.637500,0.532609
410.980480,0.470588
411.323420,0.469388
411.666320,0.422018
412.009180,0.463636
412.352000,0.465347
412.694780,0.513761
413.037520,0.458716
413.380220,0.486486
413.722880,0.473214
414.065500,0.513514
414.408080,0.486726
414.750620,0.460177
415.093120,0.512397
415.435580,0.521008
415.778000,0.500000
416.120380,0.529412
416.462720,0.515873
416.805020,0.496241
417.147280,0.507463
417.489500,0.500000
417.831680,0.479452
418.173820,0.460993
418.515920,0.538462
418.857980,0.531646
419.200000,0.512821
419.541980,0.497041
419.883920,0.494382
420.225820,0.468208
420.567680,0.474860
420.909500,0.502732
421.251280,0.453125
421.593020,0.489796
421.934720,0.500000
422.276380,0.502564
422.618000,0.509804
422.959580,0.514706
423.301120,0.506849
423.642620,0.491304
423.984080,0.493023
424.325500,0.506726
424.666880,0.487069
425.008220,0.487395
425.349520,0.483051
425.690780,0.450000
426.032000,0.482353
426.373180,0.506224
426.714320,0.468750
427.055420,0.490347
427.396480,0.464419
427.737500,0.462451
428.078480,0.490119
428.419420,0.514056
428.760320,0.478927
429.101180,0.496063
429.442000,0.513410
429.782780,0.480769
430.123520,0.505882
430.464220,0.490775
430.804880,0.532567
431.145500,0.461818
431.486080,0.513109
431.826620,0.507752
432.167120,0.496324
432.507580,0.525362
432.848000,0.500000
433.188380,0.501805
433.528720,0.501887
433.869020,0.510714
434.209280,0.463158
434.549500,0.501742
434.889680,0.501684
435.229820,0.488055
435.569920,0.474048
435.909980,0.475728
436.250000,0.498305
436.589980,0.479876
436.929920,0.504762
437.269820,0.479624
437.609680,0.497041
437.949500,0.509036
438.289280,0.495751
438.629020,0.514535
438.968720,0.502907
439.308380,0.479675
439.648000,0.509589
439.987580,0.502646
440.327120,0.490667
440.666620,0.509091
441.006080,0.491049
441.345500,0.498771
441.684880,0.523923
442.024220,0.491315
442.363520,0.492857
442.702780,0.506818
443.042000,0.511013
443.381180,0.515086
443.720320,0.516199
444.059420,0.500000
444.398480,0.497908
444.737500,0.489754
445.076480,0.492063
445.415420,0.499002
445.754320,0.498960
446.093180,0.508257
446.432000,0.520677
446.770780,0.502846
447.109520,0.514706
447.448220,0.493739
447.786880,0.508050
448.125500,0.493103
448.464080,0.501786
448.802620,0.512411
449.141120,0.505190
449.479580,0.510490
449.818000,0.516351
450.156380,0.498328
450.494720,0.507438
450.833020,0.491259
451.171280,0.491438
451.509500,0.503484
451.847680,0.507589
452.185820,0.500861
452.523920,0.522337
452.861980,0.495784
453.200000,0.498339
453.537980,0.502521
453.875920,0.504202
454.213820,0.491438
454.551680,0.490066
454.889500,0.512648
455.227280,0.494662
455.565020,0.510888
455.902720,0.507488
456.240380,0.514143
456.578000,0.512195
456.915580,0.519862
457.253120,0.495066
457.590620,0.479475
457.928080,0.520202
458.265500,0.515203
458.602880,0.503247
458.940220,0.522843
459.277520,0.500800
459.614780,0.527005
459.952000,0.478261
460.289180,0.515823
460.626320,0.519685
460.963420,0.523425
461.300480,0.513761
461.637500,0.502311
461.974480,0.515291
462.311420,0.508197
462.648320,0.490483
462.985180,0.493544
463.322000,0.511905
463.658780,0.484807
463.995520,0.515818
464.332220,0.519391
464.668880,0.513441
465.005500,0.512064
465.342080,0.507042
465.678620,0.512915
466.015120,0.510996
466.351580,0.519595
466.688000,0.517661
467.024380,0.521264
467.360720,0.506818
467.697020,0.519362
468.033280,0.516667
468.369500,0.512141
468.705680,0.518602
469.041820,0.521875
469.377920,0.517354
469.713980,0.506694
470.050000,0.509179
470.385980,0.505871
470.721920,0.506366
471.057820,0.511696
471.393680,0.498597
471.729500,0.514365
472.065280,0.514311
472.401020,0.516844
472.736720,0.520942
473.072380,0.512567
473.408000,0.527415
473.743580,0.512976
474.079120,0.518519
474.414620,0.519932
474.750080,0.511798
475.085500,0.510691
475.420880,0.523730
475.756220,0.508585
476.091520,0.522592
476.426780,0.522654
476.762000,0.514079
477.097180,0.515200
477.432320,0.522617
477.767420,0.523693
478.102480,0.504724
478.437500,0.524631
478.772480,0.508274
479.107420,0.529699
479.442320,0.515588
479.777180,0.524264
480.112000,0.503852
480.446780,0.508963
480.781520,0.532206
481.116220,0.528698
481.450880,0.519126
481.785500,0.529272
482.120080,0.520376
482.454620,0.530692
482.789120,0.533439
483.123580,0.518692
483.458000,0.520570
483.792380,0.520767
484.126720,0.518919
484.461020,0.512100
484.795280,0.530455
485.129500,0.505846
485.463680,0.514729
485.797820,0.532659
486.131920,0.504973
486.465980,0.519691
486.800000,0.529008
487.133980,0.521148
487.467920,0.529457
487.801820,0.529367
488.135680,0.529947
488.469500,0.519667
488.803280,0.531947
489.137020,0.516484
489.470720,0.528932
489.804380,0.522643
490.138000,0.528932
490.471580,0.530582
490.805120,0.516083
491.138620,0.516702
491.472080,0.539929
491.805500,0.529986
492.138880,0.530924
492.472220,0.539792
492.805520,0.530028
493.138780,0.526533
493.472000,0.517726
493.805180,0.534789
494.138320,0.527685
494.471420,0.521484
494.804480,0.532342
495.137500,0.525674
495.470480,0.527087
495.803420,0.523300
496.136320,0.525063
496.469180,0.516882
496.802000,0.530562
497.134780,0.528805
497.467520,0.544954
497.800220,0.525354
498.132880,0.536743
498.465500,0.535342
498.798080,0.525685
499.130620,0.525547
499.463120,0.536216
499.795580,0.523102
500.128000,0.527520
500.460380,0.525296
500.792720,0.536585
501.125020,0.526012
501.457280,0.532637
501.789500,0.534091
502.121680,0.536547
502.453820,0.531871
502.785920,0.528264
503.117980,0.526987
503.450000,0.543446
503.781980,0.536124
504.113920,0.529161
504.445820,0.525523
504.777680,0.530353
505.109500,0.532692
505.441280,0.539675
505.773020,0.526538
506.104720,0.529911
506.436380,0.535258
506.768000,0.539757
507.099580,0.527231
507.431120,0.523185
507.762620,0.523496
508.094080,0.533728
508.425500,0.540149
508.756880,0.541838
509.088220,0.533579
509.419520,0.542831
509.750780,0.544517
510.082000,0.531716
510.413180,0.536158
510.744320,0.530143
511.075420,0.528873
511.406480,0.537847
511.737500,0.527315
512.068480,0.531015
512.399420,0.545540
512.730320,0.523326
513.061180,0.539010
513.392000,0.534785
513.722780,0.543228
514.053520,0.533781
514.384220,0.527593
514.714880,0.535663
515.045500,0.531130
515.376080,0.541889
515.706620,0.540185
516.037120,0.552451
516.367580,0.536225
516.698000,0.532353
517.028380,0.537736
517.358720,0.536296
517.689020,0.539070
518.019280,0.532865
518.349500,0.548910
518.679680,0.540131
519.009820,0.534413
519.339920,0.541583
519.669980,0.534405
520.000000,0.535914
520.329980,0.536547
520.659920,0.535787
520.989820,0.549020
521.319680,0.539095
521.649500,0.535733
521.979280,0.544363
522.309020,0.539938
522.638720,0.533026
522.968380,0.544467
523.298000,0.545929
523.627580,0.536472
523.957120,0.542338
524.286620,0.535696
524.616080,0.538780
524.945500,0.539535
525.274880,0.543869
525.604220,0.545549
525.933520,0.547170
526.262780,0.529650
526.592000,0.537798
526.921180,0.538852
527.250320,0.539827
527.579420,0.550278
527.908480,0.541605
528.237500,0.549652
528.566480,0.549401
528.895420,0.545096
529.224320,0.549282
529.553180,0.549880
529.882000,0.551338
530.210780,0.541023
530.539520,0.538351
530.868220,0.545716
531.196880,0.553273
531.525500,0.560775
531.854080,0.548311
532.182620,0.538533
532.511120,0.545244
532.839580,0.549456
533.168000,0.555150
533.496380,0.548858
533.824720,0.553611
534.153020,0.545252
534.481280,0.552423
534.809500,0.555409
535.137680,0.552083
535.465820,0.538660
535.793920,0.554146
536.121980,0.548049
536.450000,0.552643
536.777980,0.558442
537.105920,0.558738
537.433820,0.551964
537.761680,0.554694
538.089500,0.565358
538.417280,0.550736
538.745020,0.556260
539.072720,0.547052
539.400380,0.552448
539.728000,0.547228
540.055580,0.546816
540.383120,0.544676
540.710620,0.549479
541.038080,0.554039
541.365500,0.557721
541.692880,0.558140
542.020220,0.554156
542.347520,0.558866
542.674780,0.554340
543.002000,0.551784
543.329180,0.554893
543.656320,0.557314
543.983420,0.550769
544.310480,0.552837
544.637500,0.565677
544.964480,0.557873
545.291420,0.555334
545.618320,0.558433
545.945180,0.558668
546.272000,0.549476
546.598780,0.557850
546.925520,0.556545
547.252220,0.556289
547.578880,0.552623
547.905500,0.554902
548.232080,0.559779
548.558620,0.557436
548.885120,0.554465
549.211580,0.555127
549.538000,0.552853
549.864380,0.557878
550.190720,0.556668
550.517020,0.565189
550.843280,0.559283
551.169500,0.546120
551.495680,0.556833
551.821820,0.555519
552.147920,0.560182
552.473980,0.556470
552.800000,0.547417
553.125980,0.558939
553.451920,0.557067
553.777820,0.561959
554.103680,0.562184
554.429500,0.548711
554.755280,0.559079
555.081020,0.553142
555.406720,0.552658
555.732380,0.554727
556.058000,0.560760
556.383580,0.554262
556.709120,0.557891
557.034620,0.557010
557.360080,0.554750
557.685500,0.551176
558.010880,0.553206
558.336220,0.546924
558.661520,0.555122
558.986780,0.557760
559.312000,0.558405
559.637180,0.556553
559.962320,0.555002
560.287420,0.557475
560.612480,0.551848
560.937500,0.558737
561.262480,0.562683
561.587420,0.548422
561.912320,0.549005
562.237180,0.559585
562.562000,0.557800
562.886780,0.559643
563.211520,0.555142
563.536220,0.556957
563.860880,0.558657
564.185500,0.555347
564.510080,0.559819
564.834620,0.563082
565.159120,0.554135
565.483580,0.558343
565.808000,0.555808
566.132380,0.552033
566.456720,0.556689
566.781020,0.561515
567.105280,0.555009
567.429500,0.557284
567.753680,0.565401
568.077820,0.552764
568.401920,0.563025
568.725980,0.561670
569.050000,0.564259
569.373980,0.548534
569.697920,0.557831
570.021820,0.562172
570.345680,0.563337
570.669500,0.554750
570.993280,0.559616
571.317020,0.556814
571.640720,0.561690
571.964380,0.554937
572.288000,0.558976
572.611580,0.557844
572.935120,0.558174
573.258620,0.568063
573.582080,0.559240
573.905500,0.565153
574.228880,0.561990
574.552220,0.562111
574.875520,0.555101
575.198780,0.554030
575.522000,0.557918
575.845180,0.560530
576.168320,0.555156
576.491420,0.565044
576.814480,0.556239
577.137500,0.572150
577.460480,0.566510
577.783420,0.558771
578.106320,0.564815
578.429180,0.564510
578.752000,0.559569
579.074780,0.565745
579.397520,0.556165
579.720220,0.563063
580.042880,0.570202
580.365500,0.557247
580.688080,0.571235
581.010620,0.574755
581.333120,0.567802
581.655580,0.563437
581.978000,0.567343
582.300380,0.555339
582.622720,0.570534
582.945020,0.563069
583.267280,0.563660
583.589500,0.565971
583.911680,0.559225
584.233820,0.563110
584.555920,0.563820
584.877980,0.566897
585.200000,0.552793
585.521980,0.568736
585.843920,0.571385
586.165820,0.563681
586.487680,0.562143
586.809500,0.570057
587.131280,0.564922
587.453020,0.564583
587.774720,0.565642
588.096380,0.567678
588.418000,0.570676
588.739580,0.564530
589.061120,0.565842
589.382620,0.571920
589.704080,0.560449
590.025500,0.579909
590.346880,0.566329
590.668220,0.562588
590.989520,0.559346
591.310780,0.560895
591.632000,0.570765
591.953180,0.564628
592.274320,0.563200
592.595420,0.559537
592.916480,0.567509
593.237500,0.563191
593.558480,0.569814
593.879420,0.571891
594.200320,0.572194
594.521180,0.569456
594.842000,0.573885
595.162780,0.562767
595.483520,0.568732
595.804220,0.570086
596.124880,0.569411
596.445500,0.560126
596.766080,0.579188
597.086620,0.565287
597.407120,0.560295
597.727580,0.577300
598.048000,0.569955
598.368380,0.569963
598.688720,0.566972
599.009020,0.568737
599.329280,0.565726
599.649500,0.569466
599.969680,0.569444
600.289820,0.571848
600.609920,0.566925
600.929980,0.567076
601.250000,0.565676
601.569980,0.568458
601.889920,0.569099
602.209820,0.569535
602.529680,0.571821
602.849500,0.562466
603.169280,0.573987
603.489020,0.562137
603.808720,0.564454
604.128380,0.569536
604.448000,0.563812
604.767580,0.566201
605.087120,0.555679
605.406620,0.570949
605.726080,0.573995
606.045500,0.558373
606.364880,0.570456
606.684220,0.569674
607.003520,0.561927
607.322780,0.564810
607.642000,0.567777
607.961180,0.567505
608.280320,0.567285
608.599420,0.559676
608.918480,0.565982
609.237500,0.568369
609.556480,0.565256
609.875420,0.570289
610.194320,0.564511
610.513180,0.567328
610.832000,0.560750
611.150780,0.558126
611.469520,0.569231
611.788220,0.571947
612.106880,0.560917
612.425500,0.569732
612.744080,0.576485
613.062620,0.558410
613.381120,0.561853
613.699580,0.573268
614.018000,0.571867
614.336380,0.571252
614.654720,0.564341
614.973020,0.564641
615.291280,0.560892
615.609500,0.570523
615.927680,0.564895
616.245820,0.562152
616.563920,0.568231
616.881980,0.570627
617.200000,0.568274
617.517980,0.557250
617.835920,0.565704
618.153820,0.556108
618.471680,0.558760
618.789500,0.567023
619.107280,0.563693
619.425020,0.564542
619.742720,0.563089
620.060380,0.560326
620.378000,0.567653
620.695580,0.565134
621.013120,0.565669
621.330620,0.562284
621.648080,0.556151
621.965500,0.567127
622.282880,0.569987
622.600220,0.564435
622.917520,0.570573
623.234780,0.567985
623.552000,0.568746
623.869180,0.566026
624.186320,0.566699
624.503420,0.574608
624.820480,0.562363
625.137500,0.566151
625.454480,0.562051
625.771420,0.565889
626.088320,0.561160
626.405180,0.567517
626.722000,0.565872
627.038780,0.562030
627.355520,0.564375
627.672220,0.567341
627.988880,0.559876
628.305500,0.562169
628.622080,0.565985
628.938620,0.563914
629.255120,0.572806
629.571580,0.559301
629.888000,0.565204
630.204380,0.564590
630.520720,0.567032
630.837020,0.570768
631.153280,0.557554
631.469500,0.569739
631.785680,0.564195
632.101820,0.565440
632.417920,0.564531
632.733980,0.560924
633.050000,0.573378
633.365980,0.563130
633.681920,0.562053
633.997820,0.571130
634.313680,0.565910
634.629500,0.562371
634.945280,0.568622
635.261020,0.566774
635.576720,0.571638
635.892380,0.563172
636.208000,0.568274
636.523580,0.566209
636.839120,0.563405
637.154620,0.567536
637.470080,0.564419
637.785500,0.573271
638.100880,0.570229
638.416220,0.566580
638.731520,0.565903
639.046780,0.573842
639.362000,0.566227
639.677180,0.563963
639.992320,0.568086
640.307420,0.566732
640.622480,0.562588
640.937500,0.560055
641.252480,0.561296
641.567420,0.567207
641.882320,0.564588
642.197180,0.576081
642.512000,0.561713
642.826780,0.559778
643.141520,0.565991
643.456220,0.562258
643.770880,0.566059
644.085500,0.564841
644.400080,0.574438
644.714620,0.569955
645.029120,0.567107
645.343580,0.565003
645.658000,0.565917
645.972380,0.567553
646.286720,0.568275
646.601020,0.567396
646.915280,0.562654
647.229500,0.565385
647.543680,0.556752
647.857820,0.563997
648.171920,0.557786
648.485980,0.562894
648.800000,0.559383
649.113980,0.565965
649.427920,0.565326
649.741820,0.561968
650.055680,0.555952
650.369500,0.569507
650.683280,0.551609
650.997020,0.565457
651.310720,0.557237
651.624380,0.556319
651.938000,0.565651
652.251580,0.562204
652.565120,0.560089
652.878620,0.563908
653.192080,0.565730
653.505500,0.561851
653.818880,0.571794
654.132220,0.568499
654.445520,0.564663
654.758780,0.564306
655.072000,0.561032
655.385180,0.551213
655.698320,0.558731
656.011420,0.560046
656.324480,0.559312
656.637500,0.561124
656.950480,0.559014
657.263420,0.563701
657.576320,0.564186
657.889180,0.565025
658.202000,0.567331
658.514780,0.566835
658.827520,0.563325
659.140220,0.560384
659.452880,0.565992
659.765500,0.555990
660.078080,0.553717
660.390620,0.557898
660.703120,0.561259
661.015580,0.558282
661.328000,0.566751
661.640380,0.565704
661.952720,0.565867
662.265020,0.561437
662.577280,0.564567
662.889500,0.555345
663.201680,0.564773
663.513820,0.550338
663.825920,0.558758
664.137980,0.557854
664.450000,0.549872
664.761980,0.560065
665.073920,0.545602
665.385820,0.563482
665.697680,0.564628
666.009500,0.563352
666.321280,0.559642
666.633020,0.557181
666.944720,0.566229
667.256380,0.563594
667.568000,0.551291
667.879580,0.566667
668.191120,0.557349
668.502620,0.561794
668.814080,0.566316
669.125500,0.558330
669.436880,0.556708
669.748220,0.549671
670.059520,0.554622
670.370780,0.554280
670.682000,0.559646
670.993180,0.556378
671.304320,0.555907
671.615420,0.562145
671.926480,0.550745
672.237500,0.547696
672.548480,0.552520
672.859420,0.557898
673.170320,0.555314
673.481180,0.552136
673.792000,0.545258
674.102780,0.541472
674.413520,0.557419
674.724220,0.550272
675.034880,0.547488
675.345500,0.553975
675.656080,0.540835
675.966620,0.554383
676.277120,0.555474
676.587580,0.551178
676.898000,0.548712
677.208380,0.551571
677.518720,0.545587
677.829020,0.555432
678.139280,0.546701
678.449500,0.557000
678.759680,0.552641
679.069820,0.547955
679.379920,0.552999
679.689980,0.548459
680.000000,0.555888
680.309980,0.548627
680.619920,0.547141
680.929820,0.549832
681.239680,0.546529
681.549500,0.550000
681.859280,0.557506
682.169020,0.558747
682.478720,0.559088
682.788380,0.549280
683.098000,0.548242
683.407580,0.549719
683.717120,0.544670
684.026620,0.551581
684.336080,0.547177
684.645500,0.545080
684.954880,0.548168
685.264220,0.555304
685.573520,0.553864
685.882780,0.547756
686.192000,0.548157
686.501180,0.547862
686.810320,0.550730
687.119420,0.553402
687.428480,0.548424
687.737500,0.551036
688.046480,0.549463
688.355420,0.547341
688.664320,0.540933
688.973180,0.551685
689.282000,0.555170
689.590780,0.548696
689.899520,0.539689
690.208220,0.555046
690.516880,0.553646
690.825500,0.555094
691.134080,0.551253
691.442620,0.543826
691.751120,0.541524
692.059580,0.546427
692.368000,0.539947
692.676380,0.547328
692.984720,0.541603
693.293020,0.553191
693.601280,0.544067
693.909500,0.540295
694.217680,0.547220
694.525820,0.546839
694.833920,0.543686
695.141980,0.541072
695.450000,0.548092
695.757980,0.543545
696.065920,0.542136
696.373820,0.546189
696.681680,0.540468
696.989500,0.545735
697.297280,0.545313
697.605020,0.548810
697.912720,0.540354
698.220380,0.539945
698.528000,0.546677
698.835580,0.538917
699.143120,0.537023
699.450620,0.546539
699.758080,0.529804
700.065500,0.545092
700.372880,0.552400
700.680220,0.541284
700.987520,0.549206
701.294780,0.546229
701.602000,0.536450
701.909180,0.544913
702.216320,0.546343
702.523420,0.548540
702.830480,0.552475
703.137500,0.539361
703.444480,0.546746
703.751420,0.543195
704.058320,0.544123
704.365180,0.545347
704.672000,0.543762
704.978780,0.543114
705.285520,0.542254
705.592220,0.539608
705.898880,0.543341
706.205500,0.548122
706.512080,0.542259
706.818620,0.543731
707.125120,0.535000
707.431580,0.542009
707.738000,0.543750
708.044380,0.539560
708.350720,0.540695
708.657020,0.551387
708.963280,0.545031
709.269500,0.535029
709.575680,0.540275
709.881820,0.542846
710.187920,0.540078
710.493980,0.540341
710.800000,0.537376
711.105980,0.535392
711.411920,0.542767
711.717820,0.539961
712.023680,0.532841
712.329500,0.541798
712.635280,0.540698
712.941020,0.533050
713.246720,0.543083
713.552380,0.533752
713.858000,0.541585
714.163580,0.538279
714.469120,0.534975
714.774620,0.536123
715.080080,0.536317
715.385500,0.543165
715.690880,0.542406
715.996220,0.545166
716.301520,0.537154
716.606780,0.537343
716.912000,0.539580
717.217180,0.538308
717.522320,0.530020
717.827420,0.538242
718.132480,0.534725
718.437500,0.535671
718.742480,0.533065
719.047420,0.524676
719.352320,0.535907
719.657180,0.545380
719.962000,0.535980
720.266780,0.519734
720.571520,0.527341
720.876220,0.527414
721.180880,0.534699
721.485500,0.532386
721.790080,0.525265
722.094620,0.542024
722.399120,0.538561
722.703580,0.528504
723.008000,0.532126
723.312380,0.530779
723.616720,0.527412
723.921020,0.527501
724.225280,0.528360
724.529500,0.527583
724.833680,0.536032
725.137820,0.522026
725.441920,0.525635
725.745980,0.537360
726.050000,0.535408
726.353980,0.528166
726.657920,0.522267
726.961820,0.525114
727.265680,0.538604
727.569500,0.531079
727.873280,0.525635
728.177020,0.534777
728.480720,0.530556
728.784380,0.529357
729.088000,0.521903
729.391580,0.534818
729.695120,0.526392
729.998620,0.528203
730.302080,0.528111
730.605500,0.534207
730.908880,0.525723
731.212220,0.532811
731.515520,0.520234
731.818780,0.520874
732.122000,0.525098
732.425180,0.519961
732.728320,0.524541
733.031420,0.525313
733.334480,0.528061
733.637500,0.514113
733.940480,0.528659
734.243420,0.528033
734.546320,0.536826
734.849180,0.519112
735.152000,0.524378
735.454780,0.519628
735.757520,0.519494
736.060220,0.528699
736.362880,0.515756
736.665500,0.520104
736.968080,0.521225
737.270620,0.529668
737.573120,0.523472
737.875580,0.532710
738.178000,0.519325
738.480380,0.524324
738.782720,0.521265
739.085020,0.514868
739.387280,0.527716
739.689500,0.524915
739.991680,0.523302
740.293820,0.524599
740.595920,0.534224
740.897980,0.526821
741.200000,0.522154
741.501980,0.518052
741.803920,0.521959
742.105820,0.523407
742.407680,0.517764
742.709500,0.502841
743.011280,0.517585
743.313020,0.522319
743.614720,0.513059
743.916380,0.516279
744.218000,0.519093
744.519580,0.524758
744.821120,0.518563
745.122620,0.509287
745.424080,0.510817
745.725500,0.508751
746.026880,0.519704
746.328220,0.515413
746.629520,0.511138
746.930780,0.506127
747.232000,0.518700
747.533180,0.521049
747.834320,0.510043
748.135420,0.517713
748.436480,0.512789
748.737500,0.518839
749.038480,0.505803
749.339420,0.518357
749.640320,0.516028
749.941180,0.513429
750.242000,0.515704
750.542780,0.515509
750.843520,0.527226
751.144220,0.516667
751.444880,0.528218
751.745500,0.511688
752.046080,0.522771
752.346620,0.505155
752.647120,0.508818
752.947580,0.506468
753.248000,0.504836
753.548380,0.513338
753.848720,0.520927
754.149020,0.501612
754.449280,0.516087
754.749500,0.513603
755.049680,0.514000
755.349820,0.508339
755.649920,0.506940
755.949980,0.521566
756.250000,0.517423
756.549980,0.501650
756.849920,0.511217
757.149820,0.503659
757.449680,0.509571
757.749500,0.509884
758.049280,0.511945
758.349020,0.506259
758.648720,0.516218
758.948380,0.505842
759.248000,0.511456
759.547580,0.518494
759.847120,0.509304
760.146620,0.506766
760.446080,0.508737
760.745500,0.517483
761.044880,0.518466
761.344220,0.505346
761.643520,0.508475
761.942780,0.505248
762.242000,0.503536
762.541180,0.504225
762.840320,0.504916
763.139420,0.507032
763.438480,0.498291
763.737500,0.501723
764.036480,0.506639
764.335420,0.502470
764.634320,0.504505
764.933180,0.504795
765.232000,0.511450
765.530780,0.509474
765.829520,0.503497
766.128220,0.503827
766.426880,0.508884
766.725500,0.509253
767.024080,0.497257
767.322620,0.496542
767.621120,0.504065
767.919580,0.506485
768.218000,0.497948
768.516380,0.504395
768.814720,0.502058
769.113020,0.512750
769.411280,0.515193
769.709500,0.502706
770.007680,0.499659
770.305820,0.507776
770.603920,0.504717
770.901980,0.506148
771.200000,0.493886
771.497980,0.489946
771.795920,0.499666
772.093820,0.493316
772.391680,0.502966
772.689500,0.497973
772.987280,0.496296
773.285020,0.503759
773.582720,0.499324
773.880380,0.508579
774.178000,0.497614
774.475580,0.509712
774.773120,0.497992
775.070620,0.501690
775.368080,0.503006
775.665500,0.501007
775.962880,0.491661
776.260220,0.498654
776.557520,0.502335
776.854780,0.505071
777.152000,0.485411
777.449180,0.511800
777.746320,0.492608
778.043420,0.506821
778.340480,0.497294
778.637500,0.511156
778.934480,0.498319
779.231420,0.500000
779.528320,0.499666
779.825180,0.488801
780.122000,0.496016
780.418780,0.507524
780.715520,0.508384
781.012220,0.491781
781.308880,0.489520
781.605500,0.497260
781.902080,0.496235
782.198620,0.498291
782.495120,0.497942
782.791580,0.500688
783.088000,0.491373
783.384380,0.500688
783.680720,0.496580
783.977020,0.490021
784.273280,0.490909
784.569500,0.496157
784.865680,0.499305
785.161820,0.495833
785.457920,0.499653
785.753980,0.501745
786.050000,0.489641
786.345980,0.493056
786.641920,0.488550
786.937820,0.502849
787.233680,0.482255
787.529500,0.480583
787.825280,0.499292
788.121020,0.496459
788.416720,0.483416
788.712380,0.492243
789.008000,0.489377
789.303580,0.483392
789.599120,0.498182
789.894620,0.498195
790.190080,0.490210
790.485500,0.485961
790.780880,0.489606
791.076220,0.486291
791.371520,0.503994
791.666780,0.497455
791.962000,0.497428
792.257180,0.494876
792.552320,0.496012
792.847420,0.505095
793.142480,0.500366
793.437500,0.481187
793.732480,0.498903
794.027420,0.487389
794.322320,0.497390
794.617180,0.500743
794.912000,0.494799
795.206780,0.482476
795.501520,0.504943
795.796220,0.480000
796.090880,0.496609
796.385500,0.494753
796.680080,0.483919
796.974620,0.493263
797.269120,0.489780
797.563580,0.487786
797.858000,0.490509
798.152380,0.495746
798.446720,0.497692
798.741020,0.493837
799.035280,0.500000
799.329500,0.485758
799.623680,0.486047
