399.985280,0.527027
400.329500,0.486486
400.673680,0.392405
401.017820,0.470588
401.361920,0.545455
401.705980,0.463415
402.050000,0.493506
402.393980,0.517647
402.737920,0.561798
403.081820,0.484536
403.425680,0.488372
403.769500,0.489583
404.113280,0.471264
404.457020,0.528090
404.800720,0.456522
405.144380,0.575758
405.488000,0.526882
405.831580,0.536082
406.175120,0.531915
406.518620,0.490000
406.862080,0.463918
407.205500,0.427083
407.548880,0.459184
407.892220,0.470588
408.235520,0.563830
408.578780,0.476190
408.922000,0.480769
409.265180,0.565657
409.608320,0.484848
409.951420,0.577320
410.294480,0.470588
410.637500,0.510870
410.980480,0.539216
411.323420,0.551020
411.666320,0.522936
412.009180,0.490909
412.352000,0.465347
412.694780,0.559633
413.037520,0.504587
413.380220,0.513514
413.722880,0.580357
414.065500,0.513514
414.408080,0.477876
414.750620,0.522124
415.093120,0.487603
415.435580,0.512605
415.778000,0.522727
416.120380,0.487395
416.462720,0.555556
416.805020,0.541353
417.147280,0.522388
417.489500,0.557143
417.831680,0.465753
418.173820,0.503546
418.515920,0.524476
418.857980,0.512658
419.200000,0.557692
419.541980,0.556213
419.883920,0.516854
420.225820,0.526012
420.567680,0.502793
420.909500,0.497268
421.251280,0.515625
421.593020,0.500000
421.934720,0.484848
422.276380,0.507692
422.618000,0.534314
422.959580,0.534314
423.301120,0.515982
423.642620,0.495652
423.984080,0.520930
424.325500,0.533632
424.666880,0.495690
425.008220,0.495798
425.349520,0.508475
425.690780,0.503846
426.032000,0.494118
426.373180,0.531120
426.714320,0.488281
427.055420,0.494208
427.396480,0.509363
427.737500,0.533597
428.078480,0.521739
428.419420,0.522088
428.760320,0.524904
429.101180,0.523622
429.442000,0.536398
429.782780,0.515385
430.123520,0.517647
430.464220,0.523985
430.804880,0.547893
431.145500,0.494545
431.486080,0.535581
431.826620,0.531008
432.167120,0.485294
432.507580,0.507246
432.848000,0.514388
433.188380,0.523466
433.528720,0.509434
433.869020,0.489286
434.209280,0.487719
434.549500,0.519164
434.889680,0.531987
435.229820,0.494881
435.569920,0.494810
435.909980,0.488673
436.250000,0.525424
436.589980,0.495356
436.929920,0.523810
437.269820,0.504702
437.609680,0.532544
437.949500,0.496988
438.289280,0.524079
438.629020,0.508721
438.968720,0.520349
439.308380,0.512195
439.648000,0.515068
439.987580,0.534392
440.327120,0.512000
440.666620,0.509091
441.006080,0.519182
441.345500,0.508600
441.684880,0.519139
442.024220,0.523573
442.363520,0.530952
442.702780,0.497727
443.042000,0.526432
443.381180,0.521552
443.720320,0.533477
444.059420,0.512605
444.398480,0.502092
444.737500,0.508197
445.076480,0.521825
445.415420,0.520958
445.754320,0.530146
446.093180,0.499083
446.432000,0.537594
446.770780,0.512334
447.109520,0.518382
447.448220,0.516995
447.786880,0.518784
448.125500,0.518966
448.464080,0.508929
448.802620,0.510638
449.141120,0.522491
449.479580,0.519231
449.818000,0.538726
450.156380,0.515050
450.494720,0.499174
450.833020,0.526224
451.171280,0.508562
451.509500,0.534843
451.847680,0.510961
452.185820,0.535284
452.523920,0.513746
452.861980,0.510961
453.200000,0.513289
453.537980,0.495798
453.875920,0.512605
454.213820,0.520548
454.551680,0.513245
454.889500,0.516020
455.227280,0.501779
455.565020,0.527638
455.902720,0.519135
456.240380,0.504160
456.578000,0.520906
456.915580,0.516408
457.253120,0.509868
457.590620,0.522167
457.928080,0.530303
458.265500,0.525338
458.602880,0.516234
458.940220,0.532995
459.277520,0.510400
459.614780,0.525368
459.952000,0.493789
460.289180,0.511076
460.626320,0.521260
460.963420,0.526656
461.300480,0.519878
461.637500,0.523883
461.974480,0.538226
462.311420,0.527571
462.648320,0.490483
462.985180,0.502152
463.322000,0.517857
463.658780,0.500000
463.995520,0.496561
464.332220,0.508310
464.668880,0.501344
465.005500,0.522788
465.342080,0.521127
465.678620,0.515375
466.015120,0.523933
466.351580,0.538559
466.688000,0.523752
467.024380,0.516403
467.360720,0.509091
467.697020,0.518223
468.033280,0.514444
468.369500,0.522075
468.705680,0.527621
469.041820,0.514583
469.377920,0.513015
469.713980,0.520082
470.050000,0.515942
470.385980,0.532290
470.721920,0.513222
471.057820,0.527290
471.393680,0.515435
471.729500,0.518999
472.065280,0.515206
472.401020,0.521277
472.736720,0.515707
473.072380,0.532316
473.408000,0.515231
473.743580,0.512976
474.079120,0.520241
474.414620,0.523325
474.750080,0.522376
475.085500,0.516447
475.420880,0.507077
475.756220,0.515127
476.091520,0.505541
476.426780,0.510518
476.762000,0.509252
477.097180,0.516800
477.432320,0.534733
477.767420,0.522876
478.102480,0.525984
478.437500,0.522167
478.772480,0.516942
479.107420,0.520749
479.442320,0.505995
479.777180,0.529037
480.112000,0.500000
480.446780,0.515199
480.781520,0.524960
481.116220,0.527890
481.450880,0.516003
481.785500,0.516614
482.120080,0.509404
482.454620,0.522145
482.789120,0.524682
483.123580,0.513240
483.458000,0.513449
483.792380,0.516773
484.126720,0.515830
484.461020,0.505074
484.795280,0.515806
485.129500,0.523772
485.463680,0.510853
485.797820,0.527994
486.131920,0.515685
486.465980,0.520463
486.800000,0.524427
487.133980,0.500000
487.467920,0.524101
487.801820,0.514111
488.135680,0.522365
488.469500,0.522693
488.803280,0.522288
489.137020,0.523077
489.470720,0.515579
489.804380,0.519673
490.138000,0.534125
490.471580,0.524687
490.805120,0.511079
491.138620,0.519545
491.472080,0.522968
491.805500,0.520223
492.138880,0.526060
492.472220,0.525260
492.805520,0.520950
493.138780,0.532047
493.472000,0.515050
493.805180,0.530014
494.138320,0.527018
494.471420,0.518880
494.804480,0.513583
495.137500,0.523107
495.470480,0.514978
495.803420,0.521411
496.136320,0.513158
496.469180,0.524248
496.802000,0.517726
497.134780,0.513645
497.467520,0.533945
497.800220,0.517689
498.132880,0.522046
498.465500,0.520857
498.798080,0.520548
499.130620,0.520494
499.463120,0.526670
499.795580,0.522002
500.128000,0.516076
500.460380,0.522067
500.792720,0.532344
501.125020,0.511298
501.457280,0.524282
501.789500,0.524793
502.121680,0.521514
502.453820,0.518613
502.785920,0.525763
503.117980,0.518646
503.450000,0.532396
503.781980,0.526158
504.113920,0.517307
504.445820,0.523578
504.777680,0.517647
505.109500,0.523558
505.441280,0.522467
505.773020,0.523250
506.104720,0.515780
506.436380,0.529579
506.768000,0.530870
507.099580,0.514874
507.431120,0.516159
507.762620,0.518797
508.094080,0.517776
508.425500,0.524276
508.756880,0.521719
509.088220,0.515639
509.419520,0.536313
509.750780,0.529053
510.082000,0.527519
510.413180,0.522801
510.744320,0.528302
511.075420,0.521082
511.406480,0.522332
511.737500,0.517593
512.068480,0.523026
512.399420,0.521127
512.730320,0.514550
513.061180,0.531399
513.392000,0.522480
513.722780,0.524976
514.053520,0.522281
514.384220,0.515224
514.714880,0.521781
515.045500,0.514847
515.376080,0.533656
515.706620,0.518266
516.037120,0.528431
516.367580,0.522425
516.698000,0.521569
517.028380,0.532274
517.358720,0.524444
517.689020,0.527695
518.019280,0.522830
518.349500,0.524582
518.679680,0.518425
519.009820,0.518219
519.339920,0.530561
519.669980,0.514817
520.000000,0.527254
520.329980,0.518403
520.659920,0.517382
520.989820,0.524252
521.319680,0.533951
521.649500,0.512596
521.979280,0.539144
522.309020,0.520228
522.638720,0.515105
522.968380,0.523785
523.298000,0.524008
523.627580,0.524056
523.957120,0.528831
524.286620,0.518499
524.616080,0.527921
524.945500,0.517829
525.274880,0.525911
525.604220,0.521222
525.933520,0.528826
526.262780,0.511404
526.592000,0.526636
526.921180,0.524124
527.250320,0.527144
527.579420,0.524507
527.908480,0.513048
528.237500,0.537239
528.566480,0.525948
528.895420,0.532282
529.224320,0.530956
529.553180,0.521928
529.882000,0.524088
530.210780,0.526544
530.539520,0.526366
530.868220,0.536620
531.196880,0.519350
531.525500,0.534140
531.854080,0.523921
532.182620,0.520785
532.511120,0.526682
532.839580,0.534483
533.168000,0.520966
533.496380,0.531963
533.824720,0.532526
534.153020,0.532769
534.481280,0.527753
534.809500,0.532542
535.137680,0.526910
535.465820,0.523625
535.793920,0.521574
536.121980,0.526227
536.450000,0.526004
536.777980,0.533305
537.105920,0.525114
537.433820,0.525368
537.761680,0.536327
538.089500,0.535411
538.417280,0.533625
538.745020,0.532488
539.072720,0.527138
539.400380,0.527972
539.728000,0.538050
540.055580,0.520974
540.383120,0.529039
540.710620,0.526786
541.038080,0.522316
541.365500,0.526471
541.692880,0.528706
542.020220,0.534365
542.347520,0.535894
542.674780,0.521877
543.002000,0.526592
543.329180,0.529639
543.656320,0.541842
543.983420,0.530598
544.310480,0.528372
544.637500,0.535995
544.964480,0.526918
545.291420,0.528415
545.618320,0.530212
545.945180,0.525379
546.272000,0.524246
546.598780,0.530646
546.925520,0.527860
547.252220,0.536151
547.578880,0.529814
547.905500,0.528105
548.232080,0.523717
548.558620,0.529775
548.885120,0.532221
549.211580,0.529090
549.538000,0.523346
549.864380,0.528617
550.190720,0.534065
550.517020,0.534224
550.843280,0.531596
551.169500,0.525445
551.495680,0.532523
551.821820,0.527760
552.147920,0.521796
552.473980,0.530458
552.800000,0.523545
553.125980,0.538310
553.451920,0.534506
553.777820,0.532978
554.103680,0.536906
554.429500,0.531302
554.755280,0.529372
555.081020,0.526070
555.406720,0.527938
555.732380,0.525246
556.058000,0.529532
556.383580,0.535775
556.709120,0.521020
557.034620,0.533930
557.360080,0.521244
557.685500,0.521784
558.010880,0.530676
558.336220,0.528998
558.661520,0.523219
558.986780,0.524451
559.312000,0.529202
559.637180,0.529982
559.962320,0.521182
560.287420,0.524683
560.612480,0.531755
560.937500,0.526799
561.262480,0.527126
561.587420,0.527385
561.912320,0.532793
562.237180,0.526277
562.562000,0.525253
562.886780,0.533259
563.211520,0.528316
563.536220,0.528757
563.860880,0.533006
564.185500,0.521951
564.510080,0.528217
564.834620,0.518050
565.159120,0.521429
565.483580,0.528696
565.808000,0.519107
566.132380,0.528161
566.456720,0.521542
566.781020,0.522131
567.105280,0.522873
567.429500,0.524279
567.753680,0.527043
568.077820,0.511790
568.401920,0.531322
568.725980,0.526755
569.050000,0.531179
569.373980,0.529121
569.697920,0.522564
570.021820,0.532210
570.345680,0.525450
570.669500,0.520412
570.993280,0.528977
571.317020,0.531239
571.640720,0.534642
571.964380,0.522272
572.288000,0.525964
572.611580,0.538750
572.935120,0.531987
573.258620,0.528048
573.582080,0.534277
573.905500,0.526061
574.228880,0.528211
574.552220,0.527666
574.875520,0.525316
575.198780,0.518974
575.522000,0.523094
575.845180,0.520415
576.168320,0.519943
576.491420,0.534520
576.814480,0.527306
577.137500,0.526696
577.460480,0.529177
577.783420,0.525188
578.106320,0.527066
578.429180,0.531637
578.752000,0.525877
579.074780,0.531693
579.397520,0.522272
579.720220,0.528314
580.042880,0.521308
580.365500,0.527796
580.688080,0.530868
581.010620,0.531556
581.333120,0.523046
581.655580,0.522478
581.978000,0.533422
582.300380,0.527102
582.622720,0.533289
582.945020,0.530559
583.267280,0.527841
583.589500,0.532905
583.911680,0.532232
584.233820,0.529430
584.555920,0.523795
584.877980,0.533291
585.200000,0.524248
585.521980,0.536299
585.843920,0.523795
586.165820,0.525289
586.487680,0.525429
586.809500,0.526853
587.131280,0.530021
587.453020,0.535119
587.774720,0.527794
588.096380,0.525963
588.418000,0.533509
588.739580,0.531762
589.061120,0.534790
589.382620,0.539542
589.704080,0.531276
590.025500,0.531393
590.346880,0.533446
590.668220,0.527583
590.989520,0.528564
591.310780,0.532450
591.632000,0.529508
591.953180,0.530861
592.274320,0.530167
592.595420,0.523976
592.916480,0.530019
593.237500,0.532202
593.558480,0.533495
593.879420,0.533315
594.200320,0.534691
594.521180,0.522709
594.842000,0.532778
595.162780,0.533654
595.483520,0.530444
595.804220,0.533835
596.124880,0.530509
596.445500,0.529211
596.766080,0.540199
597.086620,0.531051
597.407120,0.526593
597.727580,0.533280
598.048000,0.533986
598.368380,0.523672
598.688720,0.520839
599.009020,0.528132
599.329280,0.535657
599.649500,0.525092
599.969680,0.530182
600.289820,0.528846
600.609920,0.532995
600.929980,0.533137
601.250000,0.527568
601.569980,0.529301
601.889920,0.525795
602.209820,0.526515
602.529680,0.539687
602.849500,0.527550
603.169280,0.530449
603.489020,0.534459
603.808720,0.525782
604.128380,0.527870
604.448000,0.525691
604.767580,0.534358
605.087120,0.523823
605.406620,0.522810
605.726080,0.534075
606.045500,0.516300
606.364880,0.527644
606.684220,0.527127
607.003520,0.526089
607.322780,0.521603
607.642000,0.524986
607.961180,0.522694
608.280320,0.524652
608.599420,0.520278
608.918480,0.526100
609.237500,0.526702
609.556480,0.528559
609.875420,0.526580
610.194320,0.522291
610.513180,0.518201
610.832000,0.528886
611.150780,0.532292
611.469520,0.534238
611.788220,0.528718
612.106880,0.510253
612.425500,0.523143
612.744080,0.525085
613.062620,0.522936
613.381120,0.525594
613.699580,0.531882
614.018000,0.533477
614.336380,0.526218
614.654720,0.530233
614.973020,0.517433
615.291280,0.519988
615.609500,0.534073
615.927680,0.519468
616.245820,0.521954
616.563920,0.521915
616.881980,0.531650
617.200000,0.523173
617.517980,0.517113
617.835920,0.519416
618.153820,0.519428
618.471680,0.518450
618.789500,0.522341
619.107280,0.524883
619.425020,0.522360
619.742720,0.521343
620.060380,0.519586
620.378000,0.524544
620.695580,0.519476
621.013120,0.521575
621.330620,0.524631
621.648080,0.521451
621.965500,0.521957
622.282880,0.524590
622.600220,0.520215
622.917520,0.518904
623.234780,0.531983
623.552000,0.526416
623.869180,0.521904
624.186320,0.523400
624.503420,0.524138
624.820480,0.526861
625.137500,0.527629
625.454480,0.525477
625.771420,0.513871
626.088320,0.524590
626.405180,0.524269
626.722000,0.519134
627.038780,0.526942
627.355520,0.514062
627.672220,0.519129
627.988880,0.517574
628.305500,0.528514
628.622080,0.522615
628.938620,0.514679
629.255120,0.524580
629.571580,0.521606
629.888000,0.529303
630.204380,0.520098
630.520720,0.521024
630.837020,0.521739
631.153280,0.519484
631.469500,0.530625
631.785680,0.517179
632.101820,0.519602
632.417920,0.518629
632.733980,0.526711
633.050000,0.525773
633.365980,0.519561
633.681920,0.527446
633.997820,0.526599
634.313680,0.520790
634.629500,0.528163
634.945280,0.526393
635.261020,0.523628
635.576720,0.526718
635.892380,0.516991
636.208000,0.520337
636.523580,0.517977
636.839120,0.519398
637.154620,0.521159
637.470080,0.517647
637.785500,0.524619
638.100880,0.520996
638.416220,0.526603
638.731520,0.516046
639.046780,0.521119
639.362000,0.516055
639.677180,0.523130
639.992320,0.524105
640.307420,0.526833
640.622480,0.521423
640.937500,0.518724
641.252480,0.519687
641.567420,0.522592
641.882320,0.517539
642.197180,0.519652
642.512000,0.523929
642.826780,0.519279
643.141520,0.520978
643.456220,0.519646
643.770880,0.523494
644.085500,0.520961
644.400080,0.528090
644.714620,0.514214
645.029120,0.520077
645.343580,0.525233
645.658000,0.522342
645.972380,0.519594
646.286720,0.517035
646.601020,0.519236
646.915280,0.520154
647.229500,0.510440
647.543680,0.520851
647.857820,0.517479
648.171920,0.521161
648.485980,0.514388
648.800000,0.516671
649.113980,0.516907
649.427920,0.517337
649.741820,0.520747
650.055680,0.519199
650.369500,0.527747
650.683280,0.509711
650.997020,0.518977
651.310720,0.519263
651.624380,0.517308
651.938000,0.514404
652.251580,0.521013
652.565120,0.512018
652.878620,0.521396
653.192080,0.512921
653.505500,0.515288
653.818880,0.520045
654.132220,0.524352
654.445520,0.519853
654.758780,0.512748
655.072000,0.519198
655.385180,0.508702
655.698320,0.514718
656.011420,0.512181
656.324480,0.512970
656.637500,0.507532
656.950480,0.509689
657.263420,0.513154
657.576320,0.509635
657.889180,0.514303
658.202000,0.513889
658.514780,0.514439
658.827520,0.511705
659.140220,0.515733
659.452880,0.517064
659.765500,0.506924
660.078080,0.498646
660.390620,0.505347
660.703120,0.510541
661.015580,0.515031
661.328000,0.520151
661.640380,0.510407
661.952720,0.512613
662.265020,0.515123
662.577280,0.511450
662.889500,0.511826
663.201680,0.512125
663.513820,0.505629
663.825920,0.506244
664.137980,0.521332
664.450000,0.503517
664.761980,0.506056
665.073920,0.495943
665.385820,0.513743
665.697680,0.507769
666.009500,0.509810
666.321280,0.511928
666.633020,0.502660
666.944720,0.508595
667.256380,0.509758
667.568000,0.508152
667.879580,0.511905
668.191120,0.510989
668.502620,0.505649
668.814080,0.509123
669.125500,0.502224
669.436880,0.504841
669.748220,0.506057
670.059520,0.504202
670.370780,0.507655
670.682000,0.513628
670.993180,0.500705
671.304320,0.504219
671.615420,0.506392
671.926480,0.498581
672.237500,0.503037
672.548480,0.497161
672.859420,0.498928
673.170320,0.505622
673.481180,0.506155
673.792000,0.496213
674.102780,0.501616
674.413520,0.503828
674.724220,0.497278
675.034880,0.504584
675.345500,0.504376
675.656080,0.494374
675.966620,0.502728
676.277120,0.503479
676.587580,0.498527
676.898000,0.502053
677.208380,0.509427
677.518720,0.497812
677.829020,0.507021
678.139280,0.491105
678.449500,0.498700
678.759680,0.504683
679.069820,0.497026
679.379920,0.499811
679.689980,0.497215
680.000000,0.497196
680.309980,0.500371
680.619920,0.501325
680.929820,0.501306
681.239680,0.497046
681.549500,0.491852
681.859280,0.501867
682.169020,0.496457
682.478720,0.505610
682.788380,0.503876
683.098000,0.504114
683.407580,0.494184
683.717120,0.496246
684.026620,0.496988
684.336080,0.491474
684.645500,0.495698
684.954880,0.494144
685.264220,0.503964
685.573520,0.508184
685.882780,0.504795
686.192000,0.493980
686.501180,0.497919
686.810320,0.502306
687.119420,0.495249
687.428480,0.494493
687.737500,0.498465
688.046480,0.496933
688.355420,0.495285
688.664320,0.493497
688.973180,0.504594
689.282000,0.503472
689.590780,0.490798
689.899520,0.485758
690.208220,0.493119
690.516880,0.497900
690.825500,0.492830
691.134080,0.493926
691.442620,0.498476
691.751120,0.494501
692.059580,0.491784
692.368000,0.491102
692.676380,0.498092
692.984720,0.490840
693.293020,0.493161
693.601280,0.492179
693.909500,0.498297
694.217680,0.487814
694.525820,0.501904
694.833920,0.486456
695.141980,0.496336
695.450000,0.490840
695.757980,0.493506
696.065920,0.488544
696.373820,0.489222
696.681680,0.487917
696.989500,0.495176
697.297280,0.489304
697.605020,0.503571
697.912720,0.490008
698.220380,0.490358
698.528000,0.499604
698.835580,0.491505
699.143120,0.489867
699.450620,0.495625
699.758080,0.480784
700.065500,0.492418
700.372880,0.491600
700.680220,0.490626
700.987520,0.486905
701.294780,0.496756
701.602000,0.492472
701.909180,0.495231
702.216320,0.489245
702.523420,0.487372
702.830480,0.495050
703.137500,0.485581
703.444480,0.495464
703.751420,0.491913
704.058320,0.487535
704.365180,0.490931
704.672000,0.493465
704.978780,0.486539
705.285520,0.492175
705.592220,0.482353
705.898880,0.478723
706.205500,0.483959
706.512080,0.497235
706.818620,0.491486
707.125120,0.495385
707.431580,0.484174
707.738000,0.482031
708.044380,0.481281
708.350720,0.480321
708.657020,0.497069
708.963280,0.485248
709.269500,0.487671
709.575680,0.487230
709.881820,0.492138
710.187920,0.483268
710.493980,0.479054
710.800000,0.484744
711.105980,0.478916
711.411920,0.487584
711.717820,0.476413
712.023680,0.485426
712.329500,0.488170
712.635280,0.484884
712.941020,0.486278
713.246720,0.486166
713.552380,0.492543
713.858000,0.486401
714.163580,0.485004
714.469120,0.484955
714.774620,0.480853
715.080080,0.486062
715.385500,0.485612
715.690880,0.472189
715.996220,0.487322
716.301520,0.488933
716.606780,0.485063
716.912000,0.491519
717.217180,0.486832
717.522320,0.487475
717.827420,0.483320
718.132480,0.483741
718.437500,0.491235
718.742480,0.481855
719.047420,0.477751
719.352320,0.479037
719.657180,0.487735
719.962000,0.482630
720.266780,0.481928
720.571520,0.470174
720.876220,0.483224
721.180880,0.483696
721.485500,0.473882
721.790080,0.472611
722.094620,0.485420
722.399120,0.489875
722.703580,0.477068
723.008000,0.486417
723.312380,0.476108
723.616720,0.473438
723.921020,0.475097
724.225280,0.479494
724.529500,0.476795
724.833680,0.484875
725.137820,0.481938
725.441920,0.471690
725.745980,0.468456
726.050000,0.481281
726.353980,0.479045
726.657920,0.467836
726.961820,0.483105
727.265680,0.481738
727.569500,0.473949
727.873280,0.474827
728.177020,0.484569
728.480720,0.468981
728.784380,0.477219
729.088000,0.477626
729.391580,0.477025
729.695120,0.487044
729.998620,0.468929
730.302080,0.476694
730.605500,0.473071
730.908880,0.469868
731.212220,0.477963
731.515520,0.477328
731.818780,0.466019
732.122000,0.472441
732.425180,0.469690
732.728320,0.469509
733.031420,0.478195
733.334480,0.470408
733.637500,0.459677
733.940480,0.471341
734.243420,0.463812
734.546320,0.470436
734.849180,0.464360
735.152000,0.460062
735.454780,0.465909
735.757520,0.478398
736.060220,0.463928
736.362880,0.461660
736.665500,0.459530
736.968080,0.471789
737.270620,0.474687
737.573120,0.468341
737.875580,0.470588
738.178000,0.469788
738.480380,0.463784
738.782720,0.464558
739.085020,0.464758
739.387280,0.460643
739.689500,0.470555
739.991680,0.464907
740.293820,0.461028
740.595920,0.462437
740.897980,0.478261
741.200000,0.463825
741.501980,0.471633
741.803920,0.460023
742.105820,0.467569
742.407680,0.472335
742.709500,0.459091
743.011280,0.458382
743.313020,0.463188
743.614720,0.464887
743.916380,0.465116
744.218000,0.470764
744.519580,0.460145
744.821120,0.471257
745.122620,0.461953
745.424080,0.448918
745.725500,0.464092
746.026880,0.470443
746.328220,0.460543
746.629520,0.446117
746.930780,0.464461
747.232000,0.464132
747.533180,0.463697
747.834320,0.472915
748.135420,0.453698
748.436480,0.466625
748.737500,0.450278
749.038480,0.461210
749.339420,0.467953
749.640320,0.475801
749.941180,0.445971
750.242000,0.466709
750.542780,0.460298
750.843520,0.474696
751.144220,0.450000
751.444880,0.466075
751.745500,0.458442
752.046080,0.468249
752.346620,0.448454
752.647120,0.459830
752.947580,0.459897
753.248000,0.453901
753.548380,0.460638
753.848720,0.453960
754.149020,0.451322
754.449280,0.461589
754.749500,0.454545
755.049680,0.466667
755.349820,0.456971
755.649920,0.453404
755.949980,0.456536
756.250000,0.458909
756.549980,0.453465
756.849920,0.464990
757.149820,0.444444
757.449680,0.450165
757.749500,0.460804
758.049280,0.466894
758.349020,0.450626
758.648720,0.454106
758.948380,0.450172
759.248000,0.453504
759.547580,0.468729
759.847120,0.447278
760.146620,0.445196
760.446080,0.461022
760.745500,0.453147
761.044880,0.454545
761.344220,0.444761
761.643520,0.457627
761.942780,0.459762
762.242000,0.453324
762.541180,0.445775
762.840320,0.452247
763.139420,0.448664
763.438480,0.450444
763.737500,0.453480
764.036480,0.449336
764.335420,0.446013
764.634320,0.432432
764.933180,0.453425
765.232000,0.451076
765.530780,0.445614
765.829520,0.455245
766.128220,0.454419
766.426880,0.454158
766.725500,0.445511
767.024080,0.438957
767.322620,0.452974
767.621120,0.443767
767.919580,0.452560
768.218000,0.451436
768.516380,0.444219
768.814720,0.458848
769.113020,0.445210
769.411280,0.457873
769.709500,0.449932
770.007680,0.447853
770.305820,0.463827
770.603920,0.450809
770.901980,0.452869
771.200000,0.447690
771.497980,0.436327
771.795920,0.438796
772.093820,0.438503
772.391680,0.441002
772.689500,0.445946
772.987280,0.454545
773.285020,0.442242
773.582720,0.453378
773.880380,0.444063
774.178000,0.451261
774.475580,0.446752
774.773120,0.439759
775.070620,0.444895
775.368080,0.449566
775.665500,0.443251
775.962880,0.440294
776.260220,0.446164
776.557520,0.436291
776.854780,0.448276
777.152000,0.443634
777.449180,0.454484
777.746320,0.445565
778.043420,0.442701
778.340480,0.445873
778.637500,0.453009
778.934480,0.445864
779.231420,0.441655
779.528320,0.439546
779.825180,0.430830
780.122000,0.443559
780.418780,0.449384
780.715520,0.446680
781.012220,0.446575
781.308880,0.448952
781.605500,0.452055
781.902080,0.446270
782.198620,0.436090
782.495120,0.445130
782.791580,0.444292
783.088000,0.445135
783.384380,0.455983
783.680720,0.439808
783.977020,0.429456
784.273280,0.446154
784.569500,0.445143
784.865680,0.433241
785.161820,0.440972
785.457920,0.428274
785.753980,0.438241
786.050000,0.437845
786.345980,0.438194
786.641920,0.437890
786.937820,0.450142
787.233680,0.437717
787.529500,0.435506
787.825280,0.441218
788.121020,0.445467
788.416720,0.439661
788.712380,0.437941
789.008000,0.436261
789.303580,0.441696
789.599120,0.446545
789.894620,0.442599
790.190080,0.435823
790.485500,0.443485
790.780880,0.434409
791.076220,0.439394
791.371520,0.438635
791.666780,0.432727
791.962000,0.441587
792.257180,0.431918
792.552320,0.440899
792.847420,0.424309
793.142480,0.443223
793.437500,0.441389
793.732480,0.442575
794.027420,0.429525
794.322320,0.439224
794.617180,0.437593
794.912000,0.427935
795.206780,0.434750
795.501520,0.440304
795.796220,0.427407
796.090880,0.446119
796.385500,0.432534
796.680080,0.434555
796.974620,0.428144
797.269120,0.426192
797.563580,0.432824
797.858000,0.429765
798.152380,0.443155
798.446720,0.440769
798.741020,0.438367
799.035280,0.440217
799.329500,0.430331
799.623680,0.441085
