399.985280,0.500000
400.329500,0.513514
400.673680,0.556962
401.017820,0.485294
401.361920,0.424242
401.705980,0.426829
402.050000,0.480519
402.393980,0.541176
402.737920,0.516854
403.081820,0.515464
403.425680,0.500000
403.769500,0.447917
404.113280,0.505747
404.457020,0.528090
404.800720,0.467391
405.144380,0.525253
405.488000,0.516129
405.831580,0.536082
406.175120,0.457447
406.518620,0.480000
406.862080,0.525773
407.205500,0.500000
407.548880,0.500000
407.892220,0.460784
408.235520,0.521277
408.578780,0.533333
408.922000,0.480769
409.265180,0.484848
409.608320,0.505051
409.951420,0.597938
410.294480,0.578431
410.637500,0.586957
410.980480,0.529412
411.323420,0.520408
411.666320,0.486239
412.009180,0.572727
412.352000,0.495050
412.694780,0.513761
413.037520,0.504587
413.380220,0.585586
413.722880,0.607143
414.065500,0.513514
414.408080,0.539823
414.750620,0.504425
415.093120,0.495868
415.435580,0.571429
415.778000,0.530303
416.120380,0.512605
416.462720,0.523810
416.805020,0.563910
417.147280,0.567164
417.489500,0.571429
417.831680,0.486301
418.173820,0.517730
418.515920,0.566434
418.857980,0.544304
419.200000,0.551282
419.541980,0.520710
419.883920,0.522472
420.225820,0.554913
420.567680,0.513966
420.909500,0.535519
421.251280,0.515625
421.593020,0.520408
421.934720,0.530303
422.276380,0.553846
422.618000,0.509804
422.959580,0.529412
423.301120,0.534247
423.642620,0.500000
423.984080,0.516279
424.325500,0.520179
424.666880,0.521552
425.008220,0.500000
425.349520,0.508475
425.690780,0.500000
426.032000,0.521569
426.373180,0.568465
426.714320,0.523437
427.055420,0.513514
427.396480,0.516854
427.737500,0.513834
428.078480,0.525692
428.419420,0.493976
428.760320,0.501916
429.101180,0.527559
429.442000,0.494253
429.782780,0.515385
430.123520,0.517647
430.464220,0.527675
430.804880,0.532567
431.145500,0.512727
431.486080,0.535581
431.826620,0.523256
432.167120,0.547794
432.507580,0.547101
432.848000,0.532374
433.188380,0.534296
433.528720,0.520755
433.869020,0.532143
434.209280,0.501754
434.549500,0.522648
434.889680,0.521886
435.229820,0.525597
435.569920,0.501730
435.909980,0.517799
436.250000,0.522034
436.589980,0.498452
436.929920,0.514286
437.269820,0.517241
437.609680,0.532544
437.949500,0.521084
438.289280,0.515581
438.629020,0.534884
438.968720,0.514535
439.308380,0.501355
439.648000,0.517808
439.987580,0.494709
440.327120,0.517333
440.666620,0.537662
441.006080,0.524297
441.345500,0.498771
441.684880,0.488038
442.024220,0.518610
442.363520,0.526190
442.702780,0.497727
443.042000,0.513216
443.381180,0.517241
443.720320,0.542117
444.059420,0.500000
444.398480,0.512552
444.737500,0.506148
445.076480,0.494048
445.415420,0.528942
445.754320,0.511435
446.093180,0.497248
446.432000,0.543233
446.770780,0.525617
447.109520,0.531250
447.448220,0.520572
447.786880,0.536673
448.125500,0.513793
448.464080,0.514286
448.802620,0.526596
449.141120,0.505190
449.479580,0.508741
449.818000,0.518072
450.156380,0.491639
450.494720,0.514050
450.833020,0.519231
451.171280,0.518836
451.509500,0.543554
451.847680,0.514334
452.185820,0.492255
452.523920,0.498282
452.861980,0.516020
453.200000,0.504983
453.537980,0.526050
453.875920,0.517647
454.213820,0.496575
454.551680,0.503311
454.889500,0.504216
455.227280,0.521352
455.565020,0.512563
455.902720,0.509151
456.240380,0.502496
456.578000,0.513937
456.915580,0.528497
457.253120,0.498355
457.590620,0.515599
457.928080,0.526936
458.265500,0.520270
458.602880,0.512987
458.940220,0.519459
459.277520,0.480000
459.614780,0.518822
459.952000,0.503106
460.289180,0.522152
460.626320,0.505512
460.963420,0.531502
461.300480,0.527523
461.637500,0.517720
461.974480,0.515291
462.311420,0.512668
462.648320,0.508053
462.985180,0.492109
463.322000,0.502976
463.658780,0.498619
463.995520,0.495186
464.332220,0.497230
464.668880,0.504032
465.005500,0.514745
465.342080,0.503201
465.678620,0.532595
466.015120,0.518758
466.351580,0.501896
466.688000,0.507917
467.024380,0.515188
467.360720,0.502273
467.697020,0.513667
468.033280,0.507778
468.369500,0.518764
468.705680,0.509583
469.041820,0.488542
469.377920,0.501085
469.713980,0.513903
470.050000,0.508213
470.385980,0.501957
470.721920,0.515181
471.057820,0.508772
471.393680,0.503274
471.729500,0.498610
472.065280,0.502683
472.401020,0.515071
472.736720,0.510471
473.072380,0.507181
473.408000,0.504787
473.743580,0.505190
474.079120,0.502153
474.414620,0.492791
474.750080,0.505289
475.085500,0.512336
475.420880,0.500416
475.756220,0.509403
476.091520,0.502984
476.426780,0.497573
476.762000,0.503620
477.097180,0.499200
477.432320,0.499192
477.767420,0.513889
478.102480,0.492126
478.437500,0.513957
478.772480,0.483846
479.107420,0.502848
479.442320,0.498801
479.777180,0.511535
480.112000,0.497689
480.446780,0.494154
480.781520,0.498390
481.116220,0.502829
481.450880,0.495706
481.785500,0.507120
482.120080,0.510972
482.454620,0.515152
482.789120,0.501592
483.123580,0.496885
483.458000,0.493671
483.792380,0.503994
484.126720,0.502703
484.461020,0.498048
484.795280,0.492675
485.129500,0.508184
485.463680,0.514729
485.797820,0.517885
486.131920,0.504208
486.465980,0.498842
486.800000,0.512214
487.133980,0.495468
487.467920,0.505738
487.801820,0.509535
488.135680,0.496588
488.469500,0.506051
488.803280,0.508915
489.137020,0.498168
489.470720,0.505935
489.804380,0.512992
490.138000,0.505193
490.471580,0.518791
490.805120,0.496783
491.138620,0.511016
491.472080,0.506007
491.805500,0.502092
492.138880,0.504517
492.472220,0.507958
492.805520,0.513268
493.138780,0.505858
493.472000,0.499666
493.805180,0.500682
494.138320,0.501668
494.471420,0.505208
494.804480,0.499353
495.137500,0.514121
495.470480,0.500956
495.803420,0.504408
496.136320,0.505013
496.469180,0.502762
496.802000,0.503667
497.134780,0.499090
497.467520,0.512538
497.800220,0.507075
498.132880,0.505585
498.465500,0.504635
498.798080,0.503425
499.130620,0.499719
499.463120,0.502527
499.795580,0.491749
500.128000,0.497003
500.460380,0.493541
500.792720,0.502651
501.125020,0.499212
501.457280,0.509138
501.789500,0.500000
502.121680,0.498704
502.453820,0.501275
502.785920,0.503752
503.117980,0.501963
503.450000,0.511803
503.781980,0.500249
504.113920,0.495970
504.445820,0.493923
504.777680,0.495529
505.109500,0.515865
505.441280,0.512906
505.773020,0.504932
506.104720,0.511069
506.436380,0.508282
506.768000,0.517306
507.099580,0.488787
507.431120,0.500234
507.762620,0.504699
508.094080,0.504558
508.425500,0.502801
508.756880,0.500229
509.088220,0.506900
509.419520,0.500931
509.750780,0.507029
510.082000,0.503731
510.413180,0.504836
510.744320,0.504832
511.075420,0.503208
511.406480,0.510578
511.737500,0.494907
512.068480,0.500000
512.399420,0.508451
512.730320,0.497921
513.061180,0.510466
513.392000,0.498817
513.722780,0.511047
514.053520,0.505989
514.384220,0.500951
514.714880,0.509813
515.045500,0.495690
515.376080,0.501695
515.706620,0.505602
516.037120,0.504902
516.367580,0.498768
516.698000,0.496078
517.028380,0.501986
517.358720,0.496296
517.689020,0.506924
518.019280,0.501756
518.349500,0.496706
518.679680,0.505805
519.009820,0.501518
519.339920,0.514529
519.669980,0.503767
520.000000,0.497708
520.329980,0.504406
520.659920,0.506646
520.989820,0.499484
521.319680,0.497942
521.649500,0.504370
521.979280,0.512004
522.309020,0.501037
522.638720,0.487967
522.968380,0.501551
523.298000,0.496868
523.627580,0.503363
523.957120,0.508571
524.286620,0.501824
524.616080,0.497932
524.945500,0.501292
525.274880,0.505900
525.604220,0.509317
525.933520,0.500000
526.262780,0.495185
526.592000,0.497717
526.921180,0.499746
527.250320,0.497717
527.579420,0.506316
527.908480,0.493353
528.237500,0.500000
528.566480,0.499501
528.895420,0.508625
529.224320,0.506191
529.553180,0.498795
529.882000,0.514355
530.210780,0.508687
530.539520,0.500000
530.868220,0.505984
531.196880,0.503106
531.525500,0.507990
531.854080,0.498593
532.182620,0.486688
532.511120,0.509049
532.839580,0.500907
533.168000,0.497265
533.496380,0.510046
533.824720,0.499327
534.153020,0.508694
534.481280,0.497357
534.809500,0.510554
535.137680,0.498264
535.465820,0.493127
535.793920,0.502961
536.121980,0.511960
536.450000,0.505285
536.777980,0.501885
537.105920,0.513076
537.433820,0.497136
537.761680,0.508980
538.089500,0.506273
538.417280,0.499403
538.745020,0.500792
539.072720,0.497462
539.400380,0.500777
539.728000,0.502868
540.055580,0.502247
540.383120,0.514147
540.710620,0.499256
541.038080,0.503135
541.365500,0.501838
541.692880,0.507631
542.020220,0.501259
542.347520,0.505743
542.674780,0.498236
543.002000,0.493702
543.329180,0.501228
543.656320,0.506681
543.983420,0.503590
544.310480,0.503568
544.637500,0.506653
544.964480,0.500673
545.291420,0.497175
545.618320,0.504980
545.945180,0.496374
546.272000,0.499672
546.598780,0.506064
546.925520,0.503132
547.252220,0.503797
547.578880,0.500815
547.905500,0.503268
548.232080,0.501300
548.558620,0.505044
548.885120,0.503108
549.211580,0.493410
549.538000,0.503243
549.864380,0.495498
550.190720,0.497578
550.517020,0.505215
550.843280,0.506189
551.169500,0.494593
551.495680,0.506570
551.821820,0.500980
552.147920,0.495771
552.473980,0.500165
552.800000,0.498365
553.125980,0.499345
553.451920,0.503981
553.777820,0.505996
554.103680,0.498820
554.429500,0.496150
554.755280,0.497664
555.081020,0.502674
555.406720,0.496444
555.732380,0.503219
556.058000,0.496266
556.383580,0.499486
556.709120,0.498622
557.034620,0.498794
557.360080,0.499827
557.685500,0.501729
558.010880,0.502253
558.336220,0.498067
558.661520,0.501241
558.986780,0.501772
559.312000,0.502137
559.637180,0.500180
559.962320,0.501602
560.287420,0.501763
560.612480,0.494797
560.937500,0.506608
561.262480,0.501466
561.587420,0.491114
561.912320,0.498158
562.237180,0.497779
562.562000,0.495698
562.886780,0.499071
563.211520,0.501490
563.536220,0.492393
563.860880,0.500189
564.185500,0.498311
564.510080,0.503010
564.834620,0.498325
565.159120,0.494737
565.483580,0.495629
565.808000,0.490352
566.132380,0.497949
566.456720,0.504913
566.781020,0.497374
567.105280,0.493006
567.429500,0.501897
567.753680,0.507096
568.077820,0.500580
568.401920,0.504966
568.725980,0.499810
569.050000,0.502281
569.373980,0.490674
569.697920,0.493364
570.021820,0.496255
570.345680,0.499426
570.669500,0.494468
570.993280,0.499815
571.317020,0.498721
571.640720,0.500556
571.964380,0.494803
572.288000,0.498145
572.611580,0.503557
572.935120,0.496820
573.258620,0.496634
573.582080,0.495156
573.905500,0.485480
574.228880,0.501485
574.552220,0.497252
574.875520,0.491437
575.198780,0.486086
575.522000,0.500000
575.845180,0.490688
576.168320,0.495149
576.491420,0.497093
576.814480,0.492224
577.137500,0.494949
577.460480,0.496557
577.783420,0.498035
578.106320,0.497151
578.429180,0.495935
578.752000,0.497742
579.074780,0.496628
579.397520,0.489671
579.720220,0.494208
580.042880,0.498183
580.365500,0.490404
580.688080,0.494233
581.010620,0.499156
581.333120,0.497328
581.655580,0.501499
581.978000,0.497506
582.300380,0.492048
582.622720,0.500000
582.945020,0.494473
583.267280,0.491371
583.589500,0.493419
583.911680,0.501747
584.233820,0.498269
584.555920,0.497636
584.877980,0.500000
585.200000,0.486495
585.521980,0.498301
585.843920,0.500610
586.165820,0.496344
586.487680,0.492326
586.809500,0.497750
587.131280,0.496599
587.453020,0.504762
587.774720,0.499704
588.096380,0.497375
588.418000,0.501610
588.739580,0.497844
589.061120,0.504025
589.382620,0.498281
589.704080,0.495652
590.025500,0.503139
590.346880,0.502811
590.668220,0.495379
590.989520,0.497227
591.310780,0.500138
591.632000,0.501639
591.953180,0.500692
592.274320,0.488943
592.595420,0.494073
592.916480,0.500136
593.237500,0.499326
593.558480,0.497982
593.879420,0.498786
594.200320,0.499062
594.521180,0.493758
594.842000,0.503224
595.162780,0.496528
595.483520,0.496942
595.804220,0.496778
596.124880,0.496936
596.445500,0.494367
596.766080,0.503630
597.086620,0.503715
597.407120,0.493418
597.727580,0.497746
598.048000,0.495901
598.368380,0.494477
598.688720,0.489122
599.009020,0.496550
599.329280,0.491751
599.649500,0.497359
599.969680,0.492521
600.289820,0.493323
600.609920,0.494523
600.929980,0.492250
601.250000,0.496216
601.569980,0.499055
601.889920,0.492114
602.209820,0.496483
602.529680,0.500961
602.849500,0.495636
603.169280,0.497382
603.489020,0.492389
603.808720,0.495063
604.128380,0.499448
604.448000,0.491436
604.767580,0.488827
605.087120,0.491690
605.406620,0.500700
605.726080,0.499287
606.045500,0.489830
606.364880,0.495322
606.684220,0.498287
607.003520,0.491972
607.322780,0.487493
607.642000,0.490235
607.961180,0.492050
608.280320,0.491589
608.599420,0.487254
608.918480,0.499120
609.237500,0.494425
609.556480,0.494525
609.875420,0.488187
610.194320,0.489224
610.513180,0.488902
610.832000,0.491364
611.150780,0.497146
611.469520,0.498039
611.788220,0.495466
612.106880,0.491556
612.425500,0.494823
612.744080,0.498923
613.062620,0.491131
613.381120,0.483851
613.699580,0.489270
614.018000,0.485258
614.336380,0.495065
614.654720,0.488992
614.973020,0.491515
615.291280,0.487450
615.609500,0.491601
615.927680,0.481459
616.245820,0.487013
616.563920,0.496425
616.881980,0.488619
617.200000,0.485537
617.517980,0.485999
617.835920,0.481516
618.153820,0.484302
618.471680,0.474729
618.789500,0.491504
619.107280,0.482942
619.425020,0.488424
619.742720,0.478657
620.060380,0.481040
620.378000,0.486469
620.695580,0.494253
621.013120,0.483465
621.330620,0.490744
621.648080,0.475710
621.965500,0.475220
622.282880,0.480769
622.600220,0.487997
622.917520,0.485507
623.234780,0.495018
623.552000,0.495544
623.869180,0.480933
624.186320,0.488061
624.503420,0.495611
624.820480,0.485391
625.137500,0.491948
625.454480,0.487965
625.771420,0.484552
626.088320,0.486444
626.405180,0.483821
626.722000,0.483375
627.038780,0.481516
627.355520,0.482812
627.672220,0.484914
627.988880,0.483981
628.305500,0.488937
628.622080,0.485750
628.938620,0.480122
629.255120,0.483199
629.571580,0.480539
629.888000,0.480209
630.204380,0.485425
630.520720,0.481109
630.837020,0.476102
631.153280,0.486211
631.469500,0.485143
631.785680,0.487342
632.101820,0.481001
632.417920,0.482861
632.733980,0.482893
633.050000,0.489388
633.365980,0.486366
633.681920,0.482697
633.997820,0.483861
634.313680,0.487762
634.629500,0.484518
634.945280,0.481525
635.261020,0.481949
635.576720,0.484146
635.892380,0.486494
636.208000,0.481987
636.523580,0.486700
636.839120,0.487551
637.154620,0.475652
637.470080,0.482066
637.785500,0.484467
638.100880,0.489140
638.416220,0.482600
638.731520,0.482808
639.046780,0.484125
639.362000,0.483085
639.677180,0.480583
639.992320,0.477869
640.307420,0.484968
640.622480,0.483338
640.937500,0.477947
641.252480,0.482826
641.567420,0.492185
641.882320,0.485523
642.197180,0.488770
642.512000,0.486986
642.826780,0.482940
643.141520,0.484301
643.456220,0.481461
643.770880,0.482863
644.085500,0.484908
644.400080,0.483708
644.714620,0.485229
645.029120,0.483223
645.343580,0.483818
645.658000,0.481821
645.972380,0.479857
646.286720,0.477787
646.601020,0.487683
646.915280,0.484234
647.229500,0.479670
647.543680,0.479702
647.857820,0.481420
648.171920,0.483993
648.485980,0.473554
648.800000,0.474786
649.113980,0.481707
649.427920,0.483773
649.741820,0.484474
650.055680,0.485738
650.369500,0.487108
650.683280,0.474750
650.997020,0.481573
651.310720,0.482939
651.624380,0.478846
651.938000,0.481440
652.251580,0.478152
652.565120,0.475685
652.878620,0.486486
653.192080,0.476404
653.505500,0.472090
653.818880,0.490759
654.132220,0.477927
654.445520,0.478729
654.758780,0.475071
655.072000,0.477650
655.385180,0.471327
655.698320,0.472135
656.011420,0.471482
656.324480,0.476537
656.637500,0.473928
656.950480,0.477686
657.263420,0.474135
657.576320,0.468426
657.889180,0.480094
658.202000,0.474940
658.514780,0.474546
658.827520,0.479292
659.140220,0.467186
659.452880,0.478707
659.765500,0.473811
660.078080,0.467650
660.390620,0.475099
660.703120,0.473877
661.015580,0.470245
661.328000,0.477015
661.640380,0.470332
661.952720,0.469636
662.265020,0.474795
662.577280,0.475827
662.889500,0.470829
663.201680,0.469368
663.513820,0.469283
663.825920,0.470701
664.137980,0.471881
664.450000,0.460358
664.761980,0.465794
665.073920,0.467056
665.385820,0.462369
665.697680,0.473388
666.009500,0.472564
666.321280,0.468522
666.633020,0.468750
666.944720,0.466801
667.256380,0.467699
667.568000,0.472147
667.879580,0.476190
668.191120,0.471154
668.502620,0.470387
668.814080,0.475439
669.125500,0.465960
669.436880,0.470609
669.748220,0.465905
670.059520,0.469538
670.370780,0.467641
670.682000,0.467611
670.993180,0.463002
671.304320,0.460619
671.615420,0.457031
671.926480,0.467353
672.237500,0.466595
672.548480,0.461320
672.859420,0.466762
673.170320,0.470802
673.481180,0.471760
673.792000,0.459430
674.102780,0.462118
674.413520,0.468465
674.724220,0.465699
675.034880,0.467913
675.345500,0.467177
675.656080,0.459528
675.966620,0.463077
676.277120,0.466130
676.587580,0.462813
676.898000,0.466592
677.208380,0.464325
677.518720,0.456966
677.829020,0.457502
678.139280,0.462194
678.449500,0.457482
678.759680,0.463095
679.069820,0.455762
679.379920,0.461335
679.689980,0.449684
680.000000,0.456075
680.309980,0.456199
680.619920,0.468005
680.929820,0.463233
681.239680,0.458641
681.549500,0.453333
681.859280,0.462659
682.169020,0.463633
682.478720,0.471578
682.788380,0.459579
683.098000,0.454375
683.407580,0.454784
683.717120,0.460210
684.026620,0.455572
684.336080,0.459265
684.645500,0.455294
684.954880,0.462410
685.264220,0.459041
685.573520,0.458698
685.882780,0.464519
686.192000,0.450715
686.501180,0.455921
686.810320,0.461952
687.119420,0.459141
687.428480,0.455754
687.737500,0.452801
688.046480,0.454755
688.355420,0.459449
688.664320,0.455624
688.973180,0.459035
689.282000,0.461034
689.590780,0.458206
689.899520,0.454235
690.208220,0.463303
690.516880,0.453608
690.825500,0.457358
691.134080,0.452923
691.442620,0.458079
691.751120,0.458096
692.059580,0.460069
692.368000,0.452480
692.676380,0.456107
692.984720,0.453817
693.293020,0.454787
693.601280,0.452118
693.909500,0.452894
694.217680,0.450876
694.525820,0.460396
694.833920,0.453644
695.141980,0.456228
695.450000,0.449237
695.757980,0.453782
696.065920,0.453981
696.373820,0.453426
696.681680,0.452628
696.989500,0.448090
697.297280,0.451964
697.605020,0.459524
697.912720,0.451576
698.220380,0.447855
698.528000,0.452532
698.835580,0.444883
699.143120,0.443882
699.450620,0.449085
699.758080,0.446667
700.065500,0.454110
700.372880,0.462000
700.680220,0.449541
700.987520,0.451984
701.294780,0.454582
701.602000,0.451664
701.909180,0.454690
702.216320,0.444271
702.523420,0.456196
702.830480,0.453069
703.137500,0.445830
703.444480,0.447732
703.751420,0.450099
704.058320,0.448358
704.365180,0.445584
704.672000,0.457030
704.978780,0.445572
705.285520,0.444444
705.592220,0.439608
705.898880,0.444838
706.205500,0.450704
706.512080,0.458136
706.818620,0.444272
707.125120,0.443077
707.431580,0.443923
707.738000,0.449219
708.044380,0.445774
708.350720,0.445548
708.657020,0.455256
708.963280,0.449922
709.269500,0.442661
709.575680,0.449116
709.881820,0.446148
710.187920,0.454475
710.493980,0.444919
710.800000,0.435164
711.105980,0.433358
711.411920,0.441466
711.717820,0.446784
712.023680,0.437621
712.329500,0.448344
712.635280,0.442248
712.941020,0.443371
713.246720,0.446245
713.552380,0.445840
713.858000,0.444620
714.163580,0.439621
714.469120,0.440016
714.774620,0.446111
715.080080,0.445622
715.385500,0.440847
715.690880,0.441026
715.996220,0.442948
716.301520,0.429644
716.606780,0.445362
716.912000,0.451535
717.217180,0.443735
717.522320,0.437376
717.827420,0.446298
718.132480,0.437575
718.437500,0.437424
718.742480,0.442742
719.047420,0.437702
719.352320,0.436696
719.657180,0.444808
719.962000,0.441687
720.266780,0.431658
720.571520,0.430406
720.876220,0.434943
721.180880,0.435201
721.485500,0.436272
721.790080,0.438217
722.094620,0.445111
722.399120,0.449806
722.703580,0.433348
723.008000,0.440707
723.312380,0.437796
723.616720,0.432639
723.921020,0.427025
724.225280,0.438045
724.529500,0.434326
724.833680,0.447064
725.137820,0.423348
725.441920,0.436915
725.745980,0.426846
726.050000,0.441588
726.353980,0.429022
726.657920,0.429150
726.961820,0.435616
727.265680,0.436431
727.569500,0.432815
727.873280,0.432333
728.177020,0.434823
728.480720,0.437963
728.784380,0.442461
729.088000,0.438059
729.391580,0.443865
729.695120,0.438100
729.998620,0.445507
730.302080,0.430562
730.605500,0.435711
730.908880,0.436551
731.212220,0.425073
731.515520,0.432960
731.818780,0.429612
732.122000,0.442913
732.425180,0.423854
732.728320,0.427863
733.031420,0.427068
733.334480,0.427041
733.637500,0.425907
733.940480,0.433982
734.243420,0.436799
734.546320,0.436203
734.849180,0.423554
735.152000,0.426867
735.454780,0.422004
735.757520,0.428346
736.060220,0.433386
736.362880,0.425945
736.665500,0.419843
736.968080,0.427190
737.270620,0.436037
737.573120,0.423581
737.875580,0.430456
738.178000,0.432226
738.480380,0.434595
738.782720,0.420938
739.085020,0.421806
739.387280,0.428492
739.689500,0.433182
739.991680,0.423919
740.293820,0.437258
740.595920,0.429605
740.897980,0.429701
741.200000,0.432417
741.501980,0.425215
741.803920,0.420045
742.105820,0.417936
742.407680,0.426325
742.709500,0.423864
743.011280,0.426729
743.313020,0.426667
743.614720,0.417295
743.916380,0.420930
744.218000,0.428401
744.519580,0.420290
744.821120,0.425749
745.122620,0.423607
745.424080,0.419471
745.725500,0.421847
746.026880,0.424877
746.328220,0.427250
746.629520,0.413606
746.930780,0.413603
747.232000,0.417535
747.533180,0.423429
747.834320,0.419355
748.135420,0.415786
748.436480,0.418590
748.737500,0.430513
749.038480,0.417227
749.339420,0.423149
749.640320,0.424890
749.941180,0.429731
750.242000,0.417085
750.542780,0.420596
750.843520,0.430493
751.144220,0.416667
751.444880,0.419784
751.745500,0.422078
752.046080,0.422707
752.346620,0.413660
752.647120,0.420640
752.947580,0.412678
753.248000,0.413926
753.548380,0.415094
753.848720,0.413393
754.149020,0.411348
754.449280,0.416284
754.749500,0.404778
755.049680,0.420667
755.349820,0.422282
755.649920,0.416391
755.949980,0.415395
756.250000,0.421433
756.549980,0.401320
756.849920,0.415364
757.149820,0.407851
757.449680,0.417162
757.749500,0.415133
758.049280,0.413652
758.349020,0.419332
758.648720,0.425121
758.948380,0.416495
759.248000,0.416442
759.547580,0.426362
759.847120,0.416954
760.146620,0.417456
760.446080,0.411290
760.745500,0.413986
761.044880,0.424006
761.344220,0.416251
761.643520,0.406073
761.942780,0.420574
762.242000,0.418670
762.541180,0.412676
762.840320,0.409410
763.139420,0.414909
763.438480,0.410116
763.737500,0.414197
764.036480,0.412998
764.335420,0.417078
764.634320,0.416493
764.933180,0.406849
765.232000,0.403886
765.530780,0.416842
765.829520,0.411189
766.128220,0.413361
766.426880,0.412935
766.725500,0.420836
767.024080,0.419067
767.322620,0.416321
767.621120,0.414634
767.919580,0.411604
768.218000,0.411081
768.516380,0.408384
768.814720,0.406722
769.113020,0.412819
769.411280,0.416436
769.709500,0.406631
770.007680,0.398773
770.305820,0.405680
770.603920,0.398922
770.901980,0.411202
771.200000,0.406250
771.497980,0.394772
771.795920,0.405351
772.093820,0.405749
772.391680,0.410679
772.689500,0.410135
772.987280,0.401347
773.285020,0.409433
773.582720,0.408784
773.880380,0.412491
774.178000,0.408998
774.475580,0.405224
774.773120,0.402945
775.070620,0.410412
775.368080,0.416166
775.665500,0.411686
775.962880,0.406938
776.260220,0.408479
776.557520,0.400267
776.854780,0.400270
777.152000,0.403846
777.449180,0.407283
777.746320,0.403898
778.043420,0.403138
778.340480,0.410014
778.637500,0.415145
778.934480,0.406859
779.231420,0.405020
779.528320,0.399466
779.825180,0.388011
780.122000,0.393758
780.418780,0.415185
780.715520,0.407109
781.012220,0.414384
781.308880,0.402299
781.605500,0.407534
781.902080,0.403149
782.198620,0.401914
782.495120,0.416324
782.791580,0.405777
783.088000,0.403727
783.384380,0.407153
783.680720,0.391245
783.977020,0.404680
784.273280,0.410490
784.569500,0.412299
784.865680,0.413074
785.161820,0.399306
785.457920,0.395010
785.753980,0.397767
786.050000,0.400552
786.345980,0.403472
786.641920,0.392783
786.937820,0.413105
787.233680,0.398051
787.529500,0.395978
787.825280,0.392351
788.121020,0.402975
788.416720,0.394495
788.712380,0.399154
789.008000,0.398725
789.303580,0.398587
789.599120,0.408727
789.894620,0.405054
790.190080,0.389413
790.485500,0.390209
790.780880,0.394982
791.076220,0.404040
791.371520,0.394336
791.666780,0.405818
791.962000,0.401176
792.257180,0.402635
792.552320,0.403916
792.847420,0.403202
793.142480,0.396337
793.437500,0.396527
793.732480,0.395026
794.027420,0.399110
794.322320,0.393736
794.617180,0.397474
794.912000,0.394502
795.206780,0.390753
795.501520,0.406084
795.796220,0.388889
796.090880,0.403919
796.385500,0.398051
796.680080,0.395662
796.974620,0.390719
797.269120,0.389856
797.563580,0.398473
797.858000,0.388762
798.152380,0.401392
798.446720,0.410769
798.741020,0.397535
799.035280,0.397516
799.329500,0.397998
799.623680,0.405426
