399.985280,0.500000
400.329500,0.513514
400.673680,0.506329
401.017820,0.573529
401.361920,0.530303
401.705980,0.426829
402.050000,0.480519
402.393980,0.552941
402.737920,0.505618
403.081820,0.463918
403.425680,0.534884
403.769500,0.479167
404.113280,0.459770
404.457020,0.505618
404.800720,0.467391
405.144380,0.484848
405.488000,0.537634
405.831580,0.515464
406.175120,0.510638
406.518620,0.520000
406.862080,0.546392
407.205500,0.500000
407.548880,0.551020
407.892220,0.470588
408.235520,0.500000
408.578780,0.523810
408.922000,0.471154
409.265180,0.484848
409.608320,0.494949
409.951420,0.536082
410.294480,0.588235
410.637500,0.532609
410.980480,0.529412
411.323420,0.591837
411.666320,0.532110
412.009180,0.563636
412.352000,0.504950
412.694780,0.513761
413.037520,0.495413
413.380220,0.495495
413.722880,0.500000
414.065500,0.513514
414.408080,0.504425
414.750620,0.504425
415.093120,0.504132
415.435580,0.537815
415.778000,0.515152
416.120380,0.495798
416.462720,0.539683
416.805020,0.571429
417.147280,0.522388
417.489500,0.564286
417.831680,0.472603
418.173820,0.510638
418.515920,0.531469
418.857980,0.531646
419.200000,0.519231
419.541980,0.526627
419.883920,0.494382
420.225820,0.520231
420.567680,0.525140
420.909500,0.530055
421.251280,0.505208
421.593020,0.515306
421.934720,0.525253
422.276380,0.492308
422.618000,0.534314
422.959580,0.558824
423.301120,0.515982
423.642620,0.478261
423.984080,0.506977
424.325500,0.515695
424.666880,0.495690
425.008220,0.504202
425.349520,0.521186
425.690780,0.507692
426.032000,0.498039
426.373180,0.522822
426.714320,0.523437
427.055420,0.482625
427.396480,0.505618
427.737500,0.509881
428.078480,0.486166
428.419420,0.534137
428.760320,0.524904
429.101180,0.547244
429.442000,0.524904
429.782780,0.515385
430.123520,0.521569
430.464220,0.516605
430.804880,0.540230
431.145500,0.487273
431.486080,0.520599
431.826620,0.531008
432.167120,0.481618
432.507580,0.543478
432.848000,0.492806
433.188380,0.509025
433.528720,0.505660
433.869020,0.507143
434.209280,0.463158
434.549500,0.512195
434.889680,0.515152
435.229820,0.511945
435.569920,0.515571
435.909980,0.495146
436.250000,0.518644
436.589980,0.507740
436.929920,0.526984
437.269820,0.485893
437.609680,0.485207
437.949500,0.509036
438.289280,0.535411
438.629020,0.540698
438.968720,0.531977
439.308380,0.487805
439.648000,0.531507
439.987580,0.523810
440.327120,0.512000
440.666620,0.516883
441.006080,0.526854
441.345500,0.515971
441.684880,0.500000
442.024220,0.491315
442.363520,0.511905
442.702780,0.500000
443.042000,0.539648
443.381180,0.519397
443.720320,0.509719
444.059420,0.502101
444.398480,0.504184
444.737500,0.497951
445.076480,0.515873
445.415420,0.510978
445.754320,0.492723
446.093180,0.506422
446.432000,0.520677
446.770780,0.497154
447.109520,0.518382
447.448220,0.488372
447.786880,0.506261
448.125500,0.513793
448.464080,0.485714
448.802620,0.510638
449.141120,0.498270
449.479580,0.508741
449.818000,0.500861
450.156380,0.496656
450.494720,0.502479
450.833020,0.493007
451.171280,0.501712
451.509500,0.505226
451.847680,0.509275
452.185820,0.500861
452.523920,0.515464
452.861980,0.502530
453.200000,0.506645
453.537980,0.502521
453.875920,0.499160
454.213820,0.491438
454.551680,0.496689
454.889500,0.490725
455.227280,0.501779
455.565020,0.490787
455.902720,0.519135
456.240380,0.499168
456.578000,0.524390
456.915580,0.525043
457.253120,0.500000
457.590620,0.499179
457.928080,0.518519
458.265500,0.508446
458.602880,0.503247
458.940220,0.517766
459.277520,0.489600
459.614780,0.495908
459.952000,0.482919
460.289180,0.511076
460.626320,0.508661
460.963420,0.495961
461.300480,0.509174
461.637500,0.510015
461.974480,0.519878
462.311420,0.511177
462.648320,0.491947
462.985180,0.510760
463.322000,0.514881
463.658780,0.498619
463.995520,0.497937
464.332220,0.497230
464.668880,0.489247
465.005500,0.510724
465.342080,0.483995
465.678620,0.517835
466.015120,0.505821
466.351580,0.512010
466.688000,0.496955
467.024380,0.492102
467.360720,0.513636
467.697020,0.489749
468.033280,0.514444
468.369500,0.512141
468.705680,0.508455
469.041820,0.503125
469.377920,0.506508
469.713980,0.501545
470.050000,0.504348
470.385980,0.497065
470.721920,0.502449
471.057820,0.506823
471.393680,0.492984
471.729500,0.494903
472.065280,0.503578
472.401020,0.492021
472.736720,0.496510
473.072380,0.500898
473.408000,0.495213
473.743580,0.500000
474.079120,0.503876
474.414620,0.502120
474.750080,0.482506
475.085500,0.495066
475.420880,0.492923
475.756220,0.493868
476.091520,0.499574
476.426780,0.495146
476.762000,0.489139
477.097180,0.493600
477.432320,0.513732
477.767420,0.498366
478.102480,0.502362
478.437500,0.509031
478.772480,0.478329
479.107420,0.493084
479.442320,0.497202
479.777180,0.516309
480.112000,0.483821
480.446780,0.478566
480.781520,0.480676
481.116220,0.496362
481.450880,0.479313
481.785500,0.496044
482.120080,0.496865
482.454620,0.504274
482.789120,0.500000
483.123580,0.497664
483.458000,0.508703
483.792380,0.498403
484.126720,0.484942
484.461020,0.483997
484.795280,0.488820
485.129500,0.499610
485.463680,0.500775
485.797820,0.494557
486.131920,0.481255
486.465980,0.491892
486.800000,0.498473
487.133980,0.480363
487.467920,0.495792
487.801820,0.499619
488.135680,0.492798
488.469500,0.484871
488.803280,0.488113
489.137020,0.496703
489.470720,0.485163
489.804380,0.489235
490.138000,0.489614
490.471580,0.497421
490.805120,0.490350
491.138620,0.488984
491.472080,0.489753
491.805500,0.493724
492.138880,0.485754
492.472220,0.481661
492.805520,0.502095
493.138780,0.492764
493.472000,0.484281
493.805180,0.501364
494.138320,0.490994
494.471420,0.500651
494.804480,0.499353
495.137500,0.498074
495.470480,0.502868
495.803420,0.488665
496.136320,0.500000
496.469180,0.489257
496.802000,0.489609
497.134780,0.496665
497.467520,0.500917
497.800220,0.489976
498.132880,0.500294
498.465500,0.493048
498.798080,0.492580
499.130620,0.492981
499.463120,0.493543
499.795580,0.488449
500.128000,0.487193
500.460380,0.496233
500.792720,0.492047
501.125020,0.487651
501.457280,0.492428
501.789500,0.493802
502.121680,0.497667
502.453820,0.495156
502.785920,0.497249
503.117980,0.495584
503.450000,0.502260
503.781980,0.489786
504.113920,0.483167
504.445820,0.491492
504.777680,0.493647
505.109500,0.496635
505.441280,0.499522
505.773020,0.484265
506.104720,0.492228
506.436380,0.496451
506.768000,0.490645
507.099580,0.491076
507.431120,0.496487
507.762620,0.492481
508.094080,0.484047
508.425500,0.492530
508.756880,0.487883
509.088220,0.484821
509.419520,0.490223
509.750780,0.499531
510.082000,0.490672
510.413180,0.487333
510.744320,0.494248
511.075420,0.486709
511.406480,0.491302
511.737500,0.481019
512.068480,0.486372
512.399420,0.491549
512.730320,0.483603
513.061180,0.487155
513.392000,0.488878
513.722780,0.494717
514.053520,0.488261
514.384220,0.481922
514.714880,0.487793
515.045500,0.485153
515.376080,0.488136
515.706620,0.479786
516.037120,0.484804
516.367580,0.489897
516.698000,0.483333
517.028380,0.498510
517.358720,0.491358
517.689020,0.491098
518.019280,0.486703
518.349500,0.493158
518.679680,0.486623
519.009820,0.490385
519.339920,0.486473
519.669980,0.480663
520.000000,0.484463
520.329980,0.489373
520.659920,0.485685
520.989820,0.480908
521.319680,0.497428
521.649500,0.489460
521.979280,0.495825
522.309020,0.488589
522.638720,0.480287
522.968380,0.497415
523.298000,0.485908
523.627580,0.484739
523.957120,0.488312
524.286620,0.484627
524.616080,0.485522
524.945500,0.485788
525.274880,0.490508
525.604220,0.491718
525.933520,0.489518
526.262780,0.480487
526.592000,0.489092
526.921180,0.484510
527.250320,0.478437
527.579420,0.496716
527.908480,0.483998
528.237500,0.483615
528.566480,0.487026
528.895420,0.494332
529.224320,0.491828
529.553180,0.485301
529.882000,0.494404
530.210780,0.481660
530.539520,0.495206
530.868220,0.486357
531.196880,0.490683
531.525500,0.496852
531.854080,0.483583
532.182620,0.478748
532.511120,0.485383
532.839580,0.495009
533.168000,0.481768
533.496380,0.494977
533.824720,0.482279
534.153020,0.489969
534.481280,0.491189
534.809500,0.495163
535.137680,0.490451
535.465820,0.488832
535.793920,0.486887
536.121980,0.495594
536.450000,0.488372
536.777980,0.497277
537.105920,0.481943
537.433820,0.486498
537.761680,0.494694
538.089500,0.496965
538.417280,0.483088
538.745020,0.492472
539.072720,0.493167
539.400380,0.487179
539.728000,0.492925
540.055580,0.487640
540.383120,0.487714
540.710620,0.491443
541.038080,0.487274
541.365500,0.491544
541.692880,0.496003
542.020220,0.489025
542.347520,0.494616
542.674780,0.485886
543.002000,0.484955
543.329180,0.496668
543.656320,0.500352
543.983420,0.490598
544.310480,0.482501
544.637500,0.494029
544.964480,0.491588
545.291420,0.485543
545.618320,0.485060
545.945180,0.483850
546.272000,0.487221
546.598780,0.487381
546.925520,0.488295
547.252220,0.486959
547.578880,0.487455
547.905500,0.489216
548.232080,0.484405
548.558620,0.484868
548.885120,0.486752
549.211580,0.491803
549.538000,0.488975
549.864380,0.483601
550.190720,0.486277
550.517020,0.484681
550.843280,0.477850
551.169500,0.473282
551.495680,0.491459
551.821820,0.489876
552.147920,0.488939
552.473980,0.487323
552.800000,0.478417
553.125980,0.482646
553.451920,0.490378
553.777820,0.487675
554.103680,0.488709
554.429500,0.480080
554.755280,0.481976
555.081020,0.479947
555.406720,0.480190
555.732380,0.481193
556.058000,0.486762
556.383580,0.483738
556.709120,0.477257
557.034620,0.491216
557.360080,0.485665
557.685500,0.485131
558.010880,0.475217
558.336220,0.473462
558.661520,0.485643
558.986780,0.491141
559.312000,0.475427
559.637180,0.489408
559.962320,0.485226
560.287420,0.490127
560.612480,0.484751
560.937500,0.483847
561.262480,0.480938
561.587420,0.486761
561.912320,0.484156
562.237180,0.478164
562.562000,0.481107
562.886780,0.488666
563.211520,0.484352
563.536220,0.478664
563.860880,0.482082
564.185500,0.479925
564.510080,0.484951
564.834620,0.479345
565.159120,0.483459
565.483580,0.469403
565.808000,0.479001
566.132380,0.478553
566.456720,0.478080
566.781020,0.482746
567.105280,0.474102
567.429500,0.482929
567.753680,0.485999
568.077820,0.481252
568.401920,0.488159
568.725980,0.487287
569.050000,0.479848
569.373980,0.473925
569.697920,0.483504
570.021820,0.482397
570.345680,0.479143
570.669500,0.474628
570.993280,0.476929
571.317020,0.472780
571.640720,0.484994
571.964380,0.480327
572.288000,0.481083
572.611580,0.478472
572.935120,0.478489
573.258620,0.481301
573.582080,0.479508
573.905500,0.483991
574.228880,0.482183
574.552220,0.485526
574.875520,0.482130
575.198780,0.478135
575.522000,0.478739
575.845180,0.471705
576.168320,0.477902
576.491420,0.484012
576.814480,0.475226
577.137500,0.482323
577.460480,0.483509
577.783420,0.479814
578.106320,0.480769
578.429180,0.483563
578.752000,0.478638
579.074780,0.481794
579.397520,0.484183
579.720220,0.481017
580.042880,0.480013
580.365500,0.473858
580.688080,0.480326
581.010620,0.479582
581.333120,0.480962
581.655580,0.481185
581.978000,0.481543
582.300380,0.480688
582.622720,0.483850
582.945020,0.476593
583.267280,0.482579
583.589500,0.481220
583.911680,0.487139
584.233820,0.478124
584.555920,0.482824
584.877980,0.484611
585.200000,0.476366
585.521980,0.480692
585.843920,0.476815
586.165820,0.476539
586.487680,0.476076
586.809500,0.479448
587.131280,0.480035
587.453020,0.487202
587.774720,0.479007
588.096380,0.477538
588.418000,0.487270
588.739580,0.483760
589.061120,0.481311
589.382620,0.480516
589.704080,0.472651
590.025500,0.486587
590.346880,0.478640
590.668220,0.476057
590.989520,0.476983
591.310780,0.476940
591.632000,0.477869
591.953180,0.478550
592.274320,0.473109
592.595420,0.476024
592.916480,0.480033
593.237500,0.484236
593.558480,0.476998
593.879420,0.481252
594.200320,0.489151
594.521180,0.488712
594.842000,0.488716
595.162780,0.484241
595.483520,0.486839
595.804220,0.483351
596.124880,0.484945
596.445500,0.478124
596.766080,0.486959
597.086620,0.482484
597.407120,0.483412
597.727580,0.483957
598.048000,0.471833
598.368380,0.482115
598.688720,0.476278
599.009020,0.477972
599.329280,0.480309
599.649500,0.477285
599.969680,0.473291
600.289820,0.482639
600.609920,0.478226
600.929980,0.477552
601.250000,0.476486
601.569980,0.478531
601.889920,0.476611
602.209820,0.476190
602.529680,0.483384
602.849500,0.477360
603.169280,0.475889
603.489020,0.479934
603.808720,0.476687
604.128380,0.481236
604.448000,0.470994
604.767580,0.481844
605.087120,0.472853
605.406620,0.470473
605.726080,0.487596
606.045500,0.464196
606.364880,0.475475
606.684220,0.473729
607.003520,0.478211
607.322780,0.478113
607.642000,0.468983
607.961180,0.469789
608.280320,0.470128
608.599420,0.466107
608.918480,0.475660
609.237500,0.469190
609.556480,0.476768
609.875420,0.471057
610.194320,0.466194
610.513180,0.471737
610.832000,0.477070
611.150780,0.476419
611.469520,0.470287
611.788220,0.473096
612.106880,0.465621
612.425500,0.473508
612.744080,0.473992
613.062620,0.472171
613.381120,0.466179
613.699580,0.470264
614.018000,0.471437
614.336380,0.471314
614.654720,0.469767
614.973020,0.475779
615.291280,0.467927
615.609500,0.480824
615.927680,0.467553
616.245820,0.469697
616.563920,0.464719
616.881980,0.467103
617.200000,0.466874
617.517980,0.460797
617.835920,0.465362
618.153820,0.465651
618.471680,0.460775
618.789500,0.471995
619.107280,0.469484
619.425020,0.464954
619.742720,0.466416
620.060380,0.463178
620.378000,0.464758
620.695580,0.464559
621.013120,0.464567
621.330620,0.469721
621.648080,0.457098
621.965500,0.465182
622.282880,0.462484
622.600220,0.467783
622.917520,0.470069
623.234780,0.470588
623.552000,0.467218
623.869180,0.471163
624.186320,0.470551
624.503420,0.473668
624.820480,0.467484
625.137500,0.476160
625.454480,0.462332
625.771420,0.461538
626.088320,0.462484
626.405180,0.464530
626.722000,0.468632
627.038780,0.461153
627.355520,0.469687
627.672220,0.464386
627.988880,0.462208
628.305500,0.471175
628.622080,0.470880
628.938620,0.463609
629.255120,0.473242
629.571580,0.467361
629.888000,0.467321
630.204380,0.468549
630.520720,0.465265
630.837020,0.469319
631.153280,0.463429
631.469500,0.468769
631.785680,0.466546
632.101820,0.462907
632.417920,0.466766
632.733980,0.465786
633.050000,0.466343
633.365980,0.464434
633.681920,0.465692
633.997820,0.464734
634.313680,0.467119
634.629500,0.468298
634.945280,0.464516
635.261020,0.462284
635.576720,0.466236
635.892380,0.458321
636.208000,0.459326
636.523580,0.470330
636.839120,0.467284
637.154620,0.467246
637.470080,0.465136
637.785500,0.470399
638.100880,0.461917
638.416220,0.467645
638.731520,0.463037
639.046780,0.466065
639.362000,0.462729
639.677180,0.472302
639.992320,0.466310
640.307420,0.467266
640.622480,0.459535
640.937500,0.464078
641.252480,0.466071
641.567420,0.466610
641.882320,0.459354
642.197180,0.469118
642.512000,0.466275
642.826780,0.472399
643.141520,0.460961
643.456220,0.463752
643.770880,0.467662
644.085500,0.463108
644.400080,0.466292
644.714620,0.462375
645.029120,0.467272
645.343580,0.464070
645.658000,0.464335
645.972380,0.467799
646.286720,0.463887
646.601020,0.463327
646.915280,0.460378
647.229500,0.463736
647.543680,0.461475
647.857820,0.464630
648.171920,0.460933
648.485980,0.460674
648.800000,0.458253
649.113980,0.463137
649.427920,0.467129
649.741820,0.463314
650.055680,0.462150
650.369500,0.464686
650.683280,0.457825
650.997020,0.463971
651.310720,0.467529
651.624380,0.464560
651.938000,0.456233
652.251580,0.459226
652.565120,0.457798
652.878620,0.453266
653.192080,0.454775
653.505500,0.453576
653.818880,0.467444
654.132220,0.458844
654.445520,0.455757
654.758780,0.451275
655.072000,0.459599
655.385180,0.449929
655.698320,0.452701
656.011420,0.452565
656.324480,0.449432
656.637500,0.455968
656.950480,0.452730
657.263420,0.456991
657.576320,0.458346
657.889180,0.457092
658.202000,0.455918
658.514780,0.451027
658.827520,0.454682
659.140220,0.448607
659.452880,0.457264
659.765500,0.452137
660.078080,0.445983
660.390620,0.455851
660.703120,0.454018
661.015580,0.455521
661.328000,0.460957
661.640380,0.454800
661.952720,0.448147
662.265020,0.454316
662.577280,0.450064
662.889500,0.450646
663.201680,0.460434
663.513820,0.452879
663.825920,0.452129
664.137980,0.462185
664.450000,0.450767
664.761980,0.446809
665.073920,0.446284
665.385820,0.447644
665.697680,0.449587
666.009500,0.460259
666.321280,0.450961
666.633020,0.452128
666.944720,0.447590
667.256380,0.449529
667.568000,0.449049
667.879580,0.443537
668.191120,0.445398
668.502620,0.444368
668.814080,0.452632
669.125500,0.444749
669.436880,0.443638
669.748220,0.438560
670.059520,0.449930
670.370780,0.445372
670.682000,0.450265
670.993180,0.450669
671.304320,0.444093
671.615420,0.448509
671.926480,0.443222
672.237500,0.441944
672.548480,0.441803
672.859420,0.444246
673.170320,0.450127
673.481180,0.443519
673.792000,0.443924
674.102780,0.444524
674.413520,0.449143
674.724220,0.438113
675.034880,0.451045
675.345500,0.447484
675.656080,0.439564
675.966620,0.445253
676.277120,0.448554
676.587580,0.444772
676.898000,0.442329
677.208380,0.438078
677.518720,0.431802
677.829020,0.438285
678.139280,0.446256
678.449500,0.440030
678.759680,0.442862
679.069820,0.433457
679.379920,0.449642
679.689980,0.438916
680.000000,0.432897
680.309980,0.442094
680.619920,0.442635
680.929820,0.444942
681.239680,0.438331
681.549500,0.442222
681.859280,0.445482
682.169020,0.437523
682.478720,0.442034
682.788380,0.438907
683.098000,0.440165
683.407580,0.438274
683.717120,0.439565
684.026620,0.442018
684.336080,0.444487
684.645500,0.436962
684.954880,0.435587
685.264220,0.445451
685.573520,0.444614
685.882780,0.442654
686.192000,0.439052
686.501180,0.446084
686.810320,0.440815
687.119420,0.441277
687.428480,0.436005
687.737500,0.443975
688.046480,0.437117
688.355420,0.437948
688.664320,0.435731
688.973180,0.432236
689.282000,0.444444
689.590780,0.437500
689.899520,0.425370
690.208220,0.434633
690.516880,0.434899
690.825500,0.436604
691.134080,0.435080
691.442620,0.440549
691.751120,0.435722
692.059580,0.437906
692.368000,0.439228
692.676380,0.431679
692.984720,0.427863
693.293020,0.430091
693.601280,0.430370
693.909500,0.429058
694.217680,0.431455
694.525820,0.443260
694.833920,0.435712
695.141980,0.439645
695.450000,0.436260
695.757980,0.428189
696.065920,0.420194
696.373820,0.437259
696.681680,0.428462
696.989500,0.428020
697.297280,0.431350
697.605020,0.428571
697.912720,0.430054
698.220380,0.423849
698.528000,0.431962
698.835580,0.425524
699.143120,0.426734
699.450620,0.430788
699.758080,0.421961
700.065500,0.435355
700.372880,0.434800
700.680220,0.430794
700.987520,0.432937
701.294780,0.431468
701.602000,0.432250
701.909180,0.429650
702.216320,0.426672
702.523420,0.438043
702.830480,0.434851
703.137500,0.426734
703.444480,0.425247
703.751420,0.435503
704.058320,0.433320
704.365180,0.430205
704.672000,0.427327
704.978780,0.426453
705.285520,0.423709
705.592220,0.423529
705.898880,0.427108
706.205500,0.428404
706.512080,0.423381
706.818620,0.428406
707.125120,0.430769
707.431580,0.422821
707.738000,0.435156
708.044380,0.431108
708.350720,0.428735
708.657020,0.428683
708.963280,0.428571
709.269500,0.425832
709.575680,0.422004
709.881820,0.425314
710.187920,0.426459
710.493980,0.432894
710.800000,0.425248
711.105980,0.428087
711.411920,0.417028
711.717820,0.421832
712.023680,0.418189
712.329500,0.436120
712.635280,0.437209
712.941020,0.427909
713.246720,0.424901
713.552380,0.425039
713.858000,0.424123
714.163580,0.422257
714.469120,0.422040
714.774620,0.420450
715.080080,0.424028
715.385500,0.424061
715.690880,0.427219
715.996220,0.424723
716.301520,0.428063
716.606780,0.420991
716.912000,0.422456
717.217180,0.428970
717.522320,0.419881
717.827420,0.425549
718.132480,0.419510
718.437500,0.422340
718.742480,0.416532
719.047420,0.423139
719.352320,0.421337
719.657180,0.431725
719.962000,0.421836
720.266780,0.415039
720.571520,0.419635
720.876220,0.419394
721.180880,0.414716
721.485500,0.417468
721.790080,0.418684
722.094620,0.425386
722.399120,0.420508
722.703580,0.418774
723.008000,0.421302
723.312380,0.419716
723.616720,0.416065
723.921020,0.423993
724.225280,0.420593
724.529500,0.416375
724.833680,0.418594
725.137820,0.415419
725.441920,0.422202
725.745980,0.416555
726.050000,0.417682
726.353980,0.413249
726.657920,0.403059
726.961820,0.416895
727.265680,0.425798
727.569500,0.412249
727.873280,0.411547
728.177020,0.414095
728.480720,0.415278
728.784380,0.417567
729.088000,0.417805
729.391580,0.417811
729.695120,0.421305
729.998620,0.411568
730.302080,0.413743
730.605500,0.424066
730.908880,0.412053
731.212220,0.407444
731.515520,0.411994
731.818780,0.405340
732.122000,0.412894
732.425180,0.418926
732.728320,0.411006
733.031420,0.404511
733.334480,0.419388
733.637500,0.407258
733.940480,0.412999
734.243420,0.418451
734.546320,0.415456
734.849180,0.408058
735.152000,0.401971
735.454780,0.401343
735.757520,0.410432
736.060220,0.401264
736.362880,0.409139
736.665500,0.404178
736.968080,0.411069
737.270620,0.418073
737.573120,0.414847
737.875580,0.410665
738.178000,0.408274
738.480380,0.407568
738.782720,0.396947
739.085020,0.404185
739.387280,0.410200
739.689500,0.407135
739.991680,0.405952
740.293820,0.405196
740.595920,0.409015
740.897980,0.404291
741.200000,0.406057
741.501980,0.403438
741.803920,0.407095
742.105820,0.404963
742.407680,0.410600
742.709500,0.394886
743.011280,0.408558
743.313020,0.404058
743.614720,0.404527
743.916380,0.408721
744.218000,0.408711
744.519580,0.409420
744.821120,0.404790
745.122620,0.399641
745.424080,0.396635
745.725500,0.405552
746.026880,0.409483
746.328220,0.406905
746.629520,0.389524
746.930780,0.408088
747.232000,0.398529
747.533180,0.395363
747.834320,0.397444
748.135420,0.398384
748.436480,0.396132
748.737500,0.395306
749.038480,0.398900
749.339420,0.411325
749.640320,0.400377
749.941180,0.400999
750.242000,0.393844
750.542780,0.398883
750.843520,0.405509
751.144220,0.395513
751.444880,0.403932
751.745500,0.390260
752.046080,0.405388
752.346620,0.393686
752.647120,0.399739
752.947580,0.395860
753.248000,0.396518
753.548380,0.398178
753.848720,0.392144
754.149020,0.391360
754.449280,0.409061
754.749500,0.390843
755.049680,0.401333
755.349820,0.388259
755.649920,0.398546
755.949980,0.394824
756.250000,0.400394
756.549980,0.395380
756.849920,0.390891
757.149820,0.398536
757.449680,0.392739
757.749500,0.398091
758.049280,0.395222
758.349020,0.392211
758.648720,0.409248
758.948380,0.397938
759.248000,0.397574
759.547580,0.392065
759.847120,0.396278
760.146620,0.394452
760.446080,0.397849
760.745500,0.399301
761.044880,0.406250
761.344220,0.397719
761.643520,0.399718
761.942780,0.399580
762.242000,0.398868
762.541180,0.392958
762.840320,0.391854
763.139420,0.404360
763.438480,0.391661
763.737500,0.390765
764.036480,0.403215
764.335420,0.394495
764.634320,0.393624
764.933180,0.397945
765.232000,0.392089
765.530780,0.400000
765.829520,0.399301
766.128220,0.391093
766.426880,0.402274
766.725500,0.389308
767.024080,0.395062
767.322620,0.392116
767.621120,0.385501
767.919580,0.392491
768.218000,0.389193
768.516380,0.391481
768.814720,0.391632
769.113020,0.397657
769.411280,0.399171
769.709500,0.388363
770.007680,0.391275
770.305820,0.388100
770.603920,0.390162
770.901980,0.391393
771.200000,0.381114
771.497980,0.380697
771.795920,0.394649
772.093820,0.380348
772.391680,0.392221
772.689500,0.383784
772.987280,0.390572
773.285020,0.388927
773.582720,0.386486
773.880380,0.396706
774.178000,0.391275
774.475580,0.399866
774.773120,0.394913
775.070620,0.388100
775.368080,0.392118
775.665500,0.373405
775.962880,0.387592
776.260220,0.393001
776.557520,0.389593
776.854780,0.390128
777.152000,0.391910
777.449180,0.392448
777.746320,0.385753
778.043420,0.390859
778.340480,0.383627
778.637500,0.398918
778.934480,0.388702
779.231420,0.384668
779.528320,0.384102
779.825180,0.384717
780.122000,0.380478
780.418780,0.399453
780.715520,0.386318
781.012220,0.392466
781.308880,0.384719
781.605500,0.389726
781.902080,0.379877
782.198620,0.386193
782.495120,0.375171
782.791580,0.387895
783.088000,0.385093
783.384380,0.382393
783.680720,0.383037
783.977020,0.386786
784.273280,0.393007
784.569500,0.381551
784.865680,0.383866
785.161820,0.385417
785.457920,0.381843
785.753980,0.389393
786.050000,0.381906
786.345980,0.383333
786.641920,0.386537
786.937820,0.383191
787.233680,0.382742
787.529500,0.372399
787.825280,0.392351
788.121020,0.378187
788.416720,0.368384
788.712380,0.371650
789.008000,0.380312
789.303580,0.383039
789.599120,0.383273
789.894620,0.392058
790.190080,0.381436
790.485500,0.371490
790.780880,0.384229
791.076220,0.388167
791.371520,0.387800
791.666780,0.391273
791.962000,0.384276
792.257180,0.378477
792.552320,0.379260
792.847420,0.379185
793.142480,0.386081
793.437500,0.375543
793.732480,0.370154
794.027420,0.382789
794.322320,0.377330
794.617180,0.379643
794.912000,0.375929
795.206780,0.377330
795.501520,0.380228
795.796220,0.380741
796.090880,0.376790
796.385500,0.376312
796.680080,0.373224
796.974620,0.380240
797.269120,0.364875
797.563580,0.383969
797.858000,0.378891
798.152380,0.384377
798.446720,0.380000
798.741020,0.381356
799.035280,0.368789
799.329500,0.376443
799.623680,0.388372
