399.985280,0.432432
400.329500,0.513514
400.673680,0.481013
401.017820,0.514706
401.361920,0.590909
401.705980,0.500000
402.050000,0.519481
402.393980,0.494118
402.737920,0.505618
403.081820,0.443299
403.425680,0.511628
403.769500,0.437500
404.113280,0.528736
404.457020,0.561798
404.800720,0.445652
405.144380,0.505051
405.488000,0.537634
405.831580,0.494845
406.175120,0.542553
406.518620,0.480000
406.862080,0.525773
407.205500,0.468750
407.548880,0.510204
407.892220,0.480392
408.235520,0.563830
408.578780,0.514286
408.922000,0.500000
409.265180,0.545455
409.608320,0.505051
409.951420,0.597938
410.294480,0.549020
410.637500,0.597826
410.980480,0.480392
411.323420,0.469388
411.666320,0.477064
412.009180,0.554545
412.352000,0.514851
412.694780,0.504587
413.037520,0.486239
413.380220,0.549550
413.722880,0.553571
414.065500,0.531532
414.408080,0.566372
414.750620,0.460177
415.093120,0.454545
415.435580,0.537815
415.778000,0.530303
416.120380,0.554622
416.462720,0.523810
416.805020,0.541353
417.147280,0.544776
417.489500,0.550000
417.831680,0.493151
418.173820,0.510638
418.515920,0.566434
418.857980,0.569620
419.200000,0.506410
419.541980,0.508876
419.883920,0.505618
420.225820,0.520231
420.567680,0.536313
420.909500,0.513661
421.251280,0.515625
421.593020,0.545918
421.934720,0.530303
422.276380,0.538462
422.618000,0.519608
422.959580,0.519608
423.301120,0.506849
423.642620,0.513043
423.984080,0.525581
424.325500,0.542601
424.666880,0.517241
425.008220,0.500000
425.349520,0.516949
425.690780,0.492308
426.032000,0.478431
426.373180,0.518672
426.714320,0.496094
427.055420,0.498069
427.396480,0.509363
427.737500,0.501976
428.078480,0.513834
428.419420,0.497992
428.760320,0.501916
429.101180,0.500000
429.442000,0.513410
429.782780,0.538462
430.123520,0.533333
430.464220,0.494465
430.804880,0.544061
431.145500,0.483636
431.486080,0.520599
431.826620,0.531008
432.167120,0.514706
432.507580,0.543478
432.848000,0.500000
433.188380,0.505415
433.528720,0.520755
433.869020,0.510714
434.209280,0.512281
434.549500,0.519164
434.889680,0.515152
435.229820,0.494881
435.569920,0.515571
435.909980,0.504854
436.250000,0.511864
436.589980,0.504644
436.929920,0.523810
437.269820,0.501567
437.609680,0.520710
437.949500,0.512048
438.289280,0.504249
438.629020,0.517442
438.968720,0.517442
439.308380,0.479675
439.648000,0.468493
439.987580,0.505291
440.327120,0.522667
440.666620,0.506494
441.006080,0.501279
441.345500,0.508600
441.684880,0.504785
442.024220,0.508685
442.363520,0.507143
442.702780,0.484091
443.042000,0.497797
443.381180,0.510776
443.720320,0.507559
444.059420,0.497899
444.398480,0.485356
444.737500,0.500000
445.076480,0.490079
445.415420,0.510978
445.754320,0.494802
446.093180,0.500917
446.432000,0.507519
446.770780,0.508539
447.109520,0.520221
447.448220,0.499106
447.786880,0.500894
448.125500,0.506897
448.464080,0.498214
448.802620,0.494681
449.141120,0.500000
449.479580,0.494755
449.818000,0.493976
450.156380,0.500000
450.494720,0.494215
450.833020,0.491259
451.171280,0.491438
451.509500,0.503484
451.847680,0.505902
452.185820,0.485370
452.523920,0.505155
452.861980,0.495784
453.200000,0.490033
453.537980,0.500840
453.875920,0.500840
454.213820,0.508562
454.551680,0.475166
454.889500,0.487352
455.227280,0.482206
455.565020,0.494137
455.902720,0.492512
456.240380,0.479201
456.578000,0.494774
456.915580,0.511226
457.253120,0.476974
457.590620,0.489327
457.928080,0.505051
458.265500,0.496622
458.602880,0.491883
458.940220,0.500846
459.277520,0.491200
459.614780,0.517185
459.952000,0.476708
460.289180,0.503165
460.626320,0.518110
460.963420,0.487884
461.300480,0.490826
461.637500,0.488444
461.974480,0.501529
462.311420,0.509687
462.648320,0.491947
462.985180,0.487805
463.322000,0.485119
463.658780,0.479282
463.995520,0.480055
464.332220,0.487535
464.668880,0.497312
465.005500,0.494638
465.342080,0.490397
465.678620,0.479705
466.015120,0.496766
466.351580,0.506953
466.688000,0.498173
467.024380,0.494532
467.360720,0.501136
467.697020,0.486333
468.033280,0.487778
468.369500,0.497792
468.705680,0.497182
469.041820,0.493750
469.377920,0.486985
469.713980,0.480947
470.050000,0.499517
470.385980,0.501957
470.721920,0.501469
471.057820,0.501949
471.393680,0.484565
471.729500,0.493976
472.065280,0.498211
472.401020,0.482270
472.736720,0.501745
473.072380,0.488330
473.408000,0.492602
473.743580,0.487024
474.079120,0.511628
474.414620,0.494487
474.750080,0.491456
475.085500,0.498355
475.420880,0.489592
475.756220,0.488144
476.091520,0.496164
476.426780,0.474110
476.762000,0.476267
477.097180,0.495200
477.432320,0.489499
477.767420,0.494281
478.102480,0.481890
478.437500,0.490969
478.772480,0.486210
479.107420,0.490643
479.442320,0.490008
479.777180,0.499602
480.112000,0.473035
480.446780,0.477786
480.781520,0.483092
481.116220,0.498787
481.450880,0.480874
481.785500,0.498418
482.120080,0.487461
482.454620,0.491064
482.789120,0.478503
483.123580,0.485981
483.458000,0.481013
483.792380,0.484026
484.126720,0.487259
484.461020,0.483216
484.795280,0.475713
485.129500,0.486360
485.463680,0.483721
485.797820,0.488336
486.131920,0.477429
486.465980,0.485714
486.800000,0.489313
487.133980,0.477341
487.467920,0.478959
487.801820,0.491991
488.135680,0.488249
488.469500,0.481846
488.803280,0.485884
489.137020,0.482784
489.470720,0.485905
489.804380,0.481811
490.138000,0.487389
490.471580,0.487104
490.805120,0.483202
491.138620,0.484009
491.472080,0.491873
491.805500,0.482566
492.138880,0.483669
492.472220,0.481661
492.805520,0.487430
493.138780,0.484493
493.472000,0.476923
493.805180,0.484311
494.138320,0.480320
494.471420,0.481120
494.804480,0.478655
495.137500,0.480103
495.470480,0.484385
495.803420,0.471662
496.136320,0.489975
496.469180,0.483118
496.802000,0.477384
497.134780,0.486962
497.467520,0.501529
497.800220,0.484670
498.132880,0.492063
498.465500,0.478563
498.798080,0.472603
499.130620,0.483436
499.463120,0.488490
499.795580,0.480198
500.128000,0.482834
500.460380,0.484930
500.792720,0.474549
501.125020,0.471886
501.457280,0.483551
501.789500,0.483988
502.121680,0.495594
502.453820,0.482917
502.785920,0.477739
503.117980,0.491658
503.450000,0.494224
503.781980,0.473343
504.113920,0.481271
504.445820,0.486145
504.777680,0.485647
505.109500,0.485577
505.441280,0.495698
505.773020,0.478628
506.104720,0.480452
506.436380,0.489352
506.768000,0.484097
507.099580,0.483295
507.431120,0.481030
507.762620,0.484492
508.094080,0.479034
508.425500,0.481326
508.756880,0.483310
509.088220,0.483441
509.419520,0.486499
509.750780,0.493440
510.082000,0.481343
510.413180,0.479963
510.744320,0.493327
511.075420,0.478460
511.406480,0.479079
511.737500,0.483333
512.068480,0.486842
512.399420,0.475117
512.730320,0.472517
513.061180,0.478592
513.392000,0.481306
513.722780,0.475504
514.053520,0.485865
514.384220,0.473834
514.714880,0.480134
515.045500,0.474138
515.376080,0.477966
515.706620,0.490015
516.037120,0.479412
516.367580,0.472154
516.698000,0.475980
517.028380,0.486594
517.358720,0.471111
517.689020,0.480218
518.019280,0.477170
518.349500,0.486569
518.679680,0.478041
519.009820,0.477227
519.339920,0.479459
519.669980,0.476645
520.000000,0.484972
520.329980,0.477449
520.659920,0.473415
520.989820,0.481940
521.319680,0.486111
521.649500,0.481234
521.979280,0.481211
522.309020,0.475622
522.638720,0.475678
522.968380,0.471044
523.298000,0.479123
523.627580,0.485773
523.957120,0.471169
524.286620,0.481501
524.616080,0.483454
524.945500,0.468734
525.274880,0.480246
525.604220,0.474638
525.933520,0.471698
526.262780,0.465281
526.592000,0.467275
526.921180,0.459116
527.250320,0.477930
527.579420,0.468418
527.908480,0.469719
528.237500,0.475174
528.566480,0.474052
528.895420,0.473139
529.224320,0.481426
529.553180,0.476627
529.882000,0.483698
530.210780,0.475869
530.539520,0.477469
530.868220,0.481091
531.196880,0.474916
531.525500,0.490073
531.854080,0.473265
532.182620,0.474545
532.511120,0.481671
532.839580,0.485481
533.168000,0.480857
533.496380,0.484475
533.824720,0.473306
534.153020,0.477931
534.481280,0.474890
534.809500,0.472296
535.137680,0.476128
535.465820,0.464347
535.793920,0.472081
536.121980,0.476290
536.450000,0.476110
536.777980,0.472979
537.105920,0.481112
537.433820,0.478314
537.761680,0.486122
538.089500,0.481586
538.417280,0.478711
538.745020,0.479002
539.072720,0.475595
539.400380,0.475136
539.728000,0.480688
540.055580,0.476404
540.383120,0.476545
540.710620,0.476935
541.038080,0.478421
541.365500,0.483456
541.692880,0.479651
542.020220,0.476790
542.347520,0.484207
542.674780,0.477770
543.002000,0.474458
543.329180,0.479832
543.656320,0.481013
543.983420,0.476239
544.310480,0.474006
544.637500,0.481406
544.964480,0.478466
545.291420,0.472582
545.618320,0.477424
545.945180,0.474951
546.272000,0.472477
546.598780,0.479187
546.925520,0.475437
547.252220,0.476725
547.578880,0.478006
547.905500,0.478105
548.232080,0.475958
548.558620,0.469574
548.885120,0.474975
549.211580,0.471874
549.538000,0.474060
549.864380,0.480386
550.190720,0.476590
550.517020,0.473272
550.843280,0.476221
551.169500,0.470738
551.495680,0.477989
551.821820,0.472567
552.147920,0.472023
552.473980,0.475469
552.800000,0.474820
553.125980,0.474787
553.451920,0.476111
553.777820,0.476682
554.103680,0.473205
554.429500,0.469032
554.755280,0.472964
555.081020,0.466243
555.406720,0.474094
555.732380,0.465266
556.058000,0.466056
556.383580,0.475522
556.709120,0.468642
557.034620,0.467103
557.360080,0.470812
557.685500,0.473721
558.010880,0.466205
558.336220,0.465729
558.661520,0.467919
558.986780,0.466336
559.312000,0.469017
559.637180,0.470018
559.962320,0.472766
560.287420,0.473554
560.612480,0.469322
560.937500,0.474302
561.262480,0.468842
561.587420,0.467900
561.912320,0.473471
562.237180,0.470022
562.562000,0.469510
562.886780,0.466741
563.211520,0.467213
563.536220,0.469388
563.860880,0.473029
564.185500,0.470169
564.510080,0.467269
564.834620,0.468924
565.159120,0.465789
565.483580,0.468263
565.808000,0.459705
566.132380,0.469974
566.456720,0.477324
566.781020,0.468867
567.105280,0.468053
567.429500,0.468513
567.753680,0.469122
568.077820,0.470816
568.401920,0.471352
568.725980,0.462998
569.050000,0.465399
569.373980,0.465550
569.697920,0.467956
570.021820,0.472659
570.345680,0.466514
570.669500,0.468142
570.993280,0.461794
571.317020,0.467665
571.640720,0.464246
571.964380,0.463623
572.288000,0.465504
572.611580,0.464246
572.935120,0.468013
573.258620,0.465221
573.582080,0.472057
573.905500,0.473567
574.228880,0.469933
574.552220,0.473433
574.875520,0.469099
575.198780,0.472714
575.522000,0.468475
575.845180,0.456662
576.168320,0.462091
576.491420,0.466206
576.814480,0.468716
577.137500,0.466089
577.460480,0.474810
577.783420,0.472312
578.106320,0.465456
578.429180,0.473666
578.752000,0.464745
579.074780,0.465610
579.397520,0.471917
579.720220,0.462677
580.042880,0.464486
580.365500,0.467240
580.688080,0.476594
581.010620,0.470132
581.333120,0.466600
581.655580,0.467532
581.978000,0.466578
582.300380,0.461538
582.622720,0.468029
582.945020,0.461964
583.267280,0.467926
583.589500,0.470626
583.911680,0.464909
584.233820,0.462701
584.555920,0.468642
584.877980,0.469849
585.200000,0.455187
585.521980,0.466790
585.843920,0.465223
586.165820,0.466179
586.487680,0.467349
586.809500,0.463246
587.131280,0.457853
587.453020,0.478869
587.774720,0.474571
588.096380,0.471120
588.418000,0.468247
588.739580,0.468813
589.061120,0.466072
589.382620,0.464756
589.704080,0.462553
590.025500,0.470034
590.346880,0.467397
590.668220,0.461775
590.989520,0.465890
591.310780,0.464513
591.632000,0.470765
591.953180,0.469693
592.274320,0.458367
592.595420,0.463362
592.916480,0.468623
593.237500,0.472110
593.558480,0.468658
593.879420,0.465066
594.200320,0.465845
594.521180,0.468526
594.842000,0.475282
595.162780,0.466346
595.483520,0.467429
595.804220,0.470730
596.124880,0.470823
596.445500,0.461881
596.766080,0.470557
597.086620,0.466826
597.407120,0.464455
597.727580,0.472819
598.048000,0.467866
598.368380,0.470542
598.688720,0.467104
599.009020,0.465234
599.329280,0.463278
599.649500,0.462493
599.969680,0.465278
600.289820,0.465812
600.609920,0.467272
600.929980,0.461785
601.250000,0.462432
601.569980,0.460708
601.889920,0.460839
602.209820,0.468615
602.529680,0.474320
602.849500,0.460993
603.169280,0.468724
603.489020,0.468309
603.808720,0.464070
604.128380,0.460817
604.448000,0.464365
604.767580,0.463687
605.087120,0.456787
605.406620,0.460677
605.726080,0.464214
606.045500,0.461967
606.364880,0.463000
606.684220,0.463449
607.003520,0.459862
607.322780,0.456509
607.642000,0.458932
607.961180,0.458225
608.280320,0.459397
608.599420,0.461182
608.918480,0.466569
609.237500,0.463908
609.556480,0.461675
609.875420,0.462788
610.194320,0.457337
610.513180,0.453093
610.832000,0.460691
611.150780,0.466807
611.469520,0.460935
611.788220,0.463724
612.106880,0.455368
612.425500,0.458283
612.744080,0.463527
613.062620,0.455046
613.381120,0.453077
613.699580,0.458921
614.018000,0.457617
614.336380,0.462986
614.654720,0.460465
614.973020,0.456649
615.291280,0.463279
615.609500,0.462441
615.927680,0.453646
616.245820,0.455782
616.563920,0.463164
616.881980,0.454942
617.200000,0.456299
617.517980,0.452707
617.835920,0.456664
618.153820,0.446379
618.471680,0.453953
618.789500,0.459408
619.107280,0.458529
619.425020,0.450999
619.742720,0.455430
620.060380,0.449389
620.378000,0.454688
620.695580,0.454662
621.013120,0.452283
621.330620,0.454973
621.648080,0.452681
621.965500,0.459536
622.282880,0.450189
622.600220,0.449463
622.917520,0.458412
623.234780,0.463517
623.552000,0.452578
623.869180,0.449732
624.186320,0.453040
624.503420,0.454859
624.820480,0.456173
625.137500,0.455952
625.454480,0.453267
625.771420,0.453026
626.088320,0.456494
626.405180,0.450529
626.722000,0.455144
627.038780,0.450188
627.355520,0.450937
627.672220,0.449767
627.988880,0.454121
628.305500,0.458087
628.622080,0.455081
628.938620,0.453211
629.255120,0.451773
629.571580,0.450506
629.888000,0.451672
630.204380,0.445842
630.520720,0.452163
630.837020,0.450200
631.153280,0.450540
631.469500,0.457247
631.785680,0.449066
632.101820,0.450844
632.417920,0.444709
632.733980,0.451681
633.050000,0.458156
633.365980,0.449318
633.681920,0.447196
633.997820,0.451883
634.313680,0.455618
634.629500,0.448245
634.945280,0.447507
635.261020,0.459642
635.576720,0.453318
635.892380,0.449898
636.208000,0.452934
636.523580,0.450745
636.839120,0.448755
637.154620,0.458261
637.470080,0.444763
637.785500,0.452521
638.100880,0.442803
638.416220,0.455278
638.731520,0.447851
639.046780,0.452374
639.362000,0.454702
639.677180,0.449172
639.992320,0.449676
640.307420,0.449845
640.622480,0.447494
640.937500,0.442996
641.252480,0.452388
641.567420,0.452970
641.882320,0.447383
642.197180,0.456204
642.512000,0.444165
642.826780,0.451040
643.141520,0.449291
643.456220,0.449640
643.770880,0.453566
644.085500,0.452487
644.400080,0.451966
644.714620,0.456243
645.029120,0.445270
645.343580,0.446517
645.658000,0.446295
645.972380,0.448616
646.286720,0.450259
646.601020,0.446443
646.915280,0.449959
647.229500,0.448352
647.543680,0.442143
647.857820,0.449216
648.171920,0.444927
648.485980,0.446972
648.800000,0.439791
649.113980,0.446231
649.427920,0.452705
649.741820,0.442154
650.055680,0.447340
650.369500,0.448991
650.683280,0.447003
650.997020,0.448570
651.310720,0.444414
651.624380,0.440110
651.938000,0.446814
652.251580,0.446424
652.565120,0.433482
652.878620,0.444538
653.192080,0.452247
653.505500,0.436466
653.818880,0.454365
654.132220,0.441185
654.445520,0.442428
654.758780,0.435977
655.072000,0.440974
655.385180,0.437660
655.698320,0.441841
656.011420,0.440814
656.324480,0.440396
656.637500,0.440035
656.950480,0.438050
657.263420,0.441029
657.576320,0.436407
657.889180,0.445591
658.202000,0.447162
658.514780,0.442394
658.827520,0.436074
659.140220,0.438118
659.452880,0.448203
659.765500,0.436484
660.078080,0.436654
660.390620,0.433547
660.703120,0.444546
661.015580,0.442331
661.328000,0.443955
661.640380,0.438024
661.952720,0.445344
662.265020,0.436988
662.577280,0.431616
662.889500,0.433302
663.201680,0.438736
663.513820,0.434223
663.825920,0.431636
664.137980,0.441823
664.450000,0.433184
664.761980,0.429460
665.073920,0.427783
665.385820,0.439791
665.697680,0.438347
666.009500,0.434652
666.321280,0.435719
666.633020,0.437832
666.944720,0.432423
667.256380,0.432705
667.568000,0.435462
667.879580,0.439796
668.191120,0.437500
668.502620,0.435125
668.814080,0.434035
669.125500,0.435511
669.436880,0.429115
669.748220,0.428176
670.059520,0.433824
670.370780,0.435630
670.682000,0.433628
670.993180,0.434109
671.304320,0.433193
671.615420,0.422230
671.926480,0.440383
672.237500,0.435155
672.548480,0.424414
672.859420,0.432452
673.170320,0.437432
673.481180,0.432295
673.792000,0.424811
674.102780,0.422262
674.413520,0.429092
674.724220,0.429764
675.034880,0.438577
675.345500,0.420861
675.656080,0.432668
675.966620,0.431793
676.277120,0.428781
676.587580,0.436672
676.898000,0.430384
677.208380,0.427357
677.518720,0.428519
677.829020,0.424982
678.139280,0.432913
678.449500,0.429632
678.759680,0.433870
679.069820,0.427881
679.379920,0.430404
679.689980,0.435202
680.000000,0.424299
680.309980,0.427988
680.619920,0.422946
680.929820,0.421426
681.239680,0.425406
681.549500,0.426296
681.859280,0.424944
682.169020,0.425214
682.478720,0.431563
682.788380,0.425249
683.098000,0.436799
683.407580,0.427017
683.717120,0.422297
684.026620,0.423569
684.336080,0.424024
684.645500,0.428358
684.954880,0.430298
685.264220,0.420536
685.573520,0.429387
685.882780,0.423859
686.192000,0.424003
686.501180,0.421869
686.810320,0.425826
687.119420,0.429494
687.428480,0.425370
687.737500,0.424405
688.046480,0.427914
688.355420,0.419842
688.664320,0.418133
688.973180,0.424579
689.282000,0.420525
689.590780,0.430598
689.899520,0.412837
690.208220,0.423165
690.516880,0.419626
690.825500,0.417358
691.134080,0.415338
691.442620,0.410442
691.751120,0.423587
692.059580,0.421475
692.368000,0.423324
692.676380,0.422137
692.984720,0.416794
693.293020,0.419453
693.601280,0.418543
693.909500,0.428301
694.217680,0.418888
694.525820,0.426504
694.833920,0.420450
695.141980,0.419977
695.450000,0.414885
695.757980,0.417112
696.065920,0.415146
696.373820,0.418399
696.681680,0.411968
696.989500,0.424547
697.297280,0.416569
697.605020,0.427381
697.912720,0.415065
698.220380,0.409681
698.528000,0.417722
698.835580,0.421573
699.143120,0.417381
699.450620,0.420446
699.758080,0.409412
700.065500,0.414206
700.372880,0.414800
700.680220,0.415636
700.987520,0.414683
701.294780,0.416869
701.602000,0.412837
701.909180,0.425278
702.216320,0.403989
702.523420,0.415943
702.830480,0.418218
703.137500,0.413094
703.444480,0.417751
703.751420,0.413807
704.058320,0.412347
704.365180,0.410883
704.672000,0.414653
704.978780,0.412017
705.285520,0.408059
705.592220,0.409020
705.898880,0.416470
706.205500,0.418232
706.512080,0.418641
706.818620,0.416796
707.125120,0.415000
707.431580,0.414615
707.738000,0.416406
708.044380,0.407179
708.350720,0.408865
708.657020,0.415787
708.963280,0.409550
709.269500,0.410568
709.575680,0.416110
709.881820,0.417060
710.187920,0.418288
710.493980,0.415438
710.800000,0.410755
711.105980,0.407003
711.411920,0.404020
711.717820,0.404678
712.023680,0.403809
712.329500,0.414826
712.635280,0.412403
712.941020,0.413606
713.246720,0.409486
713.552380,0.416013
713.858000,0.408356
714.163580,0.414365
714.469120,0.406800
714.774620,0.410580
715.080080,0.414213
715.385500,0.411271
715.690880,0.407495
715.996220,0.405705
716.301520,0.408696
716.606780,0.409198
716.912000,0.411551
717.217180,0.412610
717.522320,0.410736
717.827420,0.408055
718.132480,0.405861
718.437500,0.414594
718.742480,0.403226
719.047420,0.400081
719.352320,0.403072
719.657180,0.410875
719.962000,0.412324
720.266780,0.409639
720.571520,0.411765
720.876220,0.406301
721.180880,0.405100
721.485500,0.407438
721.790080,0.399575
722.094620,0.410806
722.399120,0.412322
722.703580,0.402486
723.008000,0.403622
723.312380,0.405510
723.616720,0.399065
723.921020,0.401472
724.225280,0.400960
724.529500,0.404116
724.833680,0.405694
725.137820,0.402643
725.441920,0.406152
725.745980,0.394183
726.050000,0.406856
726.353980,0.401082
726.657920,0.396311
726.961820,0.400000
727.265680,0.395284
727.569500,0.399452
727.873280,0.402771
728.177020,0.401198
728.480720,0.405556
728.784380,0.406764
729.088000,0.404145
729.391580,0.400284
729.695120,0.406430
729.998620,0.396750
730.302080,0.400288
730.605500,0.394469
730.908880,0.400784
731.212220,0.396180
731.515520,0.399805
731.818780,0.396117
732.122000,0.394685
732.425180,0.385412
732.728320,0.398612
733.031420,0.389975
733.334480,0.398980
733.637500,0.392641
733.940480,0.404811
734.243420,0.403160
734.546320,0.401452
734.849180,0.392562
735.152000,0.386411
735.454780,0.386880
735.757520,0.398314
736.060220,0.392838
736.362880,0.389706
736.665500,0.393734
736.968080,0.391188
737.270620,0.395210
737.573120,0.398472
737.875580,0.400770
738.178000,0.393576
738.480380,0.390811
738.782720,0.387132
739.085020,0.394273
739.387280,0.395787
739.689500,0.392978
739.991680,0.387984
740.293820,0.390824
740.595920,0.391208
740.897980,0.404856
741.200000,0.392036
741.501980,0.390258
741.803920,0.391329
742.105820,0.389735
742.407680,0.401281
742.709500,0.384091
743.011280,0.386284
743.313020,0.390145
743.614720,0.387696
743.916380,0.395930
744.218000,0.400358
744.519580,0.387077
744.821120,0.383234
745.122620,0.389455
745.424080,0.390625
745.725500,0.394689
746.026880,0.392857
746.328220,0.390875
746.629520,0.384106
746.930780,0.387868
747.232000,0.385040
747.533180,0.388652
747.834320,0.393183
748.135420,0.386576
748.436480,0.389270
748.737500,0.381099
749.038480,0.385461
749.339420,0.395769
749.640320,0.382778
749.941180,0.383510
750.242000,0.390075
750.542780,0.380273
750.843520,0.401666
751.144220,0.382692
751.444880,0.384274
751.745500,0.391558
752.046080,0.400257
752.346620,0.392397
752.647120,0.382103
752.947580,0.377749
753.248000,0.393939
753.548380,0.392973
753.848720,0.389569
754.149020,0.369439
754.449280,0.385424
754.749500,0.373590
755.049680,0.380667
755.349820,0.376918
755.649920,0.384005
755.949980,0.383543
756.250000,0.381986
756.549980,0.382838
756.849920,0.388171
757.149820,0.375915
757.449680,0.389439
757.749500,0.389911
758.049280,0.387031
758.349020,0.373435
758.648720,0.385783
758.948380,0.378694
759.248000,0.377358
759.547580,0.375925
759.847120,0.374914
760.146620,0.392422
760.446080,0.390457
760.745500,0.376923
761.044880,0.381392
761.344220,0.377762
761.643520,0.388418
761.942780,0.382785
762.242000,0.386846
762.541180,0.378169
762.840320,0.382022
763.139420,0.373418
763.438480,0.375256
763.737500,0.379738
764.036480,0.387142
764.335420,0.378264
764.634320,0.368676
764.933180,0.382192
765.232000,0.380291
765.530780,0.379649
765.829520,0.388112
766.128220,0.385525
766.426880,0.386638
766.725500,0.376285
767.024080,0.366255
767.322620,0.382434
767.621120,0.371951
767.919580,0.381570
768.218000,0.370725
768.516380,0.377958
768.814720,0.366941
769.113020,0.375603
769.411280,0.390884
769.709500,0.369418
770.007680,0.370143
770.305820,0.374577
770.603920,0.371968
770.901980,0.379781
771.200000,0.371603
771.497980,0.368633
771.795920,0.371237
772.093820,0.372995
772.391680,0.377719
772.689500,0.372297
772.987280,0.376431
773.285020,0.373889
773.582720,0.368243
773.880380,0.382292
774.178000,0.366053
774.475580,0.372405
774.773120,0.368139
775.070620,0.382015
775.368080,0.382098
775.665500,0.366689
775.962880,0.370247
776.260220,0.373486
776.557520,0.371581
776.854780,0.378634
777.152000,0.365385
777.449180,0.385705
777.746320,0.362231
778.043420,0.372442
778.340480,0.379567
778.637500,0.381339
778.934480,0.383995
779.231420,0.368385
779.528320,0.370741
779.825180,0.369565
780.122000,0.365206
780.418780,0.387141
780.715520,0.380282
781.012220,0.379452
781.308880,0.365788
781.605500,0.364384
781.902080,0.368925
782.198620,0.371839
782.495120,0.379287
782.791580,0.371389
783.088000,0.374051
783.384380,0.376204
783.680720,0.374145
783.977020,0.366827
784.273280,0.381119
784.569500,0.376660
784.865680,0.381085
785.161820,0.374306
785.457920,0.360360
785.753980,0.366364
786.050000,0.357735
786.345980,0.377778
786.641920,0.368494
786.937820,0.378205
787.233680,0.356994
787.529500,0.371012
787.825280,0.376062
788.121020,0.367564
788.416720,0.364855
788.712380,0.368124
789.008000,0.363314
789.303580,0.363958
789.599120,0.372364
789.894620,0.372563
790.190080,0.364757
790.485500,0.366451
790.780880,0.372760
791.076220,0.367965
791.371520,0.368192
791.666780,0.362909
791.962000,0.371785
792.257180,0.371157
792.552320,0.377085
792.847420,0.370451
793.142480,0.378755
793.437500,0.358177
793.732480,0.369422
794.027420,0.367953
794.322320,0.370619
794.617180,0.354383
794.912000,0.369242
795.206780,0.355705
795.501520,0.382510
795.796220,0.360000
796.090880,0.370761
796.385500,0.359820
796.680080,0.367240
796.974620,0.361527
797.269120,0.361847
797.563580,0.370229
797.858000,0.372817
798.152380,0.372003
798.446720,0.366923
798.741020,0.365177
799.035280,0.357919
799.329500,0.363356
799.623680,0.365891
