399.985280,0.472973
400.329500,0.472973
400.673680,0.506329
401.017820,0.485294
401.361920,0.484848
401.705980,0.463415
402.050000,0.402597
402.393980,0.552941
402.737920,0.516854
403.081820,0.494845
403.425680,0.534884
403.769500,0.458333
404.113280,0.528736
404.457020,0.505618
404.800720,0.489130
405.144380,0.484848
405.488000,0.526882
405.831580,0.525773
406.175120,0.542553
406.518620,0.460000
406.862080,0.525773
407.205500,0.489583
407.548880,0.510204
407.892220,0.519608
408.235520,0.510638
408.578780,0.504762
408.922000,0.413462
409.265180,0.525253
409.608320,0.494949
409.951420,0.567010
410.294480,0.539216
410.637500,0.554348
410.980480,0.500000
411.323420,0.530612
411.666320,0.541284
412.009180,0.554545
412.352000,0.544554
412.694780,0.486239
413.037520,0.504587
413.380220,0.495495
413.722880,0.508929
414.065500,0.522523
414.408080,0.495575
414.750620,0.486726
415.093120,0.504132
415.435580,0.554622
415.778000,0.545455
416.120380,0.504202
416.462720,0.539683
416.805020,0.541353
417.147280,0.544776
417.489500,0.557143
417.831680,0.513699
418.173820,0.531915
418.515920,0.538462
418.857980,0.537975
419.200000,0.525641
419.541980,0.514793
419.883920,0.500000
420.225820,0.497110
420.567680,0.519553
420.909500,0.530055
421.251280,0.562500
421.593020,0.540816
421.934720,0.489899
422.276380,0.482051
422.618000,0.509804
422.959580,0.544118
423.301120,0.525114
423.642620,0.508696
423.984080,0.506977
424.325500,0.488789
424.666880,0.491379
425.008220,0.542017
425.349520,0.533898
425.690780,0.476923
426.032000,0.486275
426.373180,0.556017
426.714320,0.523437
427.055420,0.498069
427.396480,0.498127
427.737500,0.478261
428.078480,0.490119
428.419420,0.526104
428.760320,0.509579
429.101180,0.507874
429.442000,0.513410
429.782780,0.496154
430.123520,0.533333
430.464220,0.527675
430.804880,0.544061
431.145500,0.494545
431.486080,0.513109
431.826620,0.507752
432.167120,0.507353
432.507580,0.536232
432.848000,0.503597
433.188380,0.509025
433.528720,0.543396
433.869020,0.532143
434.209280,0.477193
434.549500,0.512195
434.889680,0.484848
435.229820,0.494881
435.569920,0.484429
435.909980,0.485437
436.250000,0.508475
436.589980,0.482972
436.929920,0.501587
437.269820,0.517241
437.609680,0.491124
437.949500,0.503012
438.289280,0.509915
438.629020,0.526163
438.968720,0.497093
439.308380,0.487805
439.648000,0.495890
439.987580,0.500000
440.327120,0.525333
440.666620,0.490909
441.006080,0.503836
441.345500,0.520885
441.684880,0.500000
442.024220,0.501241
442.363520,0.509524
442.702780,0.488636
443.042000,0.513216
443.381180,0.504310
443.720320,0.514039
444.059420,0.478992
444.398480,0.485356
444.737500,0.502049
445.076480,0.478175
445.415420,0.483034
445.754320,0.494802
446.093180,0.495413
446.432000,0.498120
446.770780,0.506641
447.109520,0.496324
447.448220,0.490161
447.786880,0.504472
448.125500,0.491379
448.464080,0.469643
448.802620,0.500000
449.141120,0.501730
449.479580,0.496503
449.818000,0.526678
450.156380,0.505017
450.494720,0.485950
450.833020,0.487762
451.171280,0.491438
451.509500,0.512195
451.847680,0.487352
452.185820,0.485370
452.523920,0.500000
452.861980,0.505902
453.200000,0.490033
453.537980,0.497479
453.875920,0.514286
454.213820,0.482877
454.551680,0.475166
454.889500,0.505902
455.227280,0.496441
455.565020,0.487437
455.902720,0.490849
456.240380,0.475874
456.578000,0.484321
456.915580,0.487047
457.253120,0.483553
457.590620,0.492611
457.928080,0.513468
458.265500,0.506757
458.602880,0.495130
458.940220,0.514382
459.277520,0.502400
459.614780,0.499182
459.952000,0.479814
460.289180,0.493671
460.626320,0.508661
460.963420,0.499192
461.300480,0.496942
461.637500,0.494607
461.974480,0.490826
462.311420,0.499255
462.648320,0.481698
462.985180,0.483501
463.322000,0.507440
463.658780,0.486188
463.995520,0.493810
464.332220,0.500000
464.668880,0.489247
465.005500,0.498660
465.342080,0.480154
465.678620,0.504305
466.015120,0.498060
466.351580,0.498104
466.688000,0.482339
467.024380,0.486027
467.360720,0.485227
467.697020,0.485194
468.033280,0.492222
468.369500,0.492274
468.705680,0.500564
469.041820,0.488542
469.377920,0.478308
469.713980,0.489186
470.050000,0.478261
470.385980,0.482387
470.721920,0.484819
471.057820,0.485380
471.393680,0.478952
471.729500,0.467099
472.065280,0.489267
472.401020,0.487589
472.736720,0.493892
473.072380,0.491023
473.408000,0.487380
473.743580,0.482699
474.079120,0.481481
474.414620,0.484309
474.750080,0.476810
475.085500,0.494243
475.420880,0.472939
475.756220,0.469338
476.091520,0.501279
476.426780,0.474919
476.762000,0.482703
477.097180,0.484800
477.432320,0.485460
477.767420,0.489379
478.102480,0.478740
478.437500,0.495074
478.772480,0.475965
479.107420,0.476810
479.442320,0.493205
479.777180,0.496420
480.112000,0.462250
480.446780,0.481684
480.781520,0.479871
481.116220,0.478577
481.450880,0.475410
481.785500,0.495253
482.120080,0.483542
482.454620,0.487179
482.789120,0.471338
483.123580,0.481308
483.458000,0.478639
483.792380,0.487220
484.126720,0.480309
484.461020,0.471507
484.795280,0.484965
485.129500,0.485581
485.463680,0.486047
485.797820,0.482115
486.131920,0.482020
486.465980,0.474903
486.800000,0.483206
487.133980,0.487915
487.467920,0.491201
487.801820,0.484363
488.135680,0.478393
488.469500,0.474281
488.803280,0.482912
489.137020,0.478388
489.470720,0.486647
489.804380,0.480327
490.138000,0.493323
490.471580,0.484893
490.805120,0.471766
491.138620,0.481166
491.472080,0.488339
491.805500,0.479777
492.138880,0.480890
492.472220,0.489273
492.805520,0.491620
493.138780,0.487939
493.472000,0.468227
493.805180,0.491132
494.138320,0.482322
494.471420,0.478516
494.804480,0.485123
495.137500,0.475610
495.470480,0.481198
495.803420,0.484257
496.136320,0.478070
496.469180,0.468999
496.802000,0.482885
497.134780,0.483323
497.467520,0.486239
497.800220,0.482311
498.132880,0.486185
498.465500,0.482619
498.798080,0.486301
499.130620,0.473330
499.463120,0.477260
499.795580,0.476898
500.128000,0.486649
500.460380,0.476857
500.792720,0.470838
501.125020,0.478718
501.457280,0.486162
501.789500,0.484504
502.121680,0.473821
502.453820,0.480877
502.785920,0.476738
503.117980,0.480864
503.450000,0.483174
503.781980,0.485301
504.113920,0.476529
504.445820,0.478853
504.777680,0.480000
505.109500,0.471635
505.441280,0.477055
505.773020,0.466886
506.104720,0.472916
506.436380,0.483673
506.768000,0.485033
507.099580,0.470023
507.431120,0.473068
507.762620,0.479793
508.094080,0.484047
508.425500,0.477124
508.756880,0.474623
509.088220,0.476541
509.419520,0.477654
509.750780,0.478444
510.082000,0.465951
510.413180,0.479042
510.744320,0.484123
511.075420,0.470211
511.406480,0.484250
511.737500,0.475926
512.068480,0.480733
512.399420,0.474178
512.730320,0.469284
513.061180,0.476213
513.392000,0.477520
513.722780,0.481268
514.053520,0.481073
514.384220,0.472883
514.714880,0.476304
515.045500,0.469828
515.376080,0.475061
515.706620,0.479786
516.037120,0.476471
516.367580,0.468704
516.698000,0.462255
517.028380,0.475174
517.358720,0.468642
517.689020,0.478734
518.019280,0.465630
518.349500,0.477952
518.679680,0.483594
519.009820,0.474190
519.339920,0.467435
519.669980,0.471622
520.000000,0.479878
520.329980,0.478486
520.659920,0.482106
520.989820,0.469040
521.319680,0.468107
521.649500,0.470951
521.979280,0.475470
522.309020,0.467842
522.638720,0.465950
522.968380,0.466391
523.298000,0.467641
523.627580,0.465598
523.957120,0.481039
524.286620,0.475769
524.616080,0.479317
524.945500,0.478553
525.274880,0.473063
525.604220,0.472567
525.933520,0.469602
526.262780,0.471870
526.592000,0.473871
526.921180,0.469782
527.250320,0.472856
527.579420,0.470440
527.908480,0.468735
528.237500,0.469215
528.566480,0.473553
528.895420,0.468211
529.224320,0.461119
529.553180,0.470843
529.882000,0.474453
530.210780,0.465734
530.539520,0.469319
530.868220,0.464337
531.196880,0.462016
531.525500,0.487167
531.854080,0.469512
532.182620,0.466137
532.511120,0.470998
532.839580,0.474592
533.168000,0.469006
533.496380,0.478995
533.824720,0.467923
534.153020,0.475702
534.481280,0.464317
534.809500,0.471416
535.137680,0.477431
535.465820,0.466065
535.793920,0.469966
536.121980,0.468317
536.450000,0.480761
536.777980,0.475492
537.105920,0.463263
537.433820,0.470131
537.761680,0.477551
538.089500,0.473897
538.417280,0.470752
538.745020,0.475436
539.072720,0.467396
539.400380,0.468531
539.728000,0.470746
540.055580,0.465169
540.383120,0.470216
540.710620,0.471354
541.038080,0.466986
541.365500,0.467279
541.692880,0.478561
542.020220,0.474991
542.347520,0.474515
542.674780,0.471066
543.002000,0.471659
543.329180,0.471764
543.656320,0.477848
543.983420,0.474530
544.310480,0.470608
544.637500,0.477994
544.964480,0.467026
545.291420,0.468927
545.618320,0.474104
545.945180,0.464074
546.272000,0.468545
546.598780,0.471976
546.925520,0.477745
547.252220,0.473424
547.578880,0.470512
547.905500,0.474510
548.232080,0.473034
548.558620,0.473153
548.885120,0.472031
549.211580,0.467052
549.538000,0.464008
549.864380,0.470096
550.190720,0.472070
550.517020,0.470339
550.843280,0.471661
551.169500,0.461832
551.495680,0.474704
551.821820,0.467668
552.147920,0.473325
552.473980,0.464603
552.800000,0.465991
553.125980,0.471840
553.451920,0.468812
553.777820,0.473351
554.103680,0.472194
554.429500,0.462672
554.755280,0.472296
555.081020,0.468583
555.406720,0.464951
555.732380,0.465266
556.058000,0.463340
556.383580,0.464567
556.709120,0.470710
557.034620,0.469170
557.360080,0.467358
557.685500,0.466113
558.010880,0.459619
558.336220,0.466432
558.661520,0.466856
558.986780,0.472006
559.312000,0.463319
559.637180,0.468582
559.962320,0.465290
560.287420,0.461213
560.612480,0.462146
560.937500,0.465125
561.262480,0.464076
561.587420,0.471527
561.912320,0.461312
562.237180,0.466691
562.562000,0.462776
562.886780,0.468971
563.211520,0.463860
563.536220,0.459740
563.860880,0.465485
564.185500,0.467917
564.510080,0.470278
564.834620,0.465575
565.159120,0.466541
565.483580,0.460281
565.808000,0.465002
566.132380,0.459903
566.456720,0.466364
566.781020,0.462866
567.105280,0.456711
567.429500,0.467375
567.753680,0.466820
568.077820,0.466950
568.401920,0.464477
568.725980,0.463757
569.050000,0.471103
569.373980,0.464408
569.697920,0.462647
570.021820,0.470787
570.345680,0.457711
570.669500,0.466997
570.993280,0.460317
571.317020,0.462550
571.640720,0.469433
571.964380,0.456570
572.288000,0.459570
572.611580,0.468364
572.935120,0.462402
573.258620,0.470456
573.582080,0.459762
573.905500,0.464631
574.228880,0.463994
574.552220,0.463540
574.875520,0.455324
575.198780,0.460065
575.522000,0.465543
575.845180,0.454155
576.168320,0.454905
576.491420,0.464753
576.814480,0.457505
577.137500,0.459596
577.460480,0.467561
577.783420,0.459450
578.106320,0.470085
578.429180,0.458466
578.752000,0.464397
579.074780,0.463250
579.397520,0.460620
579.720220,0.461068
580.042880,0.468451
580.365500,0.460291
580.688080,0.461330
581.010620,0.463719
581.333120,0.466600
581.655580,0.460539
581.978000,0.463918
582.300380,0.462188
582.622720,0.463744
582.945020,0.468140
583.267280,0.460111
583.589500,0.460995
583.911680,0.466180
584.233820,0.455461
584.555920,0.462338
584.877980,0.459799
585.200000,0.461940
585.521980,0.468026
585.843920,0.464308
586.165820,0.467093
586.487680,0.464339
586.809500,0.461146
587.131280,0.456374
587.453020,0.461012
587.774720,0.462153
588.096380,0.459452
588.418000,0.465613
588.739580,0.468238
589.061120,0.464060
589.382620,0.467335
589.704080,0.461431
590.025500,0.462614
590.346880,0.467397
590.668220,0.468216
590.989520,0.464226
591.310780,0.465341
591.632000,0.460383
591.953180,0.464988
592.274320,0.459186
592.595420,0.456627
592.916480,0.459114
593.237500,0.462140
593.558480,0.458703
593.879420,0.458322
594.200320,0.466381
594.521180,0.463214
594.842000,0.462654
595.162780,0.462607
595.483520,0.463175
595.804220,0.460795
596.124880,0.462563
596.445500,0.449568
596.766080,0.468137
597.086620,0.459660
597.407120,0.458399
597.727580,0.465394
598.048000,0.461518
598.368380,0.461599
598.688720,0.455308
599.009020,0.466030
599.329280,0.468068
599.649500,0.458267
599.969680,0.457265
600.289820,0.459669
600.609920,0.458723
600.929980,0.454035
601.250000,0.461081
601.569980,0.461518
601.889920,0.451751
602.209820,0.449675
602.529680,0.461412
602.849500,0.454446
603.169280,0.459355
603.489020,0.457238
603.808720,0.453922
604.128380,0.454746
604.448000,0.454972
604.767580,0.454749
605.087120,0.454017
605.406620,0.458158
605.726080,0.458226
606.045500,0.457509
606.364880,0.455628
606.684220,0.457738
607.003520,0.447248
607.322780,0.452530
607.642000,0.453762
607.961180,0.452732
608.280320,0.457367
608.599420,0.456257
608.918480,0.456012
609.237500,0.454812
609.556480,0.451613
609.875420,0.454223
610.194320,0.455270
610.513180,0.448653
610.832000,0.455033
611.150780,0.457795
611.469520,0.457315
611.788220,0.456469
612.106880,0.454463
612.425500,0.455238
612.744080,0.455217
613.062620,0.451682
613.381120,0.450030
613.699580,0.451563
614.018000,0.451474
614.336380,0.453115
614.654720,0.450543
614.973020,0.445233
615.291280,0.448404
615.609500,0.459905
615.927680,0.450865
616.245820,0.447434
616.563920,0.448865
616.881980,0.448082
617.200000,0.452877
617.517980,0.445862
617.835920,0.449518
618.153820,0.446689
618.471680,0.446512
618.789500,0.450598
619.107280,0.448826
619.425020,0.450999
619.742720,0.446328
620.060380,0.449702
620.378000,0.448081
620.695580,0.457216
621.013120,0.441575
621.330620,0.454032
621.648080,0.441956
621.965500,0.446361
622.282880,0.445460
622.600220,0.444093
622.917520,0.446440
623.234780,0.451945
623.552000,0.453851
623.869180,0.445320
624.186320,0.450175
624.503420,0.448903
624.820480,0.450518
625.137500,0.450584
625.454480,0.446702
625.771420,0.447667
626.088320,0.449559
626.405180,0.450529
626.722000,0.452949
627.038780,0.446429
627.355520,0.447188
627.672220,0.450078
627.988880,0.445101
628.305500,0.451231
628.622080,0.452912
628.938620,0.447095
629.255120,0.456752
629.571580,0.444683
629.888000,0.442160
630.204380,0.445535
630.520720,0.438757
630.837020,0.443725
631.153280,0.443945
631.469500,0.443905
631.785680,0.446052
632.101820,0.443908
632.417920,0.447690
632.733980,0.445378
633.050000,0.446938
633.365980,0.443094
633.681920,0.445704
633.997820,0.445906
634.313680,0.446771
634.629500,0.440283
634.945280,0.447214
635.261020,0.443499
635.576720,0.451262
635.892380,0.447575
636.208000,0.445381
636.523580,0.448407
636.839120,0.447307
637.154620,0.442319
637.470080,0.442181
637.785500,0.448417
638.100880,0.447727
638.416220,0.450101
638.731520,0.443553
639.046780,0.448587
639.362000,0.435780
639.677180,0.437179
639.992320,0.444601
640.307420,0.445069
640.622480,0.442453
640.937500,0.438280
641.252480,0.440659
641.567420,0.450412
641.882320,0.441815
642.197180,0.444133
642.512000,0.445564
642.826780,0.438003
643.141520,0.439567
643.456220,0.447703
643.770880,0.449143
644.085500,0.444382
644.400080,0.439888
644.714620,0.442586
645.029120,0.440869
645.343580,0.445420
645.658000,0.445462
645.972380,0.443135
646.286720,0.440447
646.601020,0.440908
646.915280,0.448314
647.229500,0.445604
647.543680,0.439658
647.857820,0.432976
648.171920,0.437873
648.485980,0.440395
648.800000,0.440617
649.113980,0.441796
649.427920,0.447157
649.741820,0.440506
650.055680,0.443500
650.369500,0.447029
650.683280,0.438957
650.997020,0.437844
651.310720,0.444414
651.624380,0.432692
651.938000,0.441828
652.251580,0.432508
652.565120,0.436557
652.878620,0.438345
653.192080,0.442135
653.505500,0.435905
653.818880,0.444129
654.132220,0.442609
654.445520,0.441577
654.758780,0.433994
655.072000,0.441834
655.385180,0.430528
655.698320,0.432981
656.011420,0.434222
656.324480,0.432818
656.637500,0.433951
656.950480,0.438344
657.263420,0.436004
657.576320,0.434628
657.889180,0.431731
658.202000,0.442331
658.514780,0.439714
658.827520,0.436375
659.140220,0.431525
659.452880,0.436122
659.765500,0.434076
660.078080,0.422510
660.390620,0.431408
660.703120,0.437519
661.015580,0.433129
661.328000,0.438602
661.640380,0.435539
661.952720,0.431641
662.265020,0.440139
662.577280,0.428753
662.889500,0.427310
663.201680,0.432674
663.513820,0.431007
663.825920,0.421069
664.137980,0.432450
664.450000,0.431905
664.761980,0.424550
665.073920,0.423239
665.385820,0.428338
665.697680,0.429091
666.009500,0.436315
666.321280,0.429423
666.633020,0.425199
666.944720,0.431075
667.256380,0.431359
667.568000,0.427310
667.879580,0.432653
668.191120,0.430632
668.502620,0.425539
668.814080,0.422105
669.125500,0.424564
669.436880,0.424620
669.748220,0.427137
670.059520,0.431723
670.370780,0.430411
670.682000,0.427965
670.993180,0.427061
671.304320,0.420183
671.615420,0.419034
671.926480,0.423705
672.237500,0.424795
672.548480,0.424769
672.859420,0.425661
673.170320,0.423649
673.481180,0.430485
673.792000,0.422647
674.102780,0.415440
674.413520,0.426176
674.724220,0.427223
675.034880,0.423909
675.345500,0.428155
675.656080,0.421416
675.966620,0.424154
676.277120,0.424387
676.587580,0.421944
676.898000,0.422172
677.208380,0.421072
677.518720,0.423049
677.829020,0.424612
678.139280,0.429577
678.449500,0.422206
678.759680,0.423005
679.069820,0.417472
679.379920,0.421728
679.689980,0.415522
680.000000,0.424299
680.309980,0.418708
680.619920,0.425596
680.929820,0.413587
681.239680,0.421713
681.549500,0.419630
681.859280,0.421957
682.169020,0.419247
682.478720,0.426328
682.788380,0.420081
683.098000,0.421092
683.407580,0.424390
683.717120,0.420045
684.026620,0.419804
684.336080,0.421372
684.645500,0.408530
684.954880,0.414809
685.264220,0.415251
685.573520,0.421013
685.882780,0.419639
686.192000,0.413469
686.501180,0.419221
686.810320,0.421214
687.119420,0.419612
687.428480,0.411318
687.737500,0.420184
688.046480,0.418328
688.355420,0.407393
688.664320,0.414308
688.973180,0.412328
689.282000,0.427083
689.590780,0.414877
689.899520,0.404861
690.208220,0.423547
690.516880,0.421917
690.825500,0.424906
691.134080,0.407745
691.442620,0.410442
691.751120,0.413728
692.059580,0.421475
692.368000,0.414994
692.676380,0.420611
692.984720,0.409542
693.293020,0.416413
693.601280,0.407097
693.909500,0.419221
694.217680,0.410891
694.525820,0.410129
694.833920,0.410149
695.141980,0.406865
695.450000,0.412977
695.757980,0.414057
696.065920,0.408544
696.373820,0.412240
696.681680,0.413502
696.989500,0.418757
697.297280,0.411513
697.605020,0.417857
697.912720,0.405842
698.220380,0.406533
698.528000,0.415348
698.835580,0.419992
699.143120,0.411925
699.450620,0.407319
699.758080,0.408235
700.065500,0.410215
700.372880,0.412800
700.680220,0.409254
700.987520,0.411111
701.294780,0.416058
701.602000,0.411648
701.909180,0.414944
702.216320,0.402816
702.523420,0.410024
702.830480,0.411485
703.137500,0.409587
703.444480,0.413412
703.751420,0.411045
704.058320,0.410368
704.365180,0.413644
704.672000,0.412277
704.978780,0.405774
705.285520,0.407668
705.592220,0.406275
705.898880,0.411348
706.205500,0.412363
706.512080,0.403239
706.818620,0.406347
707.125120,0.408462
707.431580,0.408753
707.738000,0.412500
708.044380,0.406407
708.350720,0.407337
708.657020,0.412661
708.963280,0.409161
709.269500,0.400783
709.575680,0.412967
709.881820,0.405267
710.187920,0.401556
710.493980,0.407292
710.800000,0.403509
711.105980,0.398343
711.411920,0.409539
711.717820,0.395712
712.023680,0.401088
712.329500,0.405363
712.635280,0.406202
712.941020,0.409741
713.246720,0.401581
713.552380,0.399529
713.858000,0.400867
714.163580,0.398579
714.469120,0.399766
714.774620,0.405448
715.080080,0.400864
715.385500,0.408473
715.690880,0.401972
715.996220,0.402536
716.301520,0.411067
716.606780,0.401336
716.912000,0.403877
717.217180,0.405826
717.522320,0.404374
717.827420,0.403173
718.132480,0.404255
718.437500,0.403180
718.742480,0.397984
719.047420,0.397249
719.352320,0.410544
719.657180,0.410057
719.962000,0.399917
720.266780,0.402576
720.571520,0.400580
720.876220,0.404255
721.180880,0.401756
721.485500,0.403677
721.790080,0.397028
722.094620,0.412093
722.399120,0.403274
722.703580,0.396914
723.008000,0.401466
723.312380,0.407663
723.616720,0.393115
723.921020,0.398874
724.225280,0.402705
724.529500,0.396673
724.833680,0.406139
725.137820,0.400000
725.441920,0.393223
725.745980,0.395526
726.050000,0.396933
726.353980,0.392519
726.657920,0.399460
726.961820,0.394064
727.265680,0.399908
727.569500,0.394424
727.873280,0.399538
728.177020,0.399816
728.480720,0.388889
728.784380,0.400658
729.088000,0.391427
729.391580,0.399337
729.695120,0.395873
729.998620,0.400096
730.302080,0.392600
730.605500,0.391557
730.908880,0.395394
731.212220,0.390793
731.515520,0.384203
731.818780,0.392233
732.122000,0.393209
732.425180,0.388862
732.728320,0.392662
733.031420,0.396491
733.334480,0.387755
733.637500,0.386089
733.940480,0.396622
734.243420,0.391437
734.546320,0.400934
734.849180,0.386364
735.152000,0.388485
735.454780,0.389463
735.757520,0.392518
736.060220,0.389679
736.362880,0.382878
736.665500,0.385901
736.968080,0.378829
737.270620,0.391943
737.573120,0.391376
737.875580,0.391424
738.178000,0.383778
738.480380,0.384324
738.782720,0.387132
739.085020,0.386564
739.387280,0.396341
739.689500,0.391280
739.991680,0.396407
740.293820,0.385296
740.595920,0.396772
740.897980,0.391869
741.200000,0.387549
741.501980,0.385673
741.803920,0.382320
742.105820,0.383531
742.407680,0.387886
742.709500,0.378977
743.011280,0.386284
743.313020,0.394783
743.614720,0.388857
743.916380,0.380233
744.218000,0.384845
744.519580,0.393720
744.821120,0.391617
745.122620,0.389455
745.424080,0.377404
745.725500,0.391068
746.026880,0.384236
746.328220,0.378545
746.629520,0.377483
746.930780,0.379289
747.232000,0.386879
747.533180,0.387431
747.834320,0.380402
748.135420,0.374145
748.436480,0.374298
748.737500,0.373687
749.038480,0.382407
749.339420,0.379589
749.640320,0.384664
749.941180,0.382261
750.242000,0.378769
750.542780,0.380273
750.843520,0.384369
751.144220,0.384615
751.444880,0.389981
751.745500,0.379221
752.046080,0.391918
752.346620,0.376933
752.647120,0.380144
752.947580,0.385511
753.248000,0.374597
753.548380,0.375407
753.848720,0.377978
754.149020,0.373952
754.449280,0.381484
754.749500,0.379562
755.049680,0.371333
755.349820,0.377585
755.649920,0.381362
755.949980,0.379562
756.250000,0.383958
756.549980,0.370297
756.849920,0.384092
757.149820,0.370592
757.449680,0.382838
757.749500,0.386503
758.049280,0.372014
758.349020,0.372045
758.648720,0.379572
758.948380,0.364261
759.248000,0.378706
759.547580,0.376597
759.847120,0.376981
760.146620,0.376861
760.446080,0.380376
760.745500,0.378322
761.044880,0.377841
761.344220,0.367071
761.643520,0.379944
761.942780,0.374388
762.242000,0.379066
762.541180,0.371831
762.840320,0.375000
763.139420,0.370605
763.438480,0.369788
763.737500,0.368711
764.036480,0.371069
764.335420,0.383910
764.634320,0.381150
764.933180,0.376712
765.232000,0.379598
765.530780,0.373333
765.829520,0.379720
766.128220,0.379262
766.426880,0.373134
766.725500,0.371487
767.024080,0.367627
767.322620,0.378976
767.621120,0.374661
767.919580,0.371331
768.218000,0.376197
768.516380,0.375930
768.814720,0.375171
769.113020,0.374225
769.411280,0.374309
769.709500,0.372124
770.007680,0.365372
770.305820,0.375930
770.603920,0.366577
770.901980,0.375000
771.200000,0.369565
771.497980,0.364611
771.795920,0.362542
772.093820,0.362968
772.391680,0.377719
772.689500,0.369595
772.987280,0.365657
773.285020,0.367054
773.582720,0.362162
773.880380,0.371311
774.178000,0.375596
774.475580,0.372405
774.773120,0.366801
775.070620,0.377282
775.368080,0.372745
775.665500,0.363331
775.962880,0.372248
776.260220,0.378869
776.557520,0.360907
776.854780,0.373225
777.152000,0.362069
777.449180,0.372893
777.746320,0.360887
778.043420,0.373806
778.340480,0.374154
778.637500,0.375930
778.934480,0.367855
779.231420,0.364315
779.528320,0.358717
779.825180,0.361001
780.122000,0.367862
780.418780,0.382353
780.715520,0.372904
781.012220,0.365753
781.308880,0.371873
781.605500,0.367808
781.902080,0.360027
782.198620,0.366370
782.495120,0.378601
782.791580,0.374828
783.088000,0.371981
783.384380,0.372765
783.680720,0.355677
783.977020,0.370268
784.273280,0.368531
784.569500,0.367575
784.865680,0.375522
785.161820,0.358333
785.457920,0.361053
785.753980,0.364271
786.050000,0.358425
786.345980,0.367361
786.641920,0.360861
786.937820,0.375356
787.233680,0.365344
787.529500,0.364078
787.825280,0.373938
788.121020,0.365439
788.416720,0.351447
788.712380,0.365303
789.008000,0.364023
789.303580,0.363251
789.599120,0.370182
789.894620,0.361011
790.190080,0.353154
790.485500,0.360691
790.780880,0.361290
791.076220,0.360029
791.371520,0.366739
791.666780,0.367273
791.962000,0.363703
792.257180,0.366032
792.552320,0.364032
792.847420,0.371907
793.142480,0.369231
793.437500,0.357453
793.732480,0.359181
794.027420,0.358309
794.322320,0.364653
794.617180,0.362556
794.912000,0.361813
795.206780,0.360179
795.501520,0.361977
795.796220,0.356296
796.090880,0.363225
796.385500,0.351574
796.680080,0.364996
796.974620,0.360030
797.269120,0.356548
797.563580,0.362595
797.858000,0.353834
798.152380,0.356535
798.446720,0.360769
798.741020,0.357473
799.035280,0.357919
799.329500,0.361817
799.623680,0.366667
