399.985280,0.459459
400.329500,0.445946
400.673680,0.506329
401.017820,0.426471
401.361920,0.560606
401.705980,0.451220
402.050000,0.389610
402.393980,0.435294
402.737920,0.528090
403.081820,0.463918
403.425680,0.569767
403.769500,0.489583
404.113280,0.448276
404.457020,0.516854
404.800720,0.467391
405.144380,0.444444
405.488000,0.473118
405.831580,0.484536
406.175120,0.457447
406.518620,0.500000
406.862080,0.505155
407.205500,0.500000
407.548880,0.510204
407.892220,0.470588
408.235520,0.457447
408.578780,0.533333
408.922000,0.471154
409.265180,0.505051
409.608320,0.474747
409.951420,0.546392
410.294480,0.490196
410.637500,0.478261
410.980480,0.509804
411.323420,0.479592
411.666320,0.467890
412.009180,0.500000
412.352000,0.435644
412.694780,0.504587
413.037520,0.449541
413.380220,0.531532
413.722880,0.517857
414.065500,0.513514
414.408080,0.486726
414.750620,0.486726
415.093120,0.471074
415.435580,0.512605
415.778000,0.507576
416.120380,0.537815
416.462720,0.476190
416.805020,0.496241
417.147280,0.552239
417.489500,0.485714
417.831680,0.479452
418.173820,0.524823
418.515920,0.510490
418.857980,0.525316
419.200000,0.519231
419.541980,0.538462
419.883920,0.483146
420.225820,0.491329
420.567680,0.497207
420.909500,0.486339
421.251280,0.505208
421.593020,0.479592
421.934720,0.449495
422.276380,0.507692
422.618000,0.514706
422.959580,0.519608
423.301120,0.525114
423.642620,0.473913
423.984080,0.469767
424.325500,0.497758
424.666880,0.500000
425.008220,0.491597
425.349520,0.504237
425.690780,0.473077
426.032000,0.470588
426.373180,0.464730
426.714320,0.492187
427.055420,0.494208
427.396480,0.490637
427.737500,0.454545
428.078480,0.442688
428.419420,0.485944
428.760320,0.482759
429.101180,0.515748
429.442000,0.501916
429.782780,0.476923
430.123520,0.513725
430.464220,0.476015
430.804880,0.505747
431.145500,0.461818
431.486080,0.509363
431.826620,0.507752
432.167120,0.481618
432.507580,0.485507
432.848000,0.496403
433.188380,0.472924
433.528720,0.498113
433.869020,0.528571
434.209280,0.508772
434.549500,0.494774
434.889680,0.484848
435.229820,0.484642
435.569920,0.484429
435.909980,0.485437
436.250000,0.494915
436.589980,0.473684
436.929920,0.485714
437.269820,0.501567
437.609680,0.476331
437.949500,0.493976
438.289280,0.475921
438.629020,0.476744
438.968720,0.468023
439.308380,0.455285
439.648000,0.501370
439.987580,0.502646
440.327120,0.480000
440.666620,0.470130
441.006080,0.491049
441.345500,0.491400
441.684880,0.459330
442.024220,0.483871
442.363520,0.476190
442.702780,0.475000
443.042000,0.482379
443.381180,0.489224
443.720320,0.520518
444.059420,0.493697
444.398480,0.476987
444.737500,0.475410
445.076480,0.472222
445.415420,0.483034
445.754320,0.480249
446.093180,0.478899
446.432000,0.486842
446.770780,0.478178
447.109520,0.483456
447.448220,0.468694
447.786880,0.479428
448.125500,0.474138
448.464080,0.469643
448.802620,0.480496
449.141120,0.498270
449.479580,0.493007
449.818000,0.475043
450.156380,0.468227
450.494720,0.477686
450.833020,0.454545
451.171280,0.469178
451.509500,0.491289
451.847680,0.480607
452.185820,0.459552
452.523920,0.481100
452.861980,0.472175
453.200000,0.458472
453.537980,0.468908
453.875920,0.467227
454.213820,0.474315
454.551680,0.466887
454.889500,0.460371
455.227280,0.469751
455.565020,0.472362
455.902720,0.474210
456.240380,0.469218
456.578000,0.489547
456.915580,0.478411
457.253120,0.467105
457.590620,0.474548
457.928080,0.476431
458.265500,0.467905
458.602880,0.452922
458.940220,0.475465
459.277520,0.468800
459.614780,0.463175
459.952000,0.453416
460.289180,0.479430
460.626320,0.477165
460.963420,0.474960
461.300480,0.467890
461.637500,0.473035
461.974480,0.472477
462.311420,0.475410
462.648320,0.464129
462.985180,0.456241
463.322000,0.464286
463.658780,0.461326
463.995520,0.463549
464.332220,0.463989
464.668880,0.467742
465.005500,0.473190
465.342080,0.453265
465.678620,0.457565
466.015120,0.459250
466.351580,0.475348
466.688000,0.468940
467.024380,0.472661
467.360720,0.455682
467.697020,0.471526
468.033280,0.465556
468.369500,0.459161
468.705680,0.481398
469.041820,0.472917
469.377920,0.467462
469.713980,0.460350
470.050000,0.470531
470.385980,0.455969
470.721920,0.458374
471.057820,0.476608
471.393680,0.464920
471.729500,0.460612
472.065280,0.473166
472.401020,0.449468
472.736720,0.459860
473.072380,0.461400
473.408000,0.455178
473.743580,0.448962
474.079120,0.459948
474.414620,0.451230
474.750080,0.458096
475.085500,0.471217
475.420880,0.456286
475.756220,0.460343
476.091520,0.464621
476.426780,0.461165
476.762000,0.444891
477.097180,0.454400
477.432320,0.451535
477.767420,0.455065
478.102480,0.452756
478.437500,0.461412
478.772480,0.449961
479.107420,0.451587
479.442320,0.454836
479.777180,0.459825
480.112000,0.450693
480.446780,0.447389
480.781520,0.444444
481.116220,0.466451
481.450880,0.448868
481.785500,0.460443
482.120080,0.455329
482.454620,0.466977
482.789120,0.453822
483.123580,0.457944
483.458000,0.438291
483.792380,0.464058
484.126720,0.457915
484.461020,0.452771
484.795280,0.453354
485.129500,0.469213
485.463680,0.451163
485.797820,0.465008
486.131920,0.436878
486.465980,0.458687
486.800000,0.458779
487.133980,0.442598
487.467920,0.463657
487.801820,0.456140
488.135680,0.457165
488.469500,0.440998
488.803280,0.445022
489.137020,0.440293
489.470720,0.451780
489.804380,0.449889
490.138000,0.454748
490.471580,0.458364
490.805120,0.445318
491.138620,0.450604
491.472080,0.449470
491.805500,0.449791
492.138880,0.443363
492.472220,0.455363
492.805520,0.468575
493.138780,0.454859
493.472000,0.454849
493.805180,0.467940
494.138320,0.444963
494.471420,0.455729
494.804480,0.445666
495.137500,0.448010
495.470480,0.444869
495.803420,0.448992
496.136320,0.453008
496.469180,0.448128
496.802000,0.449267
497.134780,0.450576
497.467520,0.459327
497.800220,0.448113
498.132880,0.450911
498.465500,0.451912
498.798080,0.447489
499.130620,0.451432
499.463120,0.458731
499.795580,0.444444
500.128000,0.451226
500.460380,0.451023
500.792720,0.450159
501.125020,0.447189
501.457280,0.448564
501.789500,0.451446
502.121680,0.454640
502.453820,0.445691
502.785920,0.457729
503.117980,0.452895
503.450000,0.454043
503.781980,0.449427
504.113920,0.455192
504.445820,0.450656
504.777680,0.443294
505.109500,0.449519
505.441280,0.446941
505.773020,0.445749
506.104720,0.447009
506.436380,0.457170
506.768000,0.446679
507.099580,0.446224
507.431120,0.444028
507.762620,0.457707
508.094080,0.445761
508.425500,0.444911
508.756880,0.441701
509.088220,0.452622
509.419520,0.443669
509.750780,0.455014
510.082000,0.446828
510.413180,0.444956
510.744320,0.450529
511.075420,0.445921
511.406480,0.440997
511.737500,0.436574
512.068480,0.447368
512.399420,0.446479
512.730320,0.442956
513.061180,0.446717
513.392000,0.448178
513.722780,0.447166
514.053520,0.452324
514.384220,0.441960
514.714880,0.440402
515.045500,0.434866
515.376080,0.450363
515.706620,0.446176
516.037120,0.443137
516.367580,0.444554
516.698000,0.437255
517.028380,0.441907
517.358720,0.432593
517.689020,0.443126
518.019280,0.445559
518.349500,0.436898
518.679680,0.443715
519.009820,0.438259
519.339920,0.450401
519.669980,0.442993
520.000000,0.442180
520.329980,0.446345
520.659920,0.444785
520.989820,0.441176
521.319680,0.445473
521.649500,0.440103
521.979280,0.453549
522.309020,0.438278
522.638720,0.443932
522.968380,0.449845
523.298000,0.442067
523.627580,0.435075
523.957120,0.446753
524.286620,0.440855
524.616080,0.444674
524.945500,0.435659
525.274880,0.449974
525.604220,0.442029
525.933520,0.436059
526.262780,0.429802
526.592000,0.438356
526.921180,0.437278
527.250320,0.443937
527.579420,0.441637
527.908480,0.438208
528.237500,0.437438
528.566480,0.438623
528.895420,0.448004
529.224320,0.436355
529.553180,0.441446
529.882000,0.442336
530.210780,0.435328
530.539520,0.444391
530.868220,0.439923
531.196880,0.437649
531.525500,0.453753
531.854080,0.434334
532.182620,0.434376
532.511120,0.439907
532.839580,0.446461
533.168000,0.440747
533.496380,0.431050
533.824720,0.437416
534.153020,0.446277
534.481280,0.434802
534.809500,0.432718
535.137680,0.443142
535.465820,0.437715
535.793920,0.431049
536.121980,0.441460
536.450000,0.448626
536.777980,0.442815
537.105920,0.442507
537.433820,0.439444
537.761680,0.445714
538.089500,0.447187
538.417280,0.451253
538.745020,0.436212
539.072720,0.435377
539.400380,0.436286
539.728000,0.438241
540.055580,0.431461
540.383120,0.433358
540.710620,0.433780
541.038080,0.441903
541.365500,0.442279
541.692880,0.437863
542.020220,0.441526
542.347520,0.446518
542.674780,0.442837
543.002000,0.436669
543.329180,0.444756
543.656320,0.442686
543.983420,0.438632
544.310480,0.439687
544.637500,0.442170
544.964480,0.439098
545.291420,0.444998
545.618320,0.440239
545.945180,0.440672
546.272000,0.432503
546.598780,0.437234
546.925520,0.429608
547.252220,0.433476
547.578880,0.436298
547.905500,0.437908
548.232080,0.440546
548.558620,0.431826
548.885120,0.442264
549.211580,0.435230
549.538000,0.434825
549.864380,0.439550
550.190720,0.437197
550.517020,0.438722
550.843280,0.436156
551.169500,0.427481
551.495680,0.440867
551.821820,0.440235
552.147920,0.438517
552.473980,0.436944
552.800000,0.435579
553.125980,0.430255
553.451920,0.440942
553.777820,0.438374
554.103680,0.440512
554.429500,0.422497
554.755280,0.432243
555.081020,0.434826
555.406720,0.433458
555.732380,0.431040
556.058000,0.429735
556.383580,0.434440
556.709120,0.438318
557.034620,0.429900
557.360080,0.429016
557.685500,0.424965
558.010880,0.426343
558.336220,0.424253
558.661520,0.432471
558.986780,0.439405
559.312000,0.431980
559.637180,0.426571
559.962320,0.423282
560.287420,0.435825
560.612480,0.430571
560.937500,0.433186
561.262480,0.427053
561.587420,0.430903
561.912320,0.424097
562.237180,0.427091
562.562000,0.431725
562.886780,0.438499
563.211520,0.424367
563.536220,0.426716
563.860880,0.428518
564.185500,0.425141
564.510080,0.433785
564.834620,0.427242
565.159120,0.419549
565.483580,0.420372
565.808000,0.418086
566.132380,0.422231
566.456720,0.427060
566.781020,0.430983
567.105280,0.418147
567.429500,0.422231
567.753680,0.422325
568.077820,0.420951
568.401920,0.430863
568.725980,0.428843
569.050000,0.434221
569.373980,0.423297
569.697920,0.424346
570.021820,0.424345
570.345680,0.429392
570.669500,0.429225
570.993280,0.431894
571.317020,0.421264
571.640720,0.431271
571.964380,0.420935
572.288000,0.425816
572.611580,0.424560
572.935120,0.432473
573.258620,0.418848
573.582080,0.421013
573.905500,0.423306
574.228880,0.433927
574.552220,0.427263
574.875520,0.424795
575.198780,0.425732
575.522000,0.421554
575.845180,0.416547
576.168320,0.425440
576.491420,0.429142
576.814480,0.432911
577.137500,0.426046
577.460480,0.425154
577.783420,0.427653
578.106320,0.429843
578.429180,0.428420
578.752000,0.421674
579.074780,0.429198
579.397520,0.428018
579.720220,0.427284
580.042880,0.424843
580.365500,0.420582
580.688080,0.430122
581.010620,0.428957
581.333120,0.428190
581.655580,0.428571
581.978000,0.425341
582.300380,0.418046
582.622720,0.433421
582.945020,0.426528
583.267280,0.426897
583.589500,0.424719
583.911680,0.425849
584.233820,0.416116
584.555920,0.428301
584.877980,0.426193
585.200000,0.418355
585.521980,0.428792
585.843920,0.429225
586.165820,0.426874
586.487680,0.423112
586.809500,0.424842
587.131280,0.422952
587.453020,0.427976
587.774720,0.430514
588.096380,0.427363
588.418000,0.427861
588.739580,0.429434
589.061120,0.426682
589.382620,0.428940
589.704080,0.421038
590.025500,0.428938
590.346880,0.428893
590.668220,0.429572
590.989520,0.422352
591.310780,0.421707
591.632000,0.426230
591.953180,0.421257
592.274320,0.422877
592.595420,0.424300
592.916480,0.421625
593.237500,0.424144
593.558480,0.426150
593.879420,0.425951
594.200320,0.420841
594.521180,0.419124
594.842000,0.427190
595.162780,0.431891
595.483520,0.430737
595.804220,0.429914
596.124880,0.426059
596.445500,0.418129
596.766080,0.429148
597.086620,0.425955
597.407120,0.425750
597.727580,0.425882
598.048000,0.422904
598.368380,0.424776
598.688720,0.421232
599.009020,0.424894
599.329280,0.429484
599.649500,0.426572
599.969680,0.422276
600.289820,0.420139
600.609920,0.428266
600.929980,0.417691
601.250000,0.421622
601.569980,0.416959
601.889920,0.417535
602.209820,0.416126
602.529680,0.427904
602.849500,0.422531
603.169280,0.426013
603.489020,0.426792
603.808720,0.420461
604.128380,0.417494
604.448000,0.413260
604.767580,0.417039
605.087120,0.407756
605.406620,0.422894
605.726080,0.428001
606.045500,0.418780
606.364880,0.419620
606.684220,0.420046
607.003520,0.416284
607.322780,0.419557
607.642000,0.417002
607.961180,0.419775
608.280320,0.416183
608.599420,0.418308
608.918480,0.417302
609.237500,0.418721
609.556480,0.421426
609.875420,0.411991
610.194320,0.413345
610.513180,0.414028
610.832000,0.416021
611.150780,0.418144
611.469520,0.418100
611.788220,0.418984
612.106880,0.415561
612.425500,0.414434
612.744080,0.418590
613.062620,0.415291
613.381120,0.412249
613.699580,0.416922
614.018000,0.417383
614.336380,0.419494
614.654720,0.413333
614.973020,0.413453
615.291280,0.412148
615.609500,0.426624
615.927680,0.415637
616.245820,0.412801
616.563920,0.410009
616.881980,0.420331
617.200000,0.409020
617.517980,0.409770
617.835920,0.405716
618.153820,0.402860
618.471680,0.412093
618.789500,0.407489
619.107280,0.408451
619.425020,0.411671
619.742720,0.416510
620.060380,0.406456
620.378000,0.404657
620.695580,0.411239
621.013120,0.411339
621.330620,0.414183
621.648080,0.405047
621.965500,0.410916
622.282880,0.403531
622.600220,0.409349
622.917520,0.417454
623.234780,0.411765
623.552000,0.407066
623.869180,0.410652
624.186320,0.409424
624.503420,0.409091
624.820480,0.407791
625.137500,0.416167
625.454480,0.409816
625.771420,0.403216
626.088320,0.411412
626.405180,0.408525
626.722000,0.409975
627.038780,0.408835
627.355520,0.405938
627.672220,0.409642
627.988880,0.407776
628.305500,0.408850
628.622080,0.411710
628.938620,0.402752
629.255120,0.407281
629.571580,0.405149
629.888000,0.405032
630.204380,0.410555
630.520720,0.403108
630.837020,0.406414
631.153280,0.409772
631.469500,0.406913
631.785680,0.412598
632.101820,0.415862
632.417920,0.405961
632.733980,0.400360
633.050000,0.409642
633.365980,0.409306
633.681920,0.404833
633.997820,0.406455
634.313680,0.409319
634.629500,0.405485
634.945280,0.408504
635.261020,0.414734
635.576720,0.408984
635.892380,0.401975
636.208000,0.407612
636.523580,0.406606
636.839120,0.407643
637.154620,0.402029
637.470080,0.406026
637.785500,0.411489
638.100880,0.410078
638.416220,0.415588
638.731520,0.404585
639.046780,0.410137
639.362000,0.400229
639.677180,0.405483
639.992320,0.406259
640.307420,0.407137
640.622480,0.405489
640.937500,0.408322
641.252480,0.403519
641.567420,0.402671
641.882320,0.401169
642.197180,0.407075
642.512000,0.415057
642.826780,0.407767
643.141520,0.406224
643.456220,0.403154
643.770880,0.405473
644.085500,0.404695
644.400080,0.410112
644.714620,0.406912
645.029120,0.401265
645.343580,0.407570
645.658000,0.408826
645.972380,0.405317
646.286720,0.402835
646.601020,0.404650
646.915280,0.401152
647.229500,0.403571
647.543680,0.404308
647.857820,0.399394
648.171920,0.408030
648.485980,0.408605
648.800000,0.395701
649.113980,0.408537
649.427920,0.407212
649.741820,0.403133
650.055680,0.408393
650.369500,0.400785
650.683280,0.399001
650.997020,0.407866
651.310720,0.402587
651.624380,0.399176
651.938000,0.402770
652.251580,0.401058
652.565120,0.392677
652.878620,0.403435
653.192080,0.404494
653.505500,0.396073
653.818880,0.407165
654.132220,0.401880
654.445520,0.398185
654.758780,0.393768
655.072000,0.394842
655.385180,0.396576
655.698320,0.402401
656.011420,0.398395
656.324480,0.396094
656.637500,0.396292
656.950480,0.402231
657.263420,0.395507
657.576320,0.396383
657.889180,0.400472
658.202000,0.401268
658.514780,0.404287
658.827520,0.400060
659.140220,0.397363
659.452880,0.395953
659.765500,0.392234
660.078080,0.393319
660.390620,0.398717
660.703120,0.394439
661.015580,0.388037
661.328000,0.403967
661.640380,0.401367
661.952720,0.392090
662.265020,0.395085
662.577280,0.394720
662.889500,0.390728
663.201680,0.397575
663.513820,0.391766
663.825920,0.392891
664.137980,0.398513
664.450000,0.385550
664.761980,0.389198
665.073920,0.386887
665.385820,0.391688
665.697680,0.393058
666.009500,0.396408
666.321280,0.387343
666.633020,0.392952
666.944720,0.392315
667.256380,0.386945
667.568000,0.386549
667.879580,0.391837
668.191120,0.395261
668.502620,0.388908
668.814080,0.396491
669.125500,0.387958
669.436880,0.395228
669.748220,0.387331
670.059520,0.389006
670.370780,0.387265
670.682000,0.389027
670.993180,0.391121
671.304320,0.384669
671.615420,0.384233
671.926480,0.384670
672.237500,0.382637
672.548480,0.378637
672.859420,0.389564
673.170320,0.394995
673.481180,0.395728
673.792000,0.381536
674.102780,0.382406
674.413520,0.389355
674.724220,0.377132
675.034880,0.386505
675.345500,0.386214
675.656080,0.384392
675.966620,0.389232
676.277120,0.389235
676.587580,0.390648
676.898000,0.386338
677.208380,0.383364
677.518720,0.388767
677.829020,0.390983
678.139280,0.385841
678.449500,0.389528
678.759680,0.378419
679.069820,0.383643
679.379920,0.381366
679.689980,0.379131
680.000000,0.379065
680.309980,0.386785
680.619920,0.391140
680.929820,0.387831
681.239680,0.381832
681.549500,0.381852
681.859280,0.380134
682.169020,0.381574
682.478720,0.386313
682.788380,0.380214
683.098000,0.379581
683.407580,0.382364
683.717120,0.376126
684.026620,0.387425
684.336080,0.378174
684.645500,0.379723
684.954880,0.380808
685.264220,0.380143
685.573520,0.380662
685.882780,0.385501
686.192000,0.377728
686.501180,0.382898
686.810320,0.383935
687.119420,0.375903
687.428480,0.377896
687.737500,0.391021
688.046480,0.380752
688.355420,0.383252
688.664320,0.379112
688.973180,0.378254
689.282000,0.378858
689.590780,0.383052
689.899520,0.369920
690.208220,0.379969
690.516880,0.371134
690.825500,0.380377
691.134080,0.376993
691.442620,0.377668
691.751120,0.380736
692.059580,0.376385
692.368000,0.375994
692.676380,0.379771
692.984720,0.377099
693.293020,0.378799
693.601280,0.378481
693.909500,0.374196
694.217680,0.375095
694.525820,0.378903
694.833920,0.376192
695.141980,0.379483
695.450000,0.376718
695.757980,0.375859
696.065920,0.374757
696.373820,0.368360
696.681680,0.375144
696.989500,0.381706
697.297280,0.374173
697.605020,0.377381
697.912720,0.368178
698.220380,0.367965
698.528000,0.375000
698.835580,0.372975
699.143120,0.379969
699.450620,0.381862
699.758080,0.373333
700.065500,0.377095
700.372880,0.379200
700.680220,0.375748
700.987520,0.372222
701.294780,0.371857
701.602000,0.373613
701.909180,0.380763
702.216320,0.375049
702.523420,0.370166
702.830480,0.373861
703.137500,0.369447
703.444480,0.373570
703.751420,0.373570
704.058320,0.371983
704.365180,0.371057
704.672000,0.372277
704.978780,0.374171
705.285520,0.369327
705.592220,0.363529
705.898880,0.373522
706.205500,0.370501
706.512080,0.375197
706.818620,0.369969
707.125120,0.369615
707.431580,0.368894
707.738000,0.372656
708.044380,0.370513
708.350720,0.373710
708.657020,0.370457
708.963280,0.369177
709.269500,0.365166
709.575680,0.370138
709.881820,0.371855
710.187920,0.371984
710.493980,0.368891
710.800000,0.368802
711.105980,0.362199
711.411920,0.368546
711.717820,0.364133
712.023680,0.369607
712.329500,0.365931
712.635280,0.379845
712.941020,0.370700
713.246720,0.371146
713.552380,0.372057
713.858000,0.363816
714.163580,0.362668
714.469120,0.360688
714.774620,0.361627
715.080080,0.365528
715.385500,0.367706
715.690880,0.368442
715.996220,0.370840
716.301520,0.359684
716.606780,0.359670
716.912000,0.371567
717.217180,0.371508
717.522320,0.363419
717.827420,0.371033
718.132480,0.364111
718.437500,0.362006
718.742480,0.360484
719.047420,0.359223
719.352320,0.368618
719.657180,0.372036
719.962000,0.367246
720.266780,0.363939
720.571520,0.362883
720.876220,0.358429
721.180880,0.357441
721.485500,0.371082
721.790080,0.363907
722.094620,0.368782
722.399120,0.371822
722.703580,0.363909
723.008000,0.366106
723.312380,0.364615
723.616720,0.358266
723.921020,0.358164
724.225280,0.357330
724.529500,0.361208
724.833680,0.369217
725.137820,0.357269
725.441920,0.359786
725.745980,0.363311
726.050000,0.367614
726.353980,0.362325
726.657920,0.356725
726.961820,0.359817
727.265680,0.362922
727.569500,0.355119
727.873280,0.363048
728.177020,0.359281
728.480720,0.356944
728.784380,0.365430
729.088000,0.355629
729.391580,0.355756
729.695120,0.366123
729.998620,0.361855
730.302080,0.363287
730.605500,0.353712
730.908880,0.355218
731.212220,0.360921
731.515520,0.352999
731.818780,0.348544
732.122000,0.357776
732.425180,0.350912
732.728320,0.354487
733.031420,0.356391
733.334480,0.362755
733.637500,0.351815
733.940480,0.359775
734.243420,0.354740
734.546320,0.359440
734.849180,0.355372
735.152000,0.359440
735.454780,0.357438
735.757520,0.350369
736.060220,0.354397
736.362880,0.350315
736.665500,0.344648
736.968080,0.354648
737.270620,0.357104
737.573120,0.350437
737.875580,0.362287
738.178000,0.351660
738.480380,0.353514
738.782720,0.351690
739.085020,0.345815
739.387280,0.354767
739.689500,0.360702
739.991680,0.351488
740.293820,0.353234
740.595920,0.351141
740.897980,0.354037
741.200000,0.355580
741.501980,0.353009
741.803920,0.346847
742.105820,0.351382
742.407680,0.357600
742.709500,0.344318
743.011280,0.356975
743.313020,0.339710
743.614720,0.344167
743.916380,0.343605
744.218000,0.356802
744.519580,0.347222
744.821120,0.355090
745.122620,0.352307
745.424080,0.350361
745.725500,0.350634
746.026880,0.353448
746.328220,0.352651
746.629520,0.340157
746.930780,0.350490
747.232000,0.345800
747.533180,0.342892
747.834320,0.344492
748.135420,0.341827
748.436480,0.348097
748.737500,0.347128
749.038480,0.342089
749.339420,0.350342
749.640320,0.350723
749.941180,0.347283
750.242000,0.344221
750.542780,0.343052
750.843520,0.345932
751.144220,0.348077
751.444880,0.348129
751.745500,0.346753
752.046080,0.350225
752.346620,0.339562
752.647120,0.344219
752.947580,0.342173
753.248000,0.345583
753.548380,0.337671
753.848720,0.341919
754.149020,0.336557
754.449280,0.345371
754.749500,0.346384
755.049680,0.346000
755.349820,0.335557
755.649920,0.341044
755.949980,0.336430
756.250000,0.347798
756.549980,0.335314
756.849920,0.336506
757.149820,0.338656
757.449680,0.340594
757.749500,0.349693
758.049280,0.348123
758.349020,0.346314
758.648720,0.340235
758.948380,0.337457
759.248000,0.338949
759.547580,0.338937
759.847120,0.344590
760.146620,0.338295
760.446080,0.346102
760.745500,0.339860
761.044880,0.343750
761.344220,0.335709
761.643520,0.337571
761.942780,0.344997
762.242000,0.349364
762.541180,0.335211
762.840320,0.335674
763.139420,0.343179
763.438480,0.335612
763.737500,0.350103
764.036480,0.340321
764.335420,0.339450
764.634320,0.331947
764.933180,0.342466
765.232000,0.344899
765.530780,0.339649
765.829520,0.347552
766.128220,0.345164
766.426880,0.340441
766.725500,0.339273
767.024080,0.336077
767.322620,0.340249
767.621120,0.336043
767.919580,0.337884
768.218000,0.338577
768.516380,0.335362
768.814720,0.332647
769.113020,0.338387
769.411280,0.338398
769.709500,0.336265
770.007680,0.328562
770.305820,0.340771
770.603920,0.333558
770.901980,0.349727
771.200000,0.334918
771.497980,0.341153
771.795920,0.331104
772.093820,0.321524
772.391680,0.332235
772.689500,0.343243
772.987280,0.325253
773.285020,0.336979
773.582720,0.331757
773.880380,0.341112
774.178000,0.326517
774.475580,0.340924
774.773120,0.329317
775.070620,0.336714
775.368080,0.339345
775.665500,0.329752
775.962880,0.334223
776.260220,0.339166
776.557520,0.338225
776.854780,0.329277
777.152000,0.322944
777.449180,0.335131
777.746320,0.332661
778.043420,0.327422
778.340480,0.336942
778.637500,0.335362
778.934480,0.336247
779.231420,0.341248
779.528320,0.331997
779.825180,0.323452
780.122000,0.335989
780.418780,0.343365
780.715520,0.336016
781.012220,0.338356
781.308880,0.328600
781.605500,0.329452
781.902080,0.330595
782.198620,0.332878
782.495120,0.333333
782.791580,0.338377
783.088000,0.325742
783.384380,0.328061
783.680720,0.327633
783.977020,0.323469
784.273280,0.332168
784.569500,0.330538
784.865680,0.333102
785.161820,0.322222
785.457920,0.325710
785.753980,0.327285
786.050000,0.328729
786.345980,0.326389
786.641920,0.322693
786.937820,0.329772
787.233680,0.326374
787.529500,0.319695
787.825280,0.327904
788.121020,0.322946
788.416720,0.324629
788.712380,0.328632
789.008000,0.322238
789.303580,0.313074
789.599120,0.328727
789.894620,0.335740
790.190080,0.324873
790.485500,0.331893
790.780880,0.319713
791.076220,0.317460
791.371520,0.334060
791.666780,0.328727
791.962000,0.326231
792.257180,0.330893
792.552320,0.329224
792.847420,0.336972
793.142480,0.332601
793.437500,0.327786
793.732480,0.331383
794.027420,0.318249
794.322320,0.330350
794.617180,0.336553
794.912000,0.326152
795.206780,0.315436
795.501520,0.333080
795.796220,0.324444
796.090880,0.329314
796.385500,0.320840
796.680080,0.314136
796.974620,0.312874
797.269120,0.320969
797.563580,0.322137
797.858000,0.333333
798.152380,0.328693
798.446720,0.326154
798.741020,0.325116
799.035280,0.325311
799.329500,0.311778
799.623680,0.328682
