399.985280,0.472973
400.329500,0.445946
400.673680,0.455696
401.017820,0.411765
401.361920,0.469697
401.705980,0.390244
402.050000,0.337662
402.393980,0.423529
402.737920,0.426966
403.081820,0.422680
403.425680,0.511628
403.769500,0.416667
404.113280,0.471264
404.457020,0.460674
404.800720,0.413043
405.144380,0.444444
405.488000,0.473118
405.831580,0.443299
406.175120,0.404255
406.518620,0.500000
406.862080,0.422680
407.205500,0.458333
407.548880,0.479592
407.892220,0.421569
408.235520,0.510638
408.578780,0.514286
408.922000,0.432692
409.265180,0.494949
409.608320,0.434343
409.951420,0.484536
410.294480,0.450980
410.637500,0.478261
410.980480,0.500000
411.323420,0.408163
411.666320,0.440367
412.009180,0.472727
412.352000,0.435644
412.694780,0.486239
413.037520,0.477064
413.380220,0.441441
413.722880,0.491071
414.065500,0.486486
414.408080,0.433628
414.750620,0.398230
415.093120,0.471074
415.435580,0.487395
415.778000,0.446970
416.120380,0.487395
416.462720,0.492063
416.805020,0.466165
417.147280,0.485075
417.489500,0.514286
417.831680,0.479452
418.173820,0.482270
418.515920,0.475524
418.857980,0.474684
419.200000,0.474359
419.541980,0.437870
419.883920,0.466292
420.225820,0.502890
420.567680,0.474860
420.909500,0.469945
421.251280,0.437500
421.593020,0.469388
421.934720,0.444444
422.276380,0.461538
422.618000,0.450980
422.959580,0.500000
423.301120,0.447489
423.642620,0.447826
423.984080,0.465116
424.325500,0.457399
424.666880,0.465517
425.008220,0.457983
425.349520,0.461864
425.690780,0.450000
426.032000,0.443137
426.373180,0.468880
426.714320,0.464844
427.055420,0.444015
427.396480,0.453184
427.737500,0.458498
428.078480,0.403162
428.419420,0.421687
428.760320,0.463602
429.101180,0.476378
429.442000,0.459770
429.782780,0.442308
430.123520,0.470588
430.464220,0.416974
430.804880,0.482759
431.145500,0.407273
431.486080,0.483146
431.826620,0.445736
432.167120,0.411765
432.507580,0.463768
432.848000,0.474820
433.188380,0.458484
433.528720,0.479245
433.869020,0.464286
434.209280,0.424561
434.549500,0.470383
434.889680,0.434343
435.229820,0.447099
435.569920,0.463668
435.909980,0.430421
436.250000,0.447458
436.589980,0.424149
436.929920,0.463492
437.269820,0.435737
437.609680,0.434911
437.949500,0.448795
438.289280,0.444759
438.629020,0.450581
438.968720,0.438953
439.308380,0.411924
439.648000,0.424658
439.987580,0.433862
440.327120,0.448000
440.666620,0.451948
441.006080,0.445013
441.345500,0.449631
441.684880,0.433014
442.024220,0.421836
442.363520,0.445238
442.702780,0.438636
443.042000,0.431718
443.381180,0.448276
443.720320,0.442765
444.059420,0.434874
444.398480,0.435146
444.737500,0.436475
445.076480,0.428571
445.415420,0.435130
445.754320,0.451143
446.093180,0.456881
446.432000,0.443609
446.770780,0.462998
447.109520,0.437500
447.448220,0.423971
447.786880,0.447227
448.125500,0.443103
448.464080,0.426786
448.802620,0.441489
449.141120,0.427336
449.479580,0.442308
449.818000,0.437177
450.156380,0.426421
450.494720,0.438017
450.833020,0.433566
451.171280,0.416096
451.509500,0.444251
451.847680,0.438449
452.185820,0.450947
452.523920,0.436426
452.861980,0.430017
453.200000,0.443522
453.537980,0.430252
453.875920,0.440336
454.213820,0.426370
454.551680,0.427152
454.889500,0.430017
455.227280,0.419929
455.565020,0.417085
455.902720,0.437604
456.240380,0.432612
456.578000,0.421603
456.915580,0.428325
457.253120,0.425987
457.590620,0.435140
457.928080,0.437710
458.265500,0.452703
458.602880,0.439935
458.940220,0.431472
459.277520,0.425600
459.614780,0.436989
459.952000,0.416149
460.289180,0.430380
460.626320,0.445669
460.963420,0.424879
461.300480,0.434251
461.637500,0.425270
461.974480,0.429664
462.311420,0.421759
462.648320,0.420205
462.985180,0.423242
463.322000,0.428571
463.658780,0.411602
463.995520,0.431912
464.332220,0.436288
464.668880,0.423387
465.005500,0.435657
465.342080,0.416133
465.678620,0.418204
466.015120,0.428202
466.351580,0.427307
466.688000,0.439708
467.024380,0.434994
467.360720,0.415909
467.697020,0.424829
468.033280,0.415556
468.369500,0.428256
468.705680,0.431793
469.041820,0.412500
469.377920,0.416486
469.713980,0.410917
470.050000,0.420290
470.385980,0.420744
470.721920,0.417238
471.057820,0.421053
471.393680,0.419083
471.729500,0.416126
472.065280,0.423077
472.401020,0.411348
472.736720,0.413613
473.072380,0.417415
473.408000,0.414273
473.743580,0.401384
474.079120,0.416021
474.414620,0.418151
474.750080,0.402766
475.085500,0.421053
475.420880,0.414654
475.756220,0.421913
476.091520,0.427110
476.426780,0.407767
476.762000,0.407884
477.097180,0.408800
477.432320,0.413570
477.767420,0.414216
478.102480,0.414173
478.437500,0.414614
478.772480,0.412136
479.107420,0.412531
479.442320,0.422862
479.777180,0.420843
480.112000,0.405239
480.446780,0.403741
480.781520,0.422705
481.116220,0.406629
481.450880,0.405152
481.785500,0.418513
482.120080,0.421630
482.454620,0.408702
482.789120,0.405255
483.123580,0.407321
483.458000,0.407437
483.792380,0.416933
484.126720,0.409266
484.461020,0.400468
484.795280,0.412490
485.129500,0.405300
485.463680,0.417054
485.797820,0.410575
486.131920,0.410099
486.465980,0.411583
486.800000,0.409924
487.133980,0.404834
487.467920,0.408569
487.801820,0.417239
488.135680,0.404094
488.469500,0.403933
488.803280,0.403418
489.137020,0.402930
489.470720,0.409496
489.804380,0.409800
490.138000,0.422107
490.471580,0.416360
490.805120,0.409578
491.138620,0.414357
491.472080,0.407067
491.805500,0.397490
492.138880,0.407922
492.472220,0.408997
492.805520,0.412709
493.138780,0.408684
493.472000,0.406020
493.805180,0.405866
494.138320,0.409606
494.471420,0.409505
494.804480,0.406856
495.137500,0.408216
495.470480,0.404079
495.803420,0.407431
496.136320,0.406642
496.469180,0.405157
496.802000,0.397922
497.134780,0.416010
497.467520,0.413456
497.800220,0.412146
498.132880,0.395062
498.465500,0.401506
498.798080,0.404110
499.130620,0.408198
499.463120,0.410444
499.795580,0.396590
500.128000,0.398910
500.460380,0.395587
500.792720,0.398727
501.125020,0.401471
501.457280,0.398956
501.789500,0.408574
502.121680,0.412131
502.453820,0.401326
502.785920,0.401701
503.117980,0.408243
503.450000,0.407835
503.781980,0.402591
504.113920,0.402560
504.445820,0.401070
504.777680,0.394824
505.109500,0.412500
505.441280,0.400096
505.773020,0.401597
506.104720,0.406029
506.436380,0.405584
506.768000,0.402713
507.099580,0.391304
507.431120,0.398126
507.762620,0.403195
508.094080,0.398815
508.425500,0.406162
508.756880,0.399634
509.088220,0.394204
509.419520,0.397579
509.750780,0.403468
510.082000,0.394123
510.413180,0.403040
510.744320,0.404970
511.075420,0.396425
511.406480,0.393042
511.737500,0.392593
512.068480,0.400376
512.399420,0.399531
512.730320,0.391686
513.061180,0.394862
513.392000,0.394226
513.722780,0.404899
514.053520,0.399617
514.384220,0.398192
514.714880,0.391096
515.045500,0.385057
515.376080,0.396126
515.706620,0.398441
516.037120,0.390196
516.367580,0.388862
516.698000,0.387745
517.028380,0.385799
517.358720,0.388148
517.689020,0.401583
518.019280,0.392875
518.349500,0.400405
518.679680,0.395255
519.009820,0.396255
519.339920,0.401303
519.669980,0.387745
520.000000,0.392257
520.329980,0.399171
520.659920,0.400818
520.989820,0.391125
521.319680,0.397634
521.649500,0.392802
521.979280,0.401357
522.309020,0.386929
522.638720,0.379416
522.968380,0.393485
523.298000,0.383090
523.627580,0.393171
523.957120,0.393766
524.286620,0.390829
524.616080,0.387797
524.945500,0.396382
525.274880,0.389430
525.604220,0.392340
525.933520,0.393082
526.262780,0.382159
526.592000,0.392694
526.921180,0.392585
527.250320,0.390157
527.579420,0.391107
527.908480,0.388971
528.237500,0.389772
528.566480,0.386727
528.895420,0.386397
529.224320,0.391283
529.553180,0.389880
529.882000,0.394647
530.210780,0.387548
530.539520,0.387344
530.868220,0.387267
531.196880,0.386049
531.525500,0.401453
531.854080,0.387899
532.182620,0.385334
532.511120,0.388399
532.839580,0.395191
533.168000,0.396992
533.496380,0.389954
533.824720,0.388515
534.153020,0.395007
534.481280,0.389427
534.809500,0.384345
535.137680,0.393663
535.465820,0.387457
535.793920,0.386633
536.121980,0.388586
536.450000,0.392389
536.777980,0.397989
537.105920,0.387713
537.433820,0.391571
537.761680,0.391020
538.089500,0.393363
538.417280,0.388778
538.745020,0.390254
539.072720,0.388520
539.400380,0.395882
539.728000,0.389675
540.055580,0.383146
540.383120,0.383470
540.710620,0.385417
541.038080,0.389524
541.365500,0.389338
541.692880,0.390262
542.020220,0.382872
542.347520,0.392678
542.674780,0.383557
543.002000,0.385234
543.329180,0.390389
543.656320,0.399437
543.983420,0.393162
544.310480,0.386680
544.637500,0.394405
544.964480,0.386272
545.291420,0.388169
545.618320,0.384462
545.945180,0.384311
546.272000,0.384993
546.598780,0.387742
546.925520,0.379822
547.252220,0.387257
547.578880,0.386445
547.905500,0.385621
548.232080,0.393112
548.558620,0.378783
548.885120,0.384037
549.211580,0.388300
549.538000,0.392672
549.864380,0.381029
550.190720,0.382628
550.517020,0.393090
550.843280,0.385342
551.169500,0.387723
551.495680,0.388305
551.821820,0.390594
552.147920,0.379636
552.473980,0.378992
552.800000,0.384892
553.125980,0.386051
553.451920,0.385866
553.777820,0.386076
554.103680,0.384226
554.429500,0.375628
554.755280,0.383178
555.081020,0.379011
555.406720,0.386387
555.732380,0.378516
556.058000,0.385268
556.383580,0.383773
556.709120,0.381116
557.034620,0.379607
557.360080,0.380311
557.685500,0.381743
558.010880,0.381629
558.336220,0.382074
558.661520,0.387451
558.986780,0.376329
559.312000,0.375712
559.637180,0.384201
559.962320,0.377002
560.287420,0.382581
560.612480,0.378543
560.937500,0.377753
561.262480,0.378299
561.587420,0.375771
561.912320,0.376934
562.237180,0.381569
562.562000,0.381220
562.886780,0.381271
563.211520,0.377422
563.536220,0.372542
563.860880,0.380234
564.185500,0.371857
564.510080,0.376599
564.834620,0.378117
565.159120,0.375564
565.483580,0.380844
565.808000,0.370034
566.132380,0.371503
566.456720,0.376795
566.781020,0.378470
567.105280,0.372779
567.429500,0.372914
567.753680,0.384350
568.077820,0.373405
568.401920,0.373186
568.725980,0.374953
569.050000,0.374905
569.373980,0.374572
569.697920,0.378081
570.021820,0.378652
570.345680,0.379258
570.669500,0.371614
570.993280,0.375415
571.317020,0.377786
571.640720,0.371990
571.964380,0.371195
572.288000,0.376855
572.611580,0.373268
572.935120,0.369622
573.258620,0.371728
573.582080,0.380402
573.905500,0.375279
574.228880,0.380475
574.552220,0.370465
574.875520,0.370067
575.198780,0.372967
575.522000,0.368768
575.845180,0.367837
576.168320,0.368667
576.491420,0.376453
576.814480,0.374322
577.137500,0.374459
577.460480,0.369699
577.783420,0.376920
578.106320,0.376068
578.429180,0.376458
578.752000,0.376520
579.074780,0.370533
579.397520,0.375726
579.720220,0.370335
580.042880,0.372977
580.365500,0.375579
580.688080,0.374152
581.010620,0.370908
581.333120,0.378090
581.655580,0.376290
581.978000,0.374460
582.300380,0.367089
582.622720,0.374753
582.945020,0.377438
583.267280,0.375773
583.589500,0.377528
583.911680,0.371229
584.233820,0.373623
584.555920,0.372203
584.877980,0.371859
585.200000,0.372621
585.521980,0.375656
585.843920,0.368822
586.165820,0.372334
586.487680,0.377972
586.809500,0.373837
587.131280,0.369417
587.453020,0.377381
587.774720,0.378179
588.096380,0.373104
588.418000,0.368745
588.739580,0.377407
589.061120,0.380679
589.382620,0.370774
589.704080,0.369144
590.025500,0.376142
590.346880,0.379989
590.668220,0.375525
590.989520,0.372158
591.310780,0.372273
591.632000,0.371858
591.953180,0.373927
592.274320,0.371007
592.595420,0.369073
592.916480,0.375170
593.237500,0.376987
593.558480,0.374227
593.879420,0.375506
594.200320,0.372623
594.521180,0.367862
594.842000,0.377754
595.162780,0.372329
595.483520,0.369317
595.804220,0.373792
596.124880,0.378897
596.445500,0.369662
596.766080,0.374025
597.086620,0.369161
597.407120,0.373881
597.727580,0.373111
598.048000,0.370801
598.368380,0.367701
598.688720,0.367497
599.009020,0.370754
599.329280,0.374401
599.649500,0.366878
599.969680,0.371528
600.289820,0.375801
600.609920,0.369223
600.929980,0.374131
601.250000,0.367838
601.569980,0.365379
601.889920,0.370756
602.209820,0.368777
602.529680,0.371601
602.849500,0.363884
603.169280,0.375034
603.489020,0.369222
603.808720,0.363961
604.128380,0.365066
604.448000,0.361878
604.767580,0.369832
605.087120,0.365928
605.406620,0.368598
605.726080,0.366695
606.045500,0.361382
606.364880,0.365183
606.684220,0.372073
607.003520,0.368406
607.322780,0.363275
607.642000,0.371338
607.961180,0.367736
608.280320,0.364849
608.599420,0.358922
608.918480,0.365103
609.237500,0.362089
609.556480,0.370524
609.875420,0.361784
610.194320,0.364039
610.513180,0.362829
610.832000,0.356760
611.150780,0.364073
611.469520,0.357466
611.788220,0.363362
612.106880,0.359771
612.425500,0.362972
612.744080,0.365035
613.062620,0.362080
613.381120,0.354662
613.699580,0.364807
614.018000,0.359337
614.336380,0.361814
614.654720,0.361550
614.973020,0.363160
615.291280,0.369693
615.609500,0.363867
615.927680,0.364339
616.245820,0.362400
616.563920,0.361828
616.881980,0.360461
617.200000,0.361120
617.517980,0.361854
617.835920,0.354769
618.153820,0.351570
618.471680,0.355659
618.789500,0.353996
619.107280,0.360250
619.425020,0.352997
619.742720,0.363465
620.060380,0.358822
620.378000,0.361548
620.695580,0.359834
621.013120,0.357480
621.330620,0.355507
621.648080,0.355521
621.965500,0.355082
622.282880,0.358764
622.600220,0.359444
622.917520,0.363264
623.234780,0.369013
623.552000,0.360917
623.869180,0.357706
624.186320,0.357848
624.503420,0.357680
624.820480,0.355325
625.137500,0.355226
625.454480,0.358550
625.771420,0.358134
626.088320,0.354351
626.405180,0.360610
626.722000,0.355709
627.038780,0.355576
627.355520,0.353750
627.672220,0.361742
627.988880,0.357076
628.305500,0.358055
628.622080,0.357187
628.938620,0.359939
629.255120,0.349098
629.571580,0.354275
629.888000,0.352869
630.204380,0.350414
630.520720,0.349787
630.837020,0.353068
631.153280,0.354916
631.469500,0.362341
631.785680,0.354129
632.101820,0.352835
632.417920,0.354694
632.733980,0.349340
633.050000,0.356277
633.365980,0.353883
633.681920,0.360979
633.997820,0.358637
634.313680,0.354173
634.629500,0.355058
634.945280,0.354252
635.261020,0.358967
635.576720,0.352907
635.892380,0.363055
636.208000,0.356188
636.523580,0.354867
636.839120,0.354082
637.154620,0.351304
637.470080,0.353802
637.785500,0.356389
638.100880,0.355922
638.416220,0.360943
638.731520,0.351003
639.046780,0.353335
639.362000,0.350344
639.677180,0.357796
639.992320,0.353538
640.307420,0.352627
640.622480,0.348922
640.937500,0.350902
641.252480,0.355487
641.567420,0.362035
641.882320,0.359688
642.197180,0.362437
642.512000,0.354604
642.826780,0.356727
643.141520,0.355376
643.456220,0.349198
643.770880,0.354892
644.085500,0.348519
644.400080,0.352809
644.714620,0.352007
645.029120,0.350385
645.343580,0.352441
645.658000,0.362198
645.972380,0.350507
646.286720,0.354047
646.601020,0.349848
646.915280,0.352893
647.229500,0.349451
647.543680,0.344104
647.857820,0.349849
648.171920,0.348616
648.485980,0.354618
648.800000,0.348856
649.113980,0.352273
649.427920,0.353121
649.741820,0.349272
650.055680,0.349973
650.369500,0.353419
650.683280,0.348502
650.997020,0.346810
651.310720,0.344249
651.624380,0.341484
651.938000,0.342659
652.251580,0.350404
652.565120,0.349916
652.878620,0.350225
653.192080,0.344101
653.505500,0.341094
653.818880,0.349161
654.132220,0.348903
654.445520,0.340896
654.758780,0.345042
655.072000,0.348138
655.385180,0.341797
655.698320,0.338668
656.011420,0.344511
656.324480,0.348878
656.637500,0.340093
656.950480,0.347328
657.263420,0.347620
657.576320,0.343018
657.889180,0.343851
658.202000,0.351449
658.514780,0.349806
658.827520,0.345738
659.140220,0.342523
659.452880,0.343401
659.765500,0.342264
660.078080,0.339753
660.390620,0.340055
660.703120,0.344943
661.015580,0.342945
661.328000,0.343199
661.640380,0.342653
661.952720,0.341950
662.265020,0.341210
662.577280,0.339695
662.889500,0.341848
663.201680,0.343650
663.513820,0.341589
663.825920,0.342939
664.137980,0.343891
664.450000,0.335678
664.761980,0.334534
665.073920,0.333009
665.385820,0.341296
665.697680,0.337521
666.009500,0.341869
666.321280,0.342942
666.633020,0.340758
666.944720,0.342770
667.256380,0.341857
667.568000,0.338655
667.879580,0.335714
668.191120,0.341690
668.502620,0.332763
668.814080,0.338947
669.125500,0.339035
669.436880,0.336791
669.748220,0.338179
670.059520,0.337185
670.370780,0.338553
670.682000,0.340531
670.993180,0.338266
671.304320,0.338608
671.615420,0.334872
671.926480,0.333215
672.237500,0.332619
672.548480,0.329666
672.859420,0.333452
673.170320,0.335872
673.481180,0.334902
673.792000,0.340426
674.102780,0.336445
674.413520,0.335399
674.724220,0.329220
675.034880,0.333700
675.345500,0.334792
675.656080,0.332486
675.966620,0.329574
676.277120,0.330648
676.587580,0.337997
676.898000,0.339306
677.208380,0.330499
677.518720,0.328228
677.829020,0.335920
678.139280,0.334322
678.449500,0.329372
678.759680,0.330836
679.069820,0.328253
679.379920,0.331950
679.689980,0.331229
680.000000,0.323364
680.309980,0.327394
680.619920,0.330178
680.929820,0.334453
681.239680,0.327179
681.549500,0.328889
681.859280,0.334951
682.169020,0.332712
682.478720,0.331339
682.788380,0.333333
683.098000,0.326477
683.407580,0.322702
683.717120,0.322072
684.026620,0.329066
684.336080,0.333839
684.645500,0.324355
684.954880,0.326029
685.264220,0.332201
685.573520,0.336886
685.882780,0.330648
686.192000,0.329947
686.501180,0.328793
686.810320,0.331284
687.119420,0.326492
687.428480,0.328143
687.737500,0.330391
688.046480,0.325537
688.355420,0.326669
688.664320,0.323642
688.973180,0.328867
689.282000,0.329090
689.590780,0.326687
689.899520,0.323965
690.208220,0.334862
690.516880,0.330661
690.825500,0.323396
691.134080,0.330296
691.442620,0.328887
691.751120,0.325749
692.059580,0.327856
692.368000,0.322226
692.676380,0.327863
692.984720,0.322901
693.293020,0.318769
693.601280,0.322396
693.909500,0.321604
694.217680,0.322544
694.525820,0.324829
694.833920,0.325830
695.141980,0.322792
695.450000,0.322519
695.757980,0.323147
696.065920,0.327767
696.373820,0.323711
696.681680,0.322593
696.989500,0.322269
697.297280,0.323221
697.605020,0.319048
697.912720,0.318985
698.220380,0.325462
698.528000,0.325949
698.835580,0.321612
699.143120,0.319564
699.450620,0.321400
699.758080,0.316471
700.065500,0.323623
700.372880,0.322400
700.680220,0.323893
700.987520,0.323413
701.294780,0.321168
701.602000,0.318542
701.909180,0.325119
702.216320,0.310520
702.523420,0.331886
702.830480,0.321584
703.137500,0.319174
703.444480,0.326233
703.751420,0.328600
704.058320,0.326078
704.365180,0.323738
704.672000,0.322376
704.978780,0.314475
705.285520,0.316901
705.592220,0.318824
705.898880,0.316785
706.205500,0.316119
706.512080,0.318720
706.818620,0.322368
707.125120,0.321538
707.431580,0.320828
707.738000,0.323828
708.044380,0.318796
708.350720,0.312572
708.657020,0.322392
708.963280,0.316382
709.269500,0.317025
709.575680,0.323379
709.881820,0.318003
710.187920,0.319455
710.493980,0.320016
710.800000,0.318841
711.105980,0.315889
711.411920,0.321640
711.717820,0.318519
712.023680,0.315585
712.329500,0.319401
712.635280,0.324031
712.941020,0.313104
713.246720,0.317787
713.552380,0.318681
713.858000,0.323611
714.163580,0.317680
714.469120,0.310668
714.774620,0.313462
715.080080,0.316058
715.385500,0.316547
715.690880,0.315976
715.996220,0.309033
716.301520,0.317391
716.606780,0.312500
716.912000,0.317447
717.217180,0.318037
717.522320,0.318091
717.827420,0.317738
718.132480,0.312726
718.437500,0.313494
718.742480,0.309274
719.047420,0.310275
719.352320,0.319220
719.657180,0.314800
719.962000,0.308933
720.266780,0.314084
720.571520,0.313173
720.876220,0.310147
721.180880,0.314799
721.485500,0.310489
721.790080,0.312527
722.094620,0.320755
722.399120,0.317536
722.703580,0.309473
723.008000,0.312204
723.312380,0.311235
723.616720,0.307692
723.921020,0.310091
724.225280,0.309337
724.529500,0.311296
724.833680,0.322509
725.137820,0.312335
725.441920,0.314757
725.745980,0.306488
726.050000,0.306270
726.353980,0.313655
726.657920,0.306793
726.961820,0.306849
727.265680,0.308830
727.569500,0.306216
727.873280,0.303464
728.177020,0.308153
728.480720,0.305556
728.784380,0.313762
729.088000,0.307584
729.391580,0.306490
729.695120,0.310461
729.998620,0.303059
730.302080,0.313311
730.605500,0.306162
730.908880,0.312102
731.212220,0.311459
731.515520,0.307655
731.818780,0.303398
732.122000,0.306102
732.425180,0.299162
732.728320,0.308875
733.031420,0.303258
733.334480,0.307653
733.637500,0.309476
733.940480,0.313715
734.243420,0.301223
734.546320,0.309129
734.849180,0.301653
735.152000,0.298237
735.454780,0.298037
735.757520,0.302950
736.060220,0.300158
736.362880,0.308298
736.665500,0.301305
736.968080,0.303600
737.270620,0.309744
737.573120,0.302402
737.875580,0.312259
738.178000,0.308111
738.480380,0.311892
738.782720,0.309160
739.085020,0.298458
739.387280,0.309867
739.689500,0.306908
739.991680,0.302077
740.293820,0.304588
740.595920,0.298275
740.897980,0.309994
741.200000,0.300056
741.501980,0.304298
741.803920,0.297860
742.105820,0.299492
742.407680,0.304019
742.709500,0.306818
743.011280,0.300703
743.313020,0.302609
743.614720,0.293093
743.916380,0.291279
744.218000,0.299523
744.519580,0.306763
744.821120,0.304790
745.122620,0.305572
745.424080,0.298678
745.725500,0.291491
746.026880,0.302956
746.328220,0.299630
746.629520,0.288380
746.930780,0.300858
747.232000,0.299203
747.533180,0.298963
747.834320,0.304321
748.135420,0.302672
748.436480,0.299439
748.737500,0.296479
749.038480,0.299328
749.339420,0.300560
749.640320,0.301069
749.941180,0.301062
750.242000,0.303392
750.542780,0.294665
750.843520,0.299808
751.144220,0.297436
751.444880,0.305644
751.745500,0.296753
752.046080,0.305324
752.346620,0.295747
752.647120,0.294579
752.947580,0.306598
753.248000,0.293359
753.548380,0.293429
753.848720,0.296201
754.149020,0.290780
754.449280,0.293500
754.749500,0.296616
755.049680,0.300000
755.349820,0.289526
755.649920,0.292796
755.949980,0.292634
756.250000,0.301118
756.549980,0.288449
756.849920,0.297077
757.149820,0.290752
757.449680,0.289109
757.749500,0.291070
758.049280,0.290785
758.349020,0.296245
758.648720,0.296066
758.948380,0.294845
759.248000,0.296496
759.547580,0.304640
759.847120,0.297726
760.146620,0.293640
760.446080,0.298387
760.745500,0.299301
761.044880,0.291903
761.344220,0.293656
761.643520,0.295904
761.942780,0.298111
762.242000,0.298444
762.541180,0.290845
762.840320,0.299157
763.139420,0.297468
763.438480,0.288448
763.737500,0.290834
764.036480,0.294899
764.335420,0.291461
764.634320,0.290367
764.933180,0.289041
765.232000,0.288688
765.530780,0.295439
765.829520,0.290210
766.128220,0.298539
766.426880,0.289979
766.725500,0.294037
767.024080,0.290123
767.322620,0.295297
767.621120,0.289973
767.919580,0.292150
768.218000,0.296854
768.516380,0.293442
768.814720,0.288752
769.113020,0.301861
769.411280,0.292818
769.709500,0.288904
770.007680,0.287662
770.305820,0.292089
770.603920,0.281671
770.901980,0.295082
771.200000,0.292120
771.497980,0.286193
771.795920,0.291639
772.093820,0.288770
772.391680,0.284773
772.689500,0.291216
772.987280,0.290236
773.285020,0.297334
773.582720,0.286486
773.880380,0.288264
774.178000,0.288344
774.475580,0.290020
774.773120,0.277108
775.070620,0.287356
775.368080,0.288577
775.665500,0.282069
775.962880,0.290861
776.260220,0.290040
776.557520,0.284189
776.854780,0.284652
777.152000,0.281167
777.449180,0.291976
777.746320,0.277554
778.043420,0.284447
778.340480,0.286198
778.637500,0.282623
778.934480,0.294553
779.231420,0.285617
779.528320,0.288577
779.825180,0.281291
780.122000,0.275564
780.418780,0.290014
780.715520,0.288397
781.012220,0.286301
781.308880,0.287356
781.605500,0.282192
781.902080,0.281314
782.198620,0.282980
782.495120,0.282579
782.791580,0.289546
783.088000,0.277433
783.384380,0.286107
783.680720,0.285226
783.977020,0.290434
784.273280,0.286014
784.569500,0.285814
784.865680,0.283032
785.161820,0.282639
785.457920,0.286209
785.753980,0.278437
786.050000,0.276934
786.345980,0.281944
786.641920,0.283137
786.937820,0.287749
787.233680,0.272791
787.529500,0.289182
787.825280,0.286119
788.121020,0.280453
788.416720,0.274524
788.712380,0.271509
789.008000,0.276204
789.303580,0.291166
789.599120,0.285818
789.894620,0.285199
790.190080,0.281363
790.485500,0.272858
790.780880,0.276703
791.076220,0.282828
791.371520,0.282498
791.666780,0.283636
791.962000,0.279941
792.257180,0.288433
792.552320,0.284989
792.847420,0.283115
793.142480,0.279121
793.437500,0.280753
793.732480,0.280907
794.027420,0.284125
794.322320,0.281879
794.617180,0.285290
794.912000,0.285290
795.206780,0.277405
795.501520,0.281369
795.796220,0.279259
796.090880,0.282592
796.385500,0.280360
796.680080,0.274495
796.974620,0.282186
797.269120,0.283876
797.563580,0.279389
797.858000,0.290053
798.152380,0.287703
798.446720,0.280000
798.741020,0.283513
799.035280,0.282609
799.329500,0.285604
799.623680,0.279845
