399.985280,0.364865
400.329500,0.391892
400.673680,0.405063
401.017820,0.500000
401.361920,0.560606
401.705980,0.414634
402.050000,0.415584
402.393980,0.435294
402.737920,0.438202
403.081820,0.422680
403.425680,0.453488
403.769500,0.364583
404.113280,0.390805
404.457020,0.483146
404.800720,0.369565
405.144380,0.414141
405.488000,0.440860
405.831580,0.422680
406.175120,0.436170
406.518620,0.400000
406.862080,0.422680
407.205500,0.416667
407.548880,0.428571
407.892220,0.411765
408.235520,0.468085
408.578780,0.457143
408.922000,0.413462
409.265180,0.393939
409.608320,0.393939
409.951420,0.443299
410.294480,0.480392
410.637500,0.467391
410.980480,0.450980
411.323420,0.448980
411.666320,0.412844
412.009180,0.463636
412.352000,0.415842
412.694780,0.431193
413.037520,0.449541
413.380220,0.387387
413.722880,0.473214
414.065500,0.468468
414.408080,0.460177
414.750620,0.442478
415.093120,0.413223
415.435580,0.428571
415.778000,0.477273
416.120380,0.403361
416.462720,0.420635
416.805020,0.481203
417.147280,0.432836
417.489500,0.400000
417.831680,0.438356
418.173820,0.482270
418.515920,0.454545
418.857980,0.449367
419.200000,0.461538
419.541980,0.467456
419.883920,0.466292
420.225820,0.439306
420.567680,0.441341
420.909500,0.431694
421.251280,0.432292
421.593020,0.428571
421.934720,0.454545
422.276380,0.446154
422.618000,0.455882
422.959580,0.431373
423.301120,0.433790
423.642620,0.386957
423.984080,0.423256
424.325500,0.452915
424.666880,0.418103
425.008220,0.428571
425.349520,0.436441
425.690780,0.423077
426.032000,0.419608
426.373180,0.443983
426.714320,0.429687
427.055420,0.428571
427.396480,0.445693
427.737500,0.418972
428.078480,0.434783
428.419420,0.429719
428.760320,0.448276
429.101180,0.472441
429.442000,0.444444
429.782780,0.430769
430.123520,0.454902
430.464220,0.402214
430.804880,0.436782
431.145500,0.389091
431.486080,0.408240
431.826620,0.426357
432.167120,0.430147
432.507580,0.452899
432.848000,0.442446
433.188380,0.436823
433.528720,0.418868
433.869020,0.446429
434.209280,0.396491
434.549500,0.421603
434.889680,0.424242
435.229820,0.406143
435.569920,0.394464
435.909980,0.414239
436.250000,0.433898
436.589980,0.399381
436.929920,0.419048
437.269820,0.413793
437.609680,0.428994
437.949500,0.421687
438.289280,0.413598
438.629020,0.418605
438.968720,0.424419
439.308380,0.406504
439.648000,0.435616
439.987580,0.420635
440.327120,0.405333
440.666620,0.420779
441.006080,0.424552
441.345500,0.415233
441.684880,0.409091
442.024220,0.421836
442.363520,0.402381
442.702780,0.393182
443.042000,0.414097
443.381180,0.431034
443.720320,0.431965
444.059420,0.407563
444.398480,0.412134
444.737500,0.422131
445.076480,0.414683
445.415420,0.425150
445.754320,0.407484
446.093180,0.411009
446.432000,0.407895
446.770780,0.432638
447.109520,0.415441
447.448220,0.402504
447.786880,0.416816
448.125500,0.401724
448.464080,0.398214
448.802620,0.404255
449.141120,0.411765
449.479580,0.410839
449.818000,0.426850
450.156380,0.408027
450.494720,0.400000
450.833020,0.398601
451.171280,0.402397
451.509500,0.442509
451.847680,0.411467
452.185820,0.414802
452.523920,0.420962
452.861980,0.411467
453.200000,0.415282
453.537980,0.405042
453.875920,0.401681
454.213820,0.393836
454.551680,0.399007
454.889500,0.384486
455.227280,0.387900
455.565020,0.408710
455.902720,0.412646
456.240380,0.386023
456.578000,0.405923
456.915580,0.416235
457.253120,0.411184
457.590620,0.405583
457.928080,0.397306
458.265500,0.412162
458.602880,0.396104
458.940220,0.411168
459.277520,0.392000
459.614780,0.409165
459.952000,0.397516
460.289180,0.401899
460.626320,0.406299
460.963420,0.400646
461.300480,0.396024
461.637500,0.399076
461.974480,0.403670
462.311420,0.403875
462.648320,0.399707
462.985180,0.388809
463.322000,0.409226
463.658780,0.386740
463.995520,0.383769
464.332220,0.398892
464.668880,0.395161
465.005500,0.400804
465.342080,0.395647
465.678620,0.398524
466.015120,0.413972
466.351580,0.398230
466.688000,0.403167
467.024380,0.392467
467.360720,0.395455
467.697020,0.399772
468.033280,0.400000
468.369500,0.411700
468.705680,0.400225
469.041820,0.392708
469.377920,0.390456
469.713980,0.386200
470.050000,0.386473
470.385980,0.390411
470.721920,0.383937
471.057820,0.394737
471.393680,0.388213
471.729500,0.381835
472.065280,0.386404
472.401020,0.391844
472.736720,0.390052
473.072380,0.395871
473.408000,0.382942
473.743580,0.382353
474.079120,0.402239
474.414620,0.401187
474.750080,0.386493
475.085500,0.394737
475.420880,0.387177
475.756220,0.394113
476.091520,0.387042
476.426780,0.391586
476.762000,0.377313
477.097180,0.386400
477.432320,0.382876
477.767420,0.383170
478.102480,0.377165
478.437500,0.392447
478.772480,0.381403
479.107420,0.384052
479.442320,0.378897
479.777180,0.389817
480.112000,0.385978
480.446780,0.387373
480.781520,0.384058
481.116220,0.388844
481.450880,0.376269
481.785500,0.382911
482.120080,0.393417
482.454620,0.383838
482.789120,0.394904
483.123580,0.383956
483.458000,0.384494
483.792380,0.388179
484.126720,0.383784
484.461020,0.391881
484.795280,0.394757
485.129500,0.389712
485.463680,0.377519
485.797820,0.383359
486.131920,0.388676
486.465980,0.382239
486.800000,0.380153
487.133980,0.381420
487.467920,0.384086
487.801820,0.387490
488.135680,0.376042
488.469500,0.373676
488.803280,0.378900
489.137020,0.365568
489.470720,0.373145
489.804380,0.379362
490.138000,0.375371
490.471580,0.395726
490.805120,0.378842
491.138620,0.378820
491.472080,0.375972
491.805500,0.375174
492.138880,0.388464
492.472220,0.374394
492.805520,0.381285
493.138780,0.385941
493.472000,0.369900
493.805180,0.380628
494.138320,0.384256
494.471420,0.376953
494.804480,0.381630
495.137500,0.376123
495.470480,0.384321
495.803420,0.377834
496.136320,0.377820
496.469180,0.372621
496.802000,0.374083
497.134780,0.377805
497.467520,0.382263
497.800220,0.376769
498.132880,0.375661
498.465500,0.374276
498.798080,0.368721
499.130620,0.380124
499.463120,0.380124
499.795580,0.373487
500.128000,0.365668
500.460380,0.382131
500.792720,0.372747
501.125020,0.370468
501.457280,0.374935
501.789500,0.379132
502.121680,0.378953
502.453820,0.380928
502.785920,0.372686
503.117980,0.374877
503.450000,0.381215
503.781980,0.374190
504.113920,0.366524
504.445820,0.374818
504.777680,0.368471
505.109500,0.376923
505.441280,0.373805
505.773020,0.375294
506.104720,0.373528
506.436380,0.383814
506.768000,0.370907
507.099580,0.363844
507.431120,0.371897
507.762620,0.375470
508.094080,0.365542
508.425500,0.376284
508.756880,0.372199
509.088220,0.366605
509.419520,0.369646
509.750780,0.366917
510.082000,0.368937
510.413180,0.375403
510.744320,0.370916
511.075420,0.366636
511.406480,0.371885
511.737500,0.369444
512.068480,0.372650
512.399420,0.370423
512.730320,0.358430
513.061180,0.364415
513.392000,0.363938
513.722780,0.375120
514.053520,0.367034
514.384220,0.371551
514.714880,0.370034
515.045500,0.364943
515.376080,0.376755
515.706620,0.366293
516.037120,0.365686
516.367580,0.377033
516.698000,0.362255
517.028380,0.367428
517.358720,0.369877
517.689020,0.368447
518.019280,0.359257
518.349500,0.368474
518.679680,0.369006
519.009820,0.359312
519.339920,0.365731
519.669980,0.364139
520.000000,0.370861
520.329980,0.364438
520.659920,0.366564
520.989820,0.376161
521.319680,0.374486
521.649500,0.362982
521.979280,0.366388
522.309020,0.360996
522.638720,0.359959
522.968380,0.362461
523.298000,0.363779
523.627580,0.367822
523.957120,0.353766
524.286620,0.365816
524.616080,0.356774
524.945500,0.360724
525.274880,0.372499
525.604220,0.362319
525.933520,0.360587
526.262780,0.359858
526.592000,0.355657
526.921180,0.357542
527.250320,0.355150
527.579420,0.362304
527.908480,0.361891
528.237500,0.368421
528.566480,0.365269
528.895420,0.364712
529.224320,0.359584
529.553180,0.364337
529.882000,0.369830
530.210780,0.352799
530.539520,0.363854
530.868220,0.365247
531.196880,0.361682
531.525500,0.368523
531.854080,0.361632
532.182620,0.360112
532.511120,0.360093
532.839580,0.369328
533.168000,0.366454
533.496380,0.361187
533.824720,0.356662
534.153020,0.362015
534.481280,0.362115
534.809500,0.365435
535.137680,0.360243
535.465820,0.365120
535.793920,0.357868
536.121980,0.360470
536.450000,0.361099
536.777980,0.367826
537.105920,0.362806
537.433820,0.364157
537.761680,0.358367
538.089500,0.363416
538.417280,0.361719
538.745020,0.365689
539.072720,0.355330
539.400380,0.361694
539.728000,0.358317
540.055580,0.357303
540.383120,0.355547
540.710620,0.356399
541.038080,0.354482
541.365500,0.362132
541.692880,0.361919
542.020220,0.366319
542.347520,0.359655
542.674780,0.360621
543.002000,0.354444
543.329180,0.358120
543.656320,0.363221
543.983420,0.355897
544.310480,0.360177
544.637500,0.364381
544.964480,0.356662
545.291420,0.359256
545.618320,0.360226
545.945180,0.357284
546.272000,0.348952
546.598780,0.362832
546.925520,0.360369
547.252220,0.359855
547.578880,0.358749
547.905500,0.356209
548.232080,0.363548
548.558620,0.355678
548.885120,0.358849
549.211580,0.359691
549.538000,0.356355
549.864380,0.359164
550.190720,0.360026
550.517020,0.361473
550.843280,0.349186
551.169500,0.355280
551.495680,0.358410
551.821820,0.361528
552.147920,0.355563
552.473980,0.352980
552.800000,0.347940
553.125980,0.364768
553.451920,0.361977
553.777820,0.356762
554.103680,0.360971
554.429500,0.353867
554.755280,0.351802
555.081020,0.352273
555.406720,0.349475
555.732380,0.354795
556.058000,0.346911
556.383580,0.356727
556.709120,0.353894
557.034620,0.354805
557.360080,0.349568
557.685500,0.353389
558.010880,0.353206
558.336220,0.352197
558.661520,0.357320
558.986780,0.358257
559.312000,0.352208
559.637180,0.351526
559.962320,0.350303
560.287420,0.351199
560.612480,0.344456
560.937500,0.349119
561.262480,0.350073
561.587420,0.353645
561.912320,0.354090
562.237180,0.350111
562.562000,0.356154
562.886780,0.353400
563.211520,0.345380
563.536220,0.346939
563.860880,0.348171
564.185500,0.342214
564.510080,0.354402
564.834620,0.344994
565.159120,0.350000
565.483580,0.348157
565.808000,0.350359
566.132380,0.350615
566.456720,0.352608
566.781020,0.348837
567.105280,0.351229
567.429500,0.351669
567.753680,0.346375
568.077820,0.344028
568.401920,0.348358
568.725980,0.345351
569.050000,0.352471
569.373980,0.341835
569.697920,0.344331
570.021820,0.343446
570.345680,0.349024
570.669500,0.349866
570.993280,0.351421
571.317020,0.344172
571.640720,0.342349
571.964380,0.345583
572.288000,0.344214
572.611580,0.351928
572.935120,0.349794
573.258620,0.344428
573.582080,0.345007
573.905500,0.344378
574.228880,0.350037
574.552220,0.344082
574.875520,0.344006
575.198780,0.344778
575.522000,0.342742
575.845180,0.340258
576.168320,0.342796
576.491420,0.343750
576.814480,0.343219
577.137500,0.349567
577.460480,0.346140
577.783420,0.348696
578.106320,0.345085
578.429180,0.344645
578.752000,0.346301
579.074780,0.350641
579.397520,0.339574
579.720220,0.346203
580.042880,0.347539
580.365500,0.339841
580.688080,0.351764
581.010620,0.345596
581.333120,0.351369
581.655580,0.345987
581.978000,0.341536
582.300380,0.338526
582.622720,0.344759
582.945020,0.346879
583.267280,0.347444
583.589500,0.344141
583.911680,0.343601
584.233820,0.341832
584.555920,0.345414
584.877980,0.342337
585.200000,0.340700
585.521980,0.344764
585.843920,0.343502
586.165820,0.346130
586.487680,0.341860
586.809500,0.347435
587.131280,0.345460
587.453020,0.342560
587.774720,0.349202
588.096380,0.343641
588.418000,0.339186
588.739580,0.347801
589.061120,0.338413
589.382620,0.342693
589.704080,0.346985
590.025500,0.348174
590.346880,0.341203
590.668220,0.347802
590.989520,0.339989
591.310780,0.346037
591.632000,0.343989
591.953180,0.345419
592.274320,0.345072
592.595420,0.338631
592.916480,0.340668
593.237500,0.342226
593.558480,0.340328
593.879420,0.340437
594.200320,0.345567
594.521180,0.346614
594.842000,0.345244
595.162780,0.344818
595.483520,0.346185
595.804220,0.341568
596.124880,0.342126
596.445500,0.338486
596.766080,0.346330
597.086620,0.346603
597.407120,0.340442
597.727580,0.344471
598.048000,0.341973
598.368380,0.339295
598.688720,0.344692
599.009020,0.342091
599.329280,0.341671
599.649500,0.344163
599.969680,0.345620
600.289820,0.336004
600.609920,0.337430
600.929980,0.338055
601.250000,0.339189
601.569980,0.339454
601.889920,0.341085
602.209820,0.337121
602.529680,0.343312
602.849500,0.340698
603.169280,0.337559
603.489020,0.339884
603.808720,0.340922
604.128380,0.341336
604.448000,0.341160
604.767580,0.332961
605.087120,0.334626
605.406620,0.335292
605.726080,0.342173
606.045500,0.330176
606.364880,0.336547
606.684220,0.337236
607.003520,0.332856
607.322780,0.337692
607.642000,0.331419
607.961180,0.334779
608.280320,0.330916
608.599420,0.332561
608.918480,0.333138
609.237500,0.333920
609.556480,0.337674
609.875420,0.330774
610.194320,0.335695
610.513180,0.333531
610.832000,0.336808
611.150780,0.339441
611.469520,0.334540
611.788220,0.327086
612.106880,0.335645
612.425500,0.332521
612.744080,0.331794
613.062620,0.327523
613.381120,0.327544
613.699580,0.337523
614.018000,0.334459
614.336380,0.336829
614.654720,0.335194
614.973020,0.331071
615.291280,0.335606
615.609500,0.330903
615.927680,0.330964
616.245820,0.328386
616.563920,0.334473
616.881980,0.328968
617.200000,0.332815
617.517980,0.329496
617.835920,0.331159
618.153820,0.327634
618.471680,0.327752
618.789500,0.332284
619.107280,0.332707
619.425020,0.332699
619.742720,0.326742
620.060380,0.330617
620.378000,0.335431
620.695580,0.329821
621.013120,0.325669
621.330620,0.325071
621.648080,0.328707
621.965500,0.327478
622.282880,0.331337
622.600220,0.329438
622.917520,0.326717
623.234780,0.330762
623.552000,0.323679
623.869180,0.325559
624.186320,0.327284
624.503420,0.331348
624.820480,0.324537
625.137500,0.330281
625.454480,0.329478
625.771420,0.323455
626.088320,0.331021
626.405180,0.329807
626.722000,0.321518
627.038780,0.333647
627.355520,0.323750
627.672220,0.325350
627.988880,0.325661
628.305500,0.332191
628.622080,0.324040
628.938620,0.324159
629.255120,0.326696
629.571580,0.325161
629.888000,0.322492
630.204380,0.320037
630.520720,0.322060
630.837020,0.327783
631.153280,0.330036
631.469500,0.328078
631.785680,0.327004
632.101820,0.329011
632.417920,0.325186
632.733980,0.320528
633.050000,0.327774
633.365980,0.321577
633.681920,0.326969
633.997820,0.325463
634.313680,0.326157
634.629500,0.322029
634.945280,0.327566
635.261020,0.327561
635.576720,0.328538
635.892380,0.326169
636.208000,0.329169
636.523580,0.329436
636.839120,0.318182
637.154620,0.326087
637.470080,0.323673
637.785500,0.333236
638.100880,0.330437
638.416220,0.323267
638.731520,0.326074
639.046780,0.323332
639.362000,0.320814
639.677180,0.323244
639.992320,0.324500
640.307420,0.329306
640.622480,0.324279
640.937500,0.323440
641.252480,0.328400
641.567420,0.324524
641.882320,0.324610
642.197180,0.326783
642.512000,0.323538
642.826780,0.327601
643.141520,0.329536
643.456220,0.325401
643.770880,0.323936
644.085500,0.324483
644.400080,0.329213
644.714620,0.321906
645.029120,0.328383
645.343580,0.323917
645.658000,0.323619
645.972380,0.322554
646.286720,0.325157
646.601020,0.326045
646.915280,0.325199
647.229500,0.321978
647.543680,0.320353
647.857820,0.319846
648.171920,0.318231
648.485980,0.319814
648.800000,0.322403
649.113980,0.316519
649.427920,0.323717
649.741820,0.313822
650.055680,0.315963
650.369500,0.323991
650.683280,0.318812
650.997020,0.319857
651.310720,0.320033
651.624380,0.317582
651.938000,0.324654
652.251580,0.320623
652.565120,0.310509
652.878620,0.321509
653.192080,0.317978
653.505500,0.316129
653.818880,0.318738
654.132220,0.320991
654.445520,0.319058
654.758780,0.313598
655.072000,0.321777
655.385180,0.316690
655.698320,0.318377
656.011420,0.314990
656.324480,0.320606
656.637500,0.314890
656.950480,0.315032
657.263420,0.318948
657.576320,0.311889
657.889180,0.313182
658.202000,0.313708
658.514780,0.318547
658.827520,0.321128
659.140220,0.313755
659.452880,0.316219
659.765500,0.308850
660.078080,0.309660
660.390620,0.312557
660.703120,0.315918
661.015580,0.311963
661.328000,0.317695
661.640380,0.314383
661.952720,0.315478
662.265020,0.315060
662.577280,0.309160
662.889500,0.312204
663.201680,0.314614
663.513820,0.311997
663.825920,0.310279
664.137980,0.312540
664.450000,0.311061
664.761980,0.307365
665.073920,0.304122
665.385820,0.311846
665.697680,0.309752
666.009500,0.315264
666.321280,0.309476
666.633020,0.313497
666.944720,0.309740
667.256380,0.313930
667.568000,0.304687
667.879580,0.312925
668.191120,0.312157
668.502620,0.304690
668.814080,0.310877
669.125500,0.309271
669.436880,0.308783
669.748220,0.307373
670.059520,0.309174
670.370780,0.311761
670.682000,0.310088
670.993180,0.310078
671.304320,0.310478
671.615420,0.305043
671.926480,0.311923
672.237500,0.303680
672.548480,0.310859
672.859420,0.304861
673.170320,0.308306
673.481180,0.311369
673.792000,0.302921
674.102780,0.303770
674.413520,0.307692
674.724220,0.304174
675.034880,0.313531
675.345500,0.301605
675.656080,0.308167
675.966620,0.304474
676.277120,0.305016
676.587580,0.302283
676.898000,0.306084
677.208380,0.303882
677.518720,0.299052
677.829020,0.305987
678.139280,0.300964
678.449500,0.308206
678.759680,0.304234
679.069820,0.310037
679.379920,0.307431
679.689980,0.300780
680.000000,0.301682
680.309980,0.300668
680.619920,0.306323
680.929820,0.303471
681.239680,0.298006
681.549500,0.302593
681.859280,0.302838
682.169020,0.301380
682.478720,0.308901
682.788380,0.306755
683.098000,0.302169
683.407580,0.303940
683.717120,0.298048
684.026620,0.301958
684.336080,0.299735
684.645500,0.300786
684.954880,0.297318
685.264220,0.299358
685.573520,0.306053
685.882780,0.304181
686.192000,0.300602
686.501180,0.296633
686.810320,0.304766
687.119420,0.300646
687.428480,0.299658
687.737500,0.305065
688.046480,0.297929
688.355420,0.301018
688.664320,0.307575
688.973180,0.303982
689.282000,0.305556
689.590780,0.306365
689.899520,0.300418
690.208220,0.305046
690.516880,0.295533
690.825500,0.293585
691.134080,0.293470
691.442620,0.297637
691.751120,0.297308
692.059580,0.298051
692.368000,0.304051
692.676380,0.306107
692.984720,0.299237
693.293020,0.299392
693.601280,0.296070
693.909500,0.295498
694.217680,0.295887
694.525820,0.299315
694.833920,0.296452
695.141980,0.304281
695.450000,0.298473
695.757980,0.300993
696.065920,0.296311
696.373820,0.296767
696.681680,0.290372
696.989500,0.299112
697.297280,0.291715
697.605020,0.296825
697.912720,0.297079
698.220380,0.290043
698.528000,0.295886
698.835580,0.298301
699.143120,0.291504
699.450620,0.295545
699.758080,0.292941
700.065500,0.299282
700.372880,0.298800
700.680220,0.293578
700.987520,0.296032
701.294780,0.296837
701.602000,0.297544
701.909180,0.300477
702.216320,0.301525
702.523420,0.295580
702.830480,0.298614
703.137500,0.289166
703.444480,0.292308
703.751420,0.299408
704.058320,0.296795
704.365180,0.291404
704.672000,0.289901
704.978780,0.292236
705.285520,0.293818
705.592220,0.285882
705.898880,0.292356
706.205500,0.293427
706.512080,0.294629
706.818620,0.289861
707.125120,0.291923
707.431580,0.295428
707.738000,0.293750
708.044380,0.289849
708.350720,0.291937
708.657020,0.294646
708.963280,0.291149
709.269500,0.293542
709.575680,0.290766
709.881820,0.290094
710.187920,0.291051
710.493980,0.290147
710.800000,0.288330
711.105980,0.290663
711.411920,0.290501
711.717820,0.288499
712.023680,0.293043
712.329500,0.292981
712.635280,0.290698
712.941020,0.293777
713.246720,0.285771
713.552380,0.293171
713.858000,0.290895
714.163580,0.288082
714.469120,0.284486
714.774620,0.289775
715.080080,0.289753
715.385500,0.291767
715.690880,0.285207
715.996220,0.284073
716.301520,0.288142
716.606780,0.284591
716.912000,0.296850
717.217180,0.283320
717.522320,0.286282
717.827420,0.285191
718.132480,0.289442
718.437500,0.284957
718.742480,0.287903
719.047420,0.286003
719.352320,0.288501
719.657180,0.284955
719.962000,0.287428
720.266780,0.285418
720.571520,0.285004
720.876220,0.286825
721.180880,0.285535
721.485500,0.286252
721.790080,0.284501
722.094620,0.288593
722.399120,0.290823
722.703580,0.280754
723.008000,0.293230
723.312380,0.286698
723.616720,0.278793
723.921020,0.285405
724.225280,0.279668
724.529500,0.282399
724.833680,0.286032
725.137820,0.284141
725.441920,0.284440
725.745980,0.285906
726.050000,0.285070
726.353980,0.281658
726.657920,0.284750
726.961820,0.284018
727.265680,0.285252
727.569500,0.280622
727.873280,0.278984
728.177020,0.282819
728.480720,0.285648
728.784380,0.288868
729.088000,0.279793
729.391580,0.280436
729.695120,0.288388
729.998620,0.289197
730.302080,0.287842
730.605500,0.284813
730.908880,0.287604
731.212220,0.283056
731.515520,0.277913
731.818780,0.277184
732.122000,0.284449
732.425180,0.278462
732.728320,0.276153
733.031420,0.278195
733.334480,0.280102
733.637500,0.280242
733.940480,0.280962
734.243420,0.278797
734.546320,0.279564
734.849180,0.285640
735.152000,0.278527
735.454780,0.276860
735.757520,0.285037
736.060220,0.274882
736.362880,0.275735
736.665500,0.278329
736.968080,0.281569
737.270620,0.282526
737.573120,0.276747
737.875580,0.276526
738.178000,0.279260
738.480380,0.277297
738.782720,0.274809
739.085020,0.278634
739.387280,0.280488
739.689500,0.281993
739.991680,0.288602
740.293820,0.275290
740.595920,0.278798
740.897980,0.273857
741.200000,0.277061
741.501980,0.283668
741.803920,0.276464
742.105820,0.275240
742.407680,0.278975
742.709500,0.268750
743.011280,0.272567
743.313020,0.276522
743.614720,0.272780
743.916380,0.278488
744.218000,0.281026
744.519580,0.278382
744.821120,0.285629
745.122620,0.276213
745.424080,0.264423
745.725500,0.273989
746.026880,0.274015
746.328220,0.273736
746.629520,0.272727
746.930780,0.267770
747.232000,0.276517
747.533180,0.278829
747.834320,0.272672
748.135420,0.272219
748.436480,0.271366
748.737500,0.271155
749.038480,0.278558
749.339420,0.276914
749.640320,0.275299
749.941180,0.277951
750.242000,0.268844
750.542780,0.273573
750.843520,0.274183
751.144220,0.275641
751.444880,0.280279
751.745500,0.265584
752.046080,0.276459
752.346620,0.265464
752.647120,0.268452
752.947580,0.275550
753.248000,0.272727
753.548380,0.270007
753.848720,0.278171
754.149020,0.260477
754.449280,0.272489
754.749500,0.266755
755.049680,0.270667
755.349820,0.268846
755.649920,0.266358
755.949980,0.274718
756.250000,0.267587
756.549980,0.273927
756.849920,0.277362
757.149820,0.262808
757.449680,0.269967
757.749500,0.272665
758.049280,0.265529
758.349020,0.270515
758.648720,0.278813
758.948380,0.272165
759.248000,0.273585
759.547580,0.267653
759.847120,0.262578
760.146620,0.269283
760.446080,0.270161
760.745500,0.273427
761.044880,0.272017
761.344220,0.272986
761.643520,0.264831
761.942780,0.264521
762.242000,0.269448
762.541180,0.269014
762.840320,0.261938
763.139420,0.260197
763.438480,0.267259
763.737500,0.269469
764.036480,0.268344
764.335420,0.275935
764.634320,0.264033
764.933180,0.267808
765.232000,0.263012
765.530780,0.271579
765.829520,0.272727
766.128220,0.271399
766.426880,0.267235
766.725500,0.274160
767.024080,0.262689
767.322620,0.266943
767.621120,0.269648
767.919580,0.268942
768.218000,0.260602
768.516380,0.264368
768.814720,0.259945
769.113020,0.262578
769.411280,0.274862
769.709500,0.263870
770.007680,0.255624
770.305820,0.265720
770.603920,0.262129
770.901980,0.269809
771.200000,0.264266
771.497980,0.254692
771.795920,0.264883
772.093820,0.261364
772.391680,0.270929
772.689500,0.260811
772.987280,0.260606
773.285020,0.265892
773.582720,0.256757
773.880380,0.266301
774.178000,0.270620
774.475580,0.261889
774.773120,0.269076
775.070620,0.269101
775.368080,0.261857
775.665500,0.259234
775.962880,0.262842
776.260220,0.258412
776.557520,0.263509
776.854780,0.260987
777.152000,0.261273
777.449180,0.260958
777.746320,0.258737
778.043420,0.262619
778.340480,0.259134
778.637500,0.262339
778.934480,0.258911
779.231420,0.259837
779.528320,0.263861
779.825180,0.253623
780.122000,0.264276
780.418780,0.258550
780.715520,0.261569
781.012220,0.265068
781.308880,0.259635
781.605500,0.258904
781.902080,0.265572
782.198620,0.259057
782.495120,0.262003
782.791580,0.266850
783.088000,0.266391
783.384380,0.269601
783.680720,0.265390
783.977020,0.257398
784.273280,0.260140
784.569500,0.262753
784.865680,0.265647
785.161820,0.263194
785.457920,0.259875
785.753980,0.258200
786.050000,0.252762
786.345980,0.258333
786.641920,0.265094
786.937820,0.269943
787.233680,0.254001
787.529500,0.264910
787.825280,0.258499
788.121020,0.265581
788.416720,0.254058
788.712380,0.251763
789.008000,0.252833
789.303580,0.260071
789.599120,0.261818
789.894620,0.259206
790.190080,0.261784
790.485500,0.251260
790.780880,0.258065
791.076220,0.260462
791.371520,0.257807
791.666780,0.258909
791.962000,0.263777
792.257180,0.255490
792.552320,0.258883
792.847420,0.264192
793.142480,0.257875
793.437500,0.256151
793.732480,0.260424
794.027420,0.261128
794.322320,0.255779
794.617180,0.259287
794.912000,0.250371
795.206780,0.259508
795.501520,0.258555
795.796220,0.264444
796.090880,0.259231
796.385500,0.257121
796.680080,0.255049
796.974620,0.255240
797.269120,0.256624
797.563580,0.258779
797.858000,0.257403
798.152380,0.256767
798.446720,0.257692
798.741020,0.254237
799.035280,0.254658
799.329500,0.257121
799.623680,0.254264
