399.985280,0.445946
400.329500,0.391892
400.673680,0.405063
401.017820,0.397059
401.361920,0.484848
401.705980,0.329268
402.050000,0.415584
402.393980,0.517647
402.737920,0.438202
403.081820,0.412371
403.425680,0.441860
403.769500,0.375000
404.113280,0.402299
404.457020,0.404494
404.800720,0.434783
405.144380,0.444444
405.488000,0.387097
405.831580,0.412371
406.175120,0.425532
406.518620,0.420000
406.862080,0.463918
407.205500,0.427083
407.548880,0.448980
407.892220,0.401961
408.235520,0.404255
408.578780,0.409524
408.922000,0.432692
409.265180,0.454545
409.608320,0.414141
409.951420,0.484536
410.294480,0.460784
410.637500,0.402174
410.980480,0.470588
411.323420,0.387755
411.666320,0.440367
412.009180,0.427273
412.352000,0.376238
412.694780,0.458716
413.037520,0.422018
413.380220,0.441441
413.722880,0.464286
414.065500,0.450450
414.408080,0.442478
414.750620,0.407080
415.093120,0.446281
415.435580,0.478992
415.778000,0.431818
416.120380,0.378151
416.462720,0.452381
416.805020,0.458647
417.147280,0.462687
417.489500,0.485714
417.831680,0.438356
418.173820,0.382979
418.515920,0.447552
418.857980,0.417722
419.200000,0.410256
419.541980,0.408284
419.883920,0.398876
420.225820,0.462428
420.567680,0.441341
420.909500,0.393443
421.251280,0.447917
421.593020,0.474490
421.934720,0.404040
422.276380,0.405128
422.618000,0.446078
422.959580,0.436275
423.301120,0.415525
423.642620,0.417391
423.984080,0.390698
424.325500,0.439462
424.666880,0.435345
425.008220,0.415966
425.349520,0.432203
425.690780,0.411538
426.032000,0.411765
426.373180,0.423237
426.714320,0.425781
427.055420,0.409266
427.396480,0.408240
427.737500,0.395257
428.078480,0.415020
428.419420,0.445783
428.760320,0.413793
429.101180,0.460630
429.442000,0.425287
429.782780,0.407692
430.123520,0.439216
430.464220,0.416974
430.804880,0.440613
431.145500,0.407273
431.486080,0.449438
431.826620,0.445736
432.167120,0.426471
432.507580,0.438406
432.848000,0.420863
433.188380,0.415162
433.528720,0.452830
433.869020,0.442857
434.209280,0.389474
434.549500,0.425087
434.889680,0.397306
435.229820,0.416382
435.569920,0.422145
435.909980,0.385113
436.250000,0.420339
436.589980,0.377709
436.929920,0.431746
437.269820,0.407524
437.609680,0.414201
437.949500,0.418675
438.289280,0.416431
438.629020,0.404070
438.968720,0.418605
439.308380,0.411924
439.648000,0.378082
439.987580,0.420635
440.327120,0.405333
440.666620,0.407792
441.006080,0.429668
441.345500,0.407862
441.684880,0.389952
442.024220,0.401985
442.363520,0.421429
442.702780,0.400000
443.042000,0.411894
443.381180,0.415948
443.720320,0.421166
444.059420,0.403361
444.398480,0.407950
444.737500,0.415984
445.076480,0.382937
445.415420,0.401198
445.754320,0.399168
446.093180,0.392661
446.432000,0.390977
446.770780,0.402277
447.109520,0.415441
447.448220,0.386404
447.786880,0.411449
448.125500,0.406897
448.464080,0.391071
448.802620,0.395390
449.141120,0.416955
449.479580,0.405594
449.818000,0.383821
450.156380,0.387960
450.494720,0.395041
450.833020,0.405594
451.171280,0.398973
451.509500,0.418118
451.847680,0.418212
452.185820,0.409639
452.523920,0.412371
452.861980,0.413153
453.200000,0.400332
453.537980,0.388235
453.875920,0.413445
454.213820,0.402397
454.551680,0.405629
454.889500,0.416526
455.227280,0.391459
455.565020,0.400335
455.902720,0.402662
456.240380,0.369384
456.578000,0.405923
456.915580,0.397237
457.253120,0.394737
457.590620,0.392447
457.928080,0.392256
458.265500,0.398649
458.602880,0.399351
458.940220,0.399323
459.277520,0.393600
459.614780,0.415712
459.952000,0.378882
460.289180,0.397152
460.626320,0.396850
460.963420,0.405493
461.300480,0.399083
461.637500,0.397535
461.974480,0.402141
462.311420,0.387481
462.648320,0.395315
462.985180,0.395983
463.322000,0.385417
463.658780,0.382597
463.995520,0.381018
464.332220,0.379501
464.668880,0.391129
465.005500,0.399464
465.342080,0.385403
465.678620,0.389914
466.015120,0.377749
466.351580,0.394437
466.688000,0.383678
467.024380,0.390036
467.360720,0.377273
467.697020,0.384966
468.033280,0.393333
468.369500,0.390728
468.705680,0.392334
469.041820,0.383333
469.377920,0.386117
469.713980,0.384140
470.050000,0.389372
470.385980,0.374755
470.721920,0.389814
471.057820,0.391813
471.393680,0.374181
471.729500,0.378128
472.065280,0.388193
472.401020,0.377660
472.736720,0.376091
473.072380,0.378815
473.408000,0.380331
473.743580,0.377163
474.079120,0.386736
474.414620,0.374046
474.750080,0.382425
475.085500,0.387336
475.420880,0.371357
475.756220,0.372036
476.091520,0.378517
476.426780,0.371359
476.762000,0.374899
477.097180,0.384000
477.432320,0.378837
477.767420,0.382353
478.102480,0.375591
478.437500,0.383415
478.772480,0.377463
479.107420,0.384052
479.442320,0.378897
479.777180,0.382657
480.112000,0.366718
480.446780,0.365549
480.781520,0.371981
481.116220,0.375909
481.450880,0.380952
481.785500,0.382911
482.120080,0.374608
482.454620,0.370629
482.789120,0.384554
483.123580,0.371495
483.458000,0.370253
483.792380,0.390575
484.126720,0.366795
484.461020,0.365340
484.795280,0.372398
485.129500,0.363991
485.463680,0.379845
485.797820,0.386470
486.131920,0.366488
486.465980,0.373745
486.800000,0.379389
487.133980,0.368580
487.467920,0.374904
487.801820,0.378337
488.135680,0.368461
488.469500,0.378215
488.803280,0.370728
489.137020,0.361905
489.470720,0.375371
489.804380,0.373422
490.138000,0.383531
490.471580,0.378777
490.805120,0.369550
491.138620,0.362473
491.472080,0.373145
491.805500,0.375174
492.138880,0.369006
492.472220,0.367474
492.805520,0.372905
493.138780,0.371468
493.472000,0.368562
493.805180,0.376535
494.138320,0.370247
494.471420,0.372396
494.804480,0.375162
495.137500,0.378049
495.470480,0.372849
495.803420,0.367758
496.136320,0.373434
496.469180,0.367096
496.802000,0.361247
497.134780,0.372347
497.467520,0.377982
497.800220,0.371462
498.132880,0.374486
498.465500,0.367903
498.798080,0.375000
499.130620,0.371701
499.463120,0.377878
499.795580,0.369087
500.128000,0.362943
500.460380,0.363294
500.792720,0.362672
501.125020,0.368891
501.457280,0.373368
501.789500,0.364153
502.121680,0.367030
502.453820,0.371749
502.785920,0.368684
503.117980,0.364082
503.450000,0.374686
503.781980,0.369208
504.113920,0.352774
504.445820,0.367526
504.777680,0.362824
505.109500,0.374038
505.441280,0.366635
505.773020,0.363551
506.104720,0.357984
506.436380,0.372456
506.768000,0.362956
507.099580,0.362929
507.431120,0.355035
507.762620,0.365132
508.094080,0.353692
508.425500,0.369748
508.756880,0.357110
509.088220,0.366605
509.419520,0.364060
509.750780,0.367385
510.082000,0.363806
510.413180,0.358821
510.744320,0.365854
511.075420,0.358845
511.406480,0.359661
511.737500,0.359722
512.068480,0.363252
512.399420,0.360094
512.730320,0.354734
513.061180,0.364415
513.392000,0.360151
513.722780,0.363593
514.053520,0.356972
514.384220,0.355852
514.714880,0.363332
515.045500,0.357280
515.376080,0.360291
515.706620,0.357038
516.037120,0.357353
516.367580,0.363233
516.698000,0.354902
517.028380,0.356504
517.358720,0.354568
517.689020,0.364985
518.019280,0.357250
518.349500,0.363406
518.679680,0.355376
519.009820,0.348178
519.339920,0.359719
519.669980,0.348569
520.000000,0.359144
520.329980,0.355106
520.659920,0.358384
520.989820,0.359649
521.319680,0.356996
521.649500,0.358869
521.979280,0.358559
522.309020,0.352178
522.638720,0.349206
522.968380,0.357291
523.298000,0.353862
523.627580,0.355406
523.957120,0.361558
524.286620,0.360083
524.616080,0.356774
524.945500,0.355039
525.274880,0.359159
525.604220,0.352484
525.933520,0.356394
526.262780,0.345666
526.592000,0.357179
526.921180,0.349416
527.250320,0.355150
527.579420,0.352703
527.908480,0.353028
528.237500,0.357001
528.566480,0.352295
528.895420,0.354855
529.224320,0.353640
529.553180,0.356145
529.882000,0.364964
530.210780,0.345560
530.539520,0.353308
530.868220,0.347535
531.196880,0.353559
531.525500,0.357869
531.854080,0.339587
532.182620,0.347034
532.511120,0.351740
532.839580,0.356624
533.168000,0.352780
533.496380,0.352968
533.824720,0.356662
534.153020,0.354436
534.481280,0.355947
534.809500,0.352243
535.137680,0.351997
535.465820,0.351804
535.793920,0.346870
536.121980,0.355854
536.450000,0.356025
536.777980,0.351487
537.105920,0.356995
537.433820,0.346563
537.761680,0.351837
538.089500,0.360178
538.417280,0.352965
538.745020,0.353407
539.072720,0.351035
539.400380,0.349262
539.728000,0.352581
540.055580,0.354682
540.383120,0.349590
540.710620,0.348586
541.038080,0.353744
541.365500,0.351838
541.692880,0.347384
542.020220,0.350846
542.347520,0.352118
542.674780,0.347918
543.002000,0.352344
543.329180,0.353209
543.656320,0.358298
543.983420,0.350085
544.310480,0.353381
544.637500,0.356534
544.964480,0.346904
545.291420,0.350615
545.618320,0.350598
545.945180,0.346078
546.272000,0.342398
546.598780,0.355949
546.925520,0.349489
547.252220,0.347639
547.578880,0.351906
547.905500,0.346405
548.232080,0.344379
548.558620,0.349170
548.885120,0.347072
549.211580,0.349084
549.538000,0.347276
549.864380,0.347910
550.190720,0.347433
550.517020,0.348435
550.843280,0.355375
551.169500,0.343511
551.495680,0.347898
551.821820,0.352057
552.147920,0.346454
552.473980,0.351334
552.800000,0.341400
553.125980,0.349050
553.451920,0.349038
553.777820,0.351099
554.103680,0.349511
554.429500,0.349515
554.755280,0.344793
555.081020,0.339906
555.406720,0.345073
555.732380,0.341579
556.058000,0.350645
556.383580,0.342691
556.709120,0.348725
557.034620,0.349638
557.360080,0.341278
557.685500,0.340595
558.010880,0.340381
558.336220,0.340598
558.661520,0.343141
558.986780,0.340893
559.312000,0.340812
559.637180,0.341113
559.962320,0.344251
560.287420,0.339210
560.612480,0.339074
560.937500,0.346182
561.262480,0.347141
561.587420,0.344215
561.912320,0.340457
562.237180,0.337158
562.562000,0.341564
562.886780,0.336678
563.211520,0.333830
563.536220,0.339518
563.860880,0.337986
564.185500,0.340338
564.510080,0.342363
564.834620,0.337551
565.159120,0.338722
565.483580,0.336374
565.808000,0.342414
566.132380,0.346885
566.456720,0.344671
566.781020,0.346587
567.105280,0.337618
567.429500,0.339150
567.753680,0.339087
568.077820,0.333591
568.401920,0.336898
568.725980,0.342694
569.050000,0.341445
569.373980,0.338028
569.697920,0.337126
570.021820,0.342322
570.345680,0.337926
570.669500,0.332697
570.993280,0.334810
571.317020,0.333212
571.640720,0.337532
571.964380,0.335561
572.288000,0.343101
572.611580,0.343317
572.935120,0.335578
573.258620,0.337322
573.582080,0.337928
573.905500,0.341028
574.228880,0.338159
574.552220,0.341883
574.875520,0.335071
575.198780,0.333574
575.522000,0.340543
575.845180,0.329871
576.168320,0.336328
576.491420,0.342297
576.814480,0.336709
577.137500,0.334776
577.460480,0.336716
577.783420,0.336906
578.106320,0.342236
578.429180,0.339696
578.752000,0.335533
579.074780,0.335469
579.397520,0.342479
579.720220,0.336229
580.042880,0.340601
580.365500,0.340834
580.688080,0.339213
581.010620,0.341546
581.333120,0.334335
581.655580,0.341658
581.978000,0.340539
582.300380,0.329114
582.622720,0.337838
582.945020,0.341352
583.267280,0.334419
583.589500,0.333226
583.911680,0.336297
584.233820,0.334907
584.555920,0.341948
584.877980,0.337312
585.200000,0.330264
585.521980,0.338894
585.843920,0.338316
586.165820,0.334857
586.487680,0.330123
586.809500,0.336034
587.131280,0.332742
587.453020,0.342262
587.774720,0.338557
588.096380,0.337806
588.418000,0.336845
588.739580,0.339465
589.061120,0.335250
589.382620,0.334670
589.704080,0.331276
590.025500,0.338470
590.346880,0.337549
590.668220,0.336600
590.989520,0.341098
591.310780,0.342723
591.632000,0.337158
591.953180,0.336286
592.274320,0.328692
592.595420,0.333782
592.916480,0.335507
593.237500,0.337106
593.558480,0.336024
593.879420,0.337200
594.200320,0.336726
594.521180,0.336255
594.842000,0.338796
595.162780,0.332799
595.483520,0.333156
595.804220,0.346133
596.124880,0.338662
596.445500,0.334294
596.766080,0.335036
597.086620,0.334926
597.407120,0.329121
597.727580,0.333333
598.048000,0.331923
598.368380,0.330089
598.688720,0.327916
599.009020,0.332272
599.329280,0.334486
599.649500,0.333333
599.969680,0.331998
600.289820,0.331464
600.609920,0.326476
600.929980,0.330572
601.250000,0.331081
601.569980,0.332973
601.889920,0.325581
602.209820,0.327652
602.529680,0.336446
602.849500,0.333333
603.169280,0.340590
603.489020,0.327982
603.808720,0.329676
604.128380,0.328918
604.448000,0.324586
604.767580,0.327933
605.087120,0.323269
605.406620,0.331094
605.726080,0.335900
606.045500,0.330176
606.364880,0.327190
606.684220,0.326956
607.003520,0.327122
607.322780,0.326606
607.642000,0.330270
607.961180,0.324949
608.280320,0.329466
608.599420,0.323870
608.918480,0.324047
609.237500,0.327171
609.556480,0.329683
609.875420,0.325753
610.194320,0.329495
610.513180,0.325836
610.832000,0.330852
611.150780,0.329528
611.469520,0.326094
611.788220,0.324667
612.106880,0.326900
612.425500,0.326127
612.744080,0.324715
613.062620,0.323242
613.381120,0.322974
613.699580,0.327406
614.018000,0.324939
614.336380,0.326033
614.654720,0.317829
614.973020,0.320272
615.291280,0.321351
615.609500,0.328051
615.927680,0.323239
616.245820,0.324675
616.563920,0.324837
616.881980,0.322732
617.200000,0.318818
617.517980,0.321095
617.835920,0.319975
618.153820,0.322350
618.471680,0.323721
618.789500,0.321901
619.107280,0.326761
619.425020,0.328576
619.742720,0.319837
620.060380,0.320276
620.378000,0.322845
620.695580,0.318327
621.013120,0.319370
621.330620,0.326326
621.648080,0.322713
621.965500,0.319950
622.282880,0.319042
622.600220,0.317435
622.917520,0.321046
623.234780,0.321440
623.552000,0.324634
623.869180,0.318941
624.186320,0.323464
624.503420,0.318495
624.820480,0.327678
625.137500,0.320177
625.454480,0.325727
625.771420,0.319042
626.088320,0.321564
626.405180,0.314561
626.722000,0.323087
627.038780,0.310777
627.355520,0.318125
627.672220,0.316952
627.988880,0.318818
628.305500,0.323465
628.622080,0.321252
628.938620,0.318960
629.255120,0.323273
629.571580,0.315660
629.888000,0.312673
630.204380,0.319730
630.520720,0.315356
630.837020,0.320382
631.153280,0.318345
631.469500,0.322013
631.785680,0.319470
632.101820,0.316647
632.417920,0.313860
632.733980,0.316927
633.050000,0.320497
633.365980,0.318613
633.681920,0.313246
633.997820,0.313808
634.313680,0.317016
634.629500,0.314951
634.945280,0.315543
635.261020,0.316407
635.576720,0.313271
635.892380,0.316875
636.208000,0.317838
636.523580,0.323590
636.839120,0.321367
637.154620,0.315652
637.470080,0.315638
637.785500,0.317702
638.100880,0.312192
638.416220,0.317515
638.731520,0.310029
639.046780,0.317215
639.362000,0.320241
639.677180,0.313535
639.992320,0.313786
640.307420,0.317224
640.622480,0.314758
640.937500,0.319556
641.252480,0.312483
641.567420,0.314862
641.882320,0.314866
642.197180,0.318080
642.512000,0.315141
642.826780,0.313454
643.141520,0.313698
643.456220,0.314333
643.770880,0.318132
644.085500,0.316657
644.400080,0.311798
644.714620,0.314103
645.029120,0.312981
645.343580,0.313494
645.658000,0.316125
645.972380,0.317347
646.286720,0.315345
646.601020,0.318849
646.915280,0.313408
647.229500,0.314286
647.543680,0.315106
647.857820,0.307735
648.171920,0.312805
648.485980,0.318992
648.800000,0.313861
649.113980,0.313747
649.427920,0.315395
649.741820,0.310525
650.055680,0.317608
650.369500,0.318105
650.683280,0.311876
650.997020,0.312706
651.310720,0.310127
651.624380,0.305769
651.938000,0.313573
652.251580,0.311996
652.565120,0.311627
652.878620,0.312500
653.192080,0.310955
653.505500,0.307153
653.818880,0.311629
654.132220,0.307035
654.445520,0.314804
654.758780,0.304249
655.072000,0.312034
655.385180,0.304708
655.698320,0.307802
656.011420,0.307825
656.324480,0.308073
656.637500,0.305620
656.950480,0.311803
657.263420,0.313036
657.576320,0.301216
657.889180,0.308758
658.202000,0.306763
658.514780,0.305746
658.827520,0.303121
659.140220,0.303866
659.452880,0.307460
659.765500,0.306141
660.078080,0.304243
660.390620,0.304308
660.703120,0.305836
661.015580,0.310736
661.328000,0.310453
661.640380,0.302578
661.952720,0.305824
662.265020,0.309074
662.577280,0.307570
662.889500,0.301798
663.201680,0.302489
663.513820,0.306208
663.825920,0.300352
664.137980,0.309308
664.450000,0.297634
664.761980,0.300491
665.073920,0.303148
665.385820,0.300393
665.697680,0.298843
666.009500,0.310941
666.321280,0.308151
666.633020,0.305186
666.944720,0.300640
667.256380,0.299125
667.568000,0.300611
667.879580,0.305782
668.191120,0.298764
668.502620,0.299897
668.814080,0.311228
669.125500,0.296271
669.436880,0.298755
669.748220,0.300104
670.059520,0.306022
670.370780,0.300974
670.682000,0.303363
670.993180,0.300916
671.304320,0.299930
671.615420,0.300071
671.926480,0.298084
672.237500,0.294391
672.548480,0.298793
672.859420,0.298427
673.170320,0.298513
673.481180,0.304127
673.792000,0.300757
674.102780,0.297666
674.413520,0.297849
674.724220,0.295463
675.034880,0.300697
675.345500,0.295405
675.656080,0.300181
675.966620,0.302656
676.277120,0.296595
676.587580,0.298969
676.898000,0.297126
677.208380,0.297227
677.518720,0.296134
677.829020,0.296378
678.139280,0.297628
678.449500,0.300037
678.759680,0.297115
679.069820,0.286989
679.379920,0.299132
679.689980,0.291868
680.000000,0.287850
680.309980,0.295100
680.619920,0.294585
680.929820,0.294140
681.239680,0.294682
681.549500,0.290000
681.859280,0.295370
682.169020,0.296904
682.478720,0.293942
682.788380,0.290882
683.098000,0.289080
683.407580,0.291932
683.717120,0.293919
684.026620,0.294428
684.336080,0.297082
684.645500,0.290685
684.954880,0.298073
685.264220,0.295583
685.573520,0.295775
685.882780,0.298044
686.192000,0.286305
686.501180,0.292471
686.810320,0.297463
687.119420,0.301786
687.428480,0.290163
687.737500,0.293170
688.046480,0.289494
688.355420,0.290456
688.664320,0.291890
688.973180,0.288285
689.282000,0.292824
689.590780,0.291411
689.899520,0.287505
690.208220,0.290138
690.516880,0.297060
690.825500,0.294340
691.134080,0.291951
691.442620,0.288110
691.751120,0.290102
692.059580,0.291173
692.368000,0.285877
692.676380,0.288168
692.984720,0.297328
693.293020,0.287234
693.601280,0.288058
693.909500,0.290201
694.217680,0.287890
694.525820,0.295506
694.833920,0.286150
695.141980,0.290012
695.450000,0.290458
695.757980,0.291826
696.065920,0.289320
696.373820,0.288684
696.681680,0.283084
696.989500,0.289078
697.297280,0.282769
697.605020,0.296032
697.912720,0.282475
698.220380,0.286108
698.528000,0.289953
698.835580,0.287633
699.143120,0.282931
699.450620,0.287589
699.758080,0.283529
700.065500,0.288508
700.372880,0.288800
700.680220,0.284803
700.987520,0.284127
701.294780,0.282238
701.602000,0.288827
701.909180,0.292130
702.216320,0.285882
702.523420,0.280979
702.830480,0.285545
703.137500,0.282151
703.444480,0.295464
703.751420,0.292702
704.058320,0.289276
704.365180,0.283912
704.672000,0.282772
704.978780,0.284042
705.285520,0.284820
705.592220,0.280392
705.898880,0.284476
706.205500,0.289515
706.512080,0.285545
706.818620,0.288313
707.125120,0.283077
707.431580,0.282532
707.738000,0.285156
708.044380,0.281745
708.350720,0.284295
708.657020,0.283705
708.963280,0.284550
709.269500,0.284932
709.575680,0.287623
709.881820,0.280267
710.187920,0.287938
710.493980,0.282777
710.800000,0.282609
711.105980,0.282380
711.411920,0.280646
711.717820,0.277193
712.023680,0.286436
712.329500,0.292192
712.635280,0.279845
712.941020,0.282953
713.246720,0.284980
713.552380,0.276688
713.858000,0.280646
714.163580,0.284530
714.469120,0.282923
714.774620,0.285038
715.080080,0.279937
715.385500,0.286171
715.690880,0.276923
715.996220,0.276941
716.301520,0.285375
716.606780,0.280660
716.912000,0.286349
717.217180,0.278931
717.522320,0.277535
717.827420,0.283564
718.132480,0.278603
718.437500,0.288626
718.742480,0.281048
719.047420,0.278722
719.352320,0.285596
719.657180,0.282502
719.962000,0.284119
720.266780,0.277939
720.571520,0.275476
720.876220,0.275777
721.180880,0.277174
721.485500,0.279565
721.790080,0.279406
722.094620,0.286021
722.399120,0.277036
722.703580,0.272182
723.008000,0.281156
723.312380,0.278089
723.616720,0.277518
723.921020,0.280641
724.225280,0.274433
724.529500,0.273643
724.833680,0.290036
725.137820,0.273128
725.441920,0.274632
725.745980,0.275615
726.050000,0.277402
726.353980,0.272195
726.657920,0.273954
726.961820,0.283105
727.265680,0.281091
727.569500,0.276965
727.873280,0.274827
728.177020,0.280977
728.480720,0.269444
728.784380,0.277125
729.088000,0.269901
729.391580,0.272856
729.695120,0.279271
729.998620,0.276291
730.302080,0.277271
730.605500,0.270257
730.908880,0.268006
731.212220,0.271303
731.515520,0.270600
731.818780,0.274272
732.122000,0.269685
732.425180,0.272055
732.728320,0.269212
733.031420,0.275188
733.334480,0.279082
733.637500,0.265625
733.940480,0.274821
734.243420,0.269623
734.546320,0.275934
734.849180,0.271694
735.152000,0.276452
735.454780,0.275826
735.757520,0.276080
736.060220,0.272249
736.362880,0.274160
736.665500,0.261619
736.968080,0.270822
737.270620,0.278171
737.573120,0.274017
737.875580,0.271578
738.178000,0.274905
738.480380,0.269189
738.782720,0.268266
739.085020,0.266520
739.387280,0.273282
739.689500,0.271234
739.991680,0.277372
740.293820,0.270868
740.595920,0.266555
740.897980,0.268210
741.200000,0.274257
741.501980,0.272779
741.803920,0.271396
742.105820,0.265651
742.407680,0.272568
742.709500,0.265341
743.011280,0.269637
743.313020,0.265507
743.614720,0.261753
743.916380,0.263953
744.218000,0.268496
744.519580,0.271739
744.821120,0.277246
745.122620,0.266028
745.424080,0.266827
745.725500,0.270972
746.026880,0.269089
746.328220,0.273736
746.629520,0.260084
746.930780,0.268995
747.232000,0.261189
747.533180,0.269677
747.834320,0.267803
748.135420,0.267247
748.436480,0.266376
748.737500,0.258802
749.038480,0.262065
749.339420,0.271313
749.640320,0.261471
749.941180,0.264834
750.242000,0.268216
750.542780,0.276055
750.843520,0.271621
751.144220,0.271795
751.444880,0.267597
751.745500,0.260390
752.046080,0.278384
752.346620,0.260954
752.647120,0.265839
752.947580,0.263260
753.248000,0.261122
753.548380,0.263500
753.848720,0.267869
754.149020,0.259188
754.449280,0.268549
754.749500,0.262110
755.049680,0.266000
755.349820,0.264843
755.649920,0.266358
755.949980,0.262774
756.250000,0.263642
756.549980,0.252145
756.849920,0.263766
757.149820,0.254158
757.449680,0.266667
757.749500,0.271984
758.049280,0.262799
758.349020,0.262170
758.648720,0.270531
758.948380,0.266667
759.248000,0.268868
759.547580,0.258911
759.847120,0.262578
760.146620,0.255751
760.446080,0.264785
760.745500,0.256643
761.044880,0.267756
761.344220,0.257306
761.643520,0.260593
761.942780,0.260322
762.242000,0.263083
762.541180,0.258451
762.840320,0.273876
763.139420,0.258790
763.438480,0.259740
763.737500,0.264645
764.036480,0.264151
764.335420,0.261821
764.634320,0.255024
764.933180,0.258219
765.232000,0.261624
765.530780,0.265263
765.829520,0.267832
766.128220,0.260960
766.426880,0.265103
766.725500,0.264565
767.024080,0.256516
767.322620,0.255878
767.621120,0.258130
767.919580,0.258703
768.218000,0.266074
768.516380,0.258959
768.814720,0.260631
769.113020,0.261199
769.411280,0.263122
769.709500,0.250338
770.007680,0.254260
770.305820,0.258959
770.603920,0.255391
770.901980,0.260929
771.200000,0.259511
771.497980,0.259383
771.795920,0.258863
772.093820,0.263369
772.391680,0.255768
772.689500,0.256757
772.987280,0.251178
773.285020,0.250854
773.582720,0.254730
773.880380,0.262869
774.178000,0.255624
774.475580,0.256530
774.773120,0.259705
775.070620,0.260311
775.368080,0.258517
775.665500,0.246474
775.962880,0.263509
776.260220,0.265141
776.557520,0.254837
776.854780,0.265720
777.152000,0.255968
777.449180,0.256912
777.746320,0.253360
778.043420,0.255116
778.340480,0.263194
778.637500,0.263692
778.934480,0.260928
779.231420,0.253053
779.528320,0.252505
779.825180,0.251647
780.122000,0.254316
780.418780,0.266758
780.715520,0.261569
781.012220,0.265068
781.308880,0.250845
781.605500,0.254110
781.902080,0.256674
782.198620,0.244019
782.495120,0.256516
782.791580,0.251719
783.088000,0.251898
783.384380,0.257909
783.680720,0.252394
783.977020,0.246387
784.273280,0.258042
784.569500,0.255066
784.865680,0.261474
785.161820,0.261111
785.457920,0.250866
785.753980,0.255408
786.050000,0.245166
786.345980,0.255556
786.641920,0.257460
786.937820,0.257123
787.233680,0.254001
787.529500,0.251040
787.825280,0.254249
788.121020,0.253541
788.416720,0.241355
788.712380,0.258815
789.008000,0.254249
789.303580,0.257244
789.599120,0.254545
789.894620,0.253430
790.190080,0.240754
790.485500,0.240461
790.780880,0.245878
791.076220,0.251804
791.371520,0.252723
791.666780,0.259636
791.962000,0.260103
792.257180,0.248902
792.552320,0.254532
792.847420,0.252547
793.142480,0.254212
793.437500,0.248191
793.732480,0.255304
794.027420,0.248516
794.322320,0.250559
794.617180,0.249629
794.912000,0.239227
795.206780,0.245339
795.501520,0.255513
795.796220,0.245185
796.090880,0.254710
796.385500,0.239880
796.680080,0.249065
796.974620,0.252246
797.269120,0.249811
797.563580,0.254198
797.858000,0.255885
798.152380,0.245166
798.446720,0.247692
798.741020,0.248074
799.035280,0.250776
799.329500,0.250192
799.623680,0.258140
