399.985280,0.378378
400.329500,0.337838
400.673680,0.341772
401.017820,0.367647
401.361920,0.409091
401.705980,0.365854
402.050000,0.415584
402.393980,0.400000
402.737920,0.438202
403.081820,0.340206
403.425680,0.383721
403.769500,0.333333
404.113280,0.459770
404.457020,0.494382
404.800720,0.336957
405.144380,0.414141
405.488000,0.376344
405.831580,0.371134
406.175120,0.414894
406.518620,0.370000
406.862080,0.381443
407.205500,0.406250
407.548880,0.408163
407.892220,0.401961
408.235520,0.393617
408.578780,0.390476
408.922000,0.336538
409.265180,0.414141
409.608320,0.333333
409.951420,0.474227
410.294480,0.480392
410.637500,0.434783
410.980480,0.401961
411.323420,0.387755
411.666320,0.431193
412.009180,0.436364
412.352000,0.316832
412.694780,0.348624
413.037520,0.385321
413.380220,0.405405
413.722880,0.401786
414.065500,0.387387
414.408080,0.389381
414.750620,0.424779
415.093120,0.371901
415.435580,0.369748
415.778000,0.416667
416.120380,0.420168
416.462720,0.412698
416.805020,0.406015
417.147280,0.447761
417.489500,0.378571
417.831680,0.363014
418.173820,0.418440
418.515920,0.426573
418.857980,0.373418
419.200000,0.410256
419.541980,0.414201
419.883920,0.404494
420.225820,0.421965
420.567680,0.385475
420.909500,0.420765
421.251280,0.401042
421.593020,0.423469
421.934720,0.393939
422.276380,0.400000
422.618000,0.406863
422.959580,0.382353
423.301120,0.388128
423.642620,0.373913
423.984080,0.432558
424.325500,0.403587
424.666880,0.400862
425.008220,0.394958
425.349520,0.385593
425.690780,0.400000
426.032000,0.384314
426.373180,0.398340
426.714320,0.363281
427.055420,0.382239
427.396480,0.382022
427.737500,0.387352
428.078480,0.426877
428.419420,0.397590
428.760320,0.398467
429.101180,0.401575
429.442000,0.398467
429.782780,0.373077
430.123520,0.396078
430.464220,0.398524
430.804880,0.409962
431.145500,0.363636
431.486080,0.404494
431.826620,0.406977
432.167120,0.375000
432.507580,0.391304
432.848000,0.402878
433.188380,0.404332
433.528720,0.388679
433.869020,0.392857
434.209280,0.371930
434.549500,0.411150
434.889680,0.390572
435.229820,0.402730
435.569920,0.408304
435.909980,0.365696
436.250000,0.400000
436.589980,0.359133
436.929920,0.422222
437.269820,0.394984
437.609680,0.393491
437.949500,0.388554
438.289280,0.390935
438.629020,0.395349
438.968720,0.383721
439.308380,0.363144
439.648000,0.405479
439.987580,0.394180
440.327120,0.384000
440.666620,0.376623
441.006080,0.398977
441.345500,0.380835
441.684880,0.363636
442.024220,0.372208
442.363520,0.371429
442.702780,0.388636
443.042000,0.376652
443.381180,0.383621
443.720320,0.390929
444.059420,0.371849
444.398480,0.380753
444.737500,0.377049
445.076480,0.375000
445.415420,0.365269
445.754320,0.372141
446.093180,0.377982
446.432000,0.377820
446.770780,0.371917
447.109520,0.387868
447.448220,0.377460
447.786880,0.382826
448.125500,0.377586
448.464080,0.375000
448.802620,0.368794
449.141120,0.359862
449.479580,0.375874
449.818000,0.373494
450.156380,0.371237
450.494720,0.371901
450.833020,0.384615
451.171280,0.366438
451.509500,0.390244
451.847680,0.372681
452.185820,0.370052
452.523920,0.383162
452.861980,0.387858
453.200000,0.377076
453.537980,0.357983
453.875920,0.383193
454.213820,0.368151
454.551680,0.375828
454.889500,0.350759
455.227280,0.366548
455.565020,0.371859
455.902720,0.384359
456.240380,0.364393
456.578000,0.367596
456.915580,0.385147
457.253120,0.355263
457.590620,0.371100
457.928080,0.375421
458.265500,0.366554
458.602880,0.355519
458.940220,0.363790
459.277520,0.352000
459.614780,0.374795
459.952000,0.368012
460.289180,0.373418
460.626320,0.359055
460.963420,0.352181
461.300480,0.371560
461.637500,0.374422
461.974480,0.373089
462.311420,0.366617
462.648320,0.366032
462.985180,0.350072
463.322000,0.360119
463.658780,0.352210
463.995520,0.353508
464.332220,0.364266
464.668880,0.358871
465.005500,0.371314
465.342080,0.366197
465.678620,0.362854
466.015120,0.364812
466.351580,0.370417
466.688000,0.360536
467.024380,0.358445
467.360720,0.365909
467.697020,0.358770
468.033280,0.367778
468.369500,0.377483
468.705680,0.354002
469.041820,0.353125
469.377920,0.353579
469.713980,0.364573
470.050000,0.354589
470.385980,0.356164
470.721920,0.345739
471.057820,0.364522
471.393680,0.350795
471.729500,0.358665
472.065280,0.356887
472.401020,0.355496
472.736720,0.348168
473.072380,0.354578
473.408000,0.355091
473.743580,0.348616
474.079120,0.354005
474.414620,0.355386
474.750080,0.353133
475.085500,0.351974
475.420880,0.360533
475.756220,0.354865
476.091520,0.355499
476.426780,0.352751
476.762000,0.353178
477.097180,0.356800
477.432320,0.352989
477.767420,0.356209
478.102480,0.351181
478.437500,0.353859
478.772480,0.338061
479.107420,0.349878
479.442320,0.353317
479.777180,0.349244
480.112000,0.351310
480.446780,0.343726
480.781520,0.347021
481.116220,0.348424
481.450880,0.342701
481.785500,0.348892
482.120080,0.352665
482.454620,0.350427
482.789120,0.343949
483.123580,0.345794
483.458000,0.353639
483.792380,0.351438
484.126720,0.349807
484.461020,0.345824
484.795280,0.346184
485.129500,0.337490
485.463680,0.344961
485.797820,0.359253
486.131920,0.340474
486.465980,0.349035
486.800000,0.345802
487.133980,0.343656
487.467920,0.353481
487.801820,0.348589
488.135680,0.344200
488.469500,0.347958
488.803280,0.345468
489.137020,0.338462
489.470720,0.350148
489.804380,0.344469
490.138000,0.348665
490.471580,0.360354
490.805120,0.340958
491.138620,0.339019
491.472080,0.347703
491.805500,0.351464
492.138880,0.341904
492.472220,0.350865
492.805520,0.351955
493.138780,0.354238
493.472000,0.341806
493.805180,0.352660
494.138320,0.350233
494.471420,0.336589
494.804480,0.347995
495.137500,0.344031
495.470480,0.342894
495.803420,0.345088
496.136320,0.340226
496.469180,0.344997
496.802000,0.348411
497.134780,0.342025
497.467520,0.348624
497.800220,0.340802
498.132880,0.349794
498.465500,0.342410
498.798080,0.340753
499.130620,0.342504
499.463120,0.342504
499.795580,0.340484
500.128000,0.336785
500.460380,0.337460
500.792720,0.340403
501.125020,0.332107
501.457280,0.336815
501.789500,0.338326
502.121680,0.344220
502.453820,0.334523
502.785920,0.335168
503.117980,0.346418
503.450000,0.348569
503.781980,0.345790
504.113920,0.334756
504.445820,0.340301
504.777680,0.336000
505.109500,0.330769
505.441280,0.336520
505.773020,0.345233
506.104720,0.334903
506.436380,0.343114
506.768000,0.335828
507.099580,0.331808
507.431120,0.335831
507.762620,0.339756
508.094080,0.329535
508.425500,0.345472
508.756880,0.334705
509.088220,0.337167
509.419520,0.341248
509.750780,0.338332
510.082000,0.335354
510.413180,0.331644
510.744320,0.334561
511.075420,0.332722
511.406480,0.335214
511.737500,0.335648
512.068480,0.331767
512.399420,0.336150
512.730320,0.335335
513.061180,0.330162
513.392000,0.328916
513.722780,0.334294
514.053520,0.331576
514.384220,0.332065
514.714880,0.339397
515.045500,0.331897
515.376080,0.338015
515.706620,0.332197
516.037120,0.337255
516.367580,0.326762
516.698000,0.329412
517.028380,0.333664
517.358720,0.329383
517.689020,0.329377
518.019280,0.337180
518.349500,0.332995
518.679680,0.323069
519.009820,0.329960
519.339920,0.330160
519.669980,0.323958
520.000000,0.329088
520.329980,0.325557
520.659920,0.330266
520.989820,0.331785
521.319680,0.338477
521.649500,0.328021
521.979280,0.336639
522.309020,0.332469
522.638720,0.330773
522.968380,0.335057
523.298000,0.326200
523.627580,0.320228
523.957120,0.320519
524.286620,0.332465
524.616080,0.324199
524.945500,0.326615
525.274880,0.328887
525.604220,0.325569
525.933520,0.328092
526.262780,0.327927
526.592000,0.322679
526.921180,0.330117
527.250320,0.325723
527.579420,0.329965
527.908480,0.331364
528.237500,0.333168
528.566480,0.329840
528.895420,0.331198
529.224320,0.324913
529.553180,0.327229
529.882000,0.333820
530.210780,0.327703
530.539520,0.336529
530.868220,0.324557
531.196880,0.325848
531.525500,0.330266
531.854080,0.318949
532.182620,0.318076
532.511120,0.319258
532.839580,0.329855
533.168000,0.326800
533.496380,0.329680
533.824720,0.324809
534.153020,0.324565
534.481280,0.325551
534.809500,0.328056
535.137680,0.319444
535.465820,0.326031
535.793920,0.322335
536.121980,0.320604
536.450000,0.327696
536.777980,0.330959
537.105920,0.323371
537.433820,0.330196
537.761680,0.329796
538.089500,0.325374
538.417280,0.322324
538.745020,0.323296
539.072720,0.324873
539.400380,0.326340
539.728000,0.325813
540.055580,0.317978
540.383120,0.322413
540.710620,0.318452
541.038080,0.323866
541.365500,0.321691
541.692880,0.326308
542.020220,0.322778
542.347520,0.330223
542.674780,0.320395
543.002000,0.318404
543.329180,0.330410
543.656320,0.323840
543.983420,0.323761
544.310480,0.322120
544.637500,0.329922
544.964480,0.321332
545.291420,0.324693
545.618320,0.327025
545.945180,0.323336
546.272000,0.316186
546.598780,0.320223
546.925520,0.323772
547.252220,0.319247
547.578880,0.327142
547.905500,0.318954
548.232080,0.323262
548.558620,0.320859
548.885120,0.327772
549.211580,0.320154
549.538000,0.326848
549.864380,0.319614
550.190720,0.316758
550.517020,0.320078
550.843280,0.321824
551.169500,0.314567
551.495680,0.318331
551.821820,0.315153
552.147920,0.319128
552.473980,0.327955
552.800000,0.314912
553.125980,0.319581
553.451920,0.318182
553.777820,0.324783
554.103680,0.316818
554.429500,0.319049
554.755280,0.318425
555.081020,0.311163
555.406720,0.322384
555.732380,0.312775
556.058000,0.316361
556.383580,0.313591
556.709120,0.315644
557.034620,0.322081
557.360080,0.314680
557.685500,0.312932
558.010880,0.314385
558.336220,0.314236
558.661520,0.321517
558.986780,0.325301
559.312000,0.318020
559.637180,0.317415
559.962320,0.323247
560.287420,0.314528
560.612480,0.316111
560.937500,0.323789
561.262480,0.314883
561.587420,0.315923
561.912320,0.316139
562.237180,0.307920
562.562000,0.314628
562.886780,0.319212
563.211520,0.307004
563.536220,0.313173
563.860880,0.320634
564.185500,0.314447
564.510080,0.314146
564.834620,0.306662
565.159120,0.312782
565.483580,0.311288
565.808000,0.312145
566.132380,0.311078
566.456720,0.319350
566.781020,0.310578
567.105280,0.305860
567.429500,0.318285
567.753680,0.311469
568.077820,0.306146
568.401920,0.310924
568.725980,0.315750
569.050000,0.307985
569.373980,0.306433
569.697920,0.312856
570.021820,0.308240
570.345680,0.310371
570.669500,0.306753
570.993280,0.306017
571.317020,0.301060
571.640720,0.307151
571.964380,0.303267
572.288000,0.308976
572.611580,0.310745
572.935120,0.312009
573.258620,0.314884
573.582080,0.307004
573.905500,0.306776
574.228880,0.308834
574.552220,0.310737
574.875520,0.308637
575.198780,0.311167
575.522000,0.310484
575.845180,0.306590
576.168320,0.308300
576.491420,0.318677
576.814480,0.313562
577.137500,0.310245
577.460480,0.308083
577.783420,0.310825
578.106320,0.313034
578.429180,0.308590
578.752000,0.311219
579.074780,0.316588
579.397520,0.307618
579.720220,0.312098
580.042880,0.312851
580.365500,0.308074
580.688080,0.305970
581.010620,0.310159
581.333120,0.313293
581.655580,0.311355
581.978000,0.307283
582.300380,0.303797
582.622720,0.311800
582.945020,0.310793
583.267280,0.316184
583.589500,0.313002
583.911680,0.310892
584.233820,0.307208
584.555920,0.307595
584.877980,0.310930
585.200000,0.301105
585.521980,0.308928
585.843920,0.311470
586.165820,0.312919
586.487680,0.310563
586.809500,0.307231
587.131280,0.301982
587.453020,0.308333
587.774720,0.306032
588.096380,0.307760
588.418000,0.312848
588.739580,0.308997
589.061120,0.311961
589.382620,0.306017
589.704080,0.309116
590.025500,0.313071
590.346880,0.315065
590.668220,0.308877
590.989520,0.307266
591.310780,0.306545
591.632000,0.306557
591.953180,0.305286
592.274320,0.302757
592.595420,0.305496
592.916480,0.305352
593.237500,0.311506
593.558480,0.308582
593.879420,0.311033
594.200320,0.305920
594.521180,0.305445
594.842000,0.314884
595.162780,0.309028
595.483520,0.310290
595.804220,0.306928
596.124880,0.307487
596.445500,0.303118
596.766080,0.307878
597.086620,0.311571
597.407120,0.303318
597.727580,0.306020
598.048000,0.305475
598.368380,0.302472
598.688720,0.304849
599.009020,0.308386
599.329280,0.300160
599.649500,0.305335
599.969680,0.306624
600.289820,0.306891
600.609920,0.305637
600.929980,0.308124
601.250000,0.307027
601.569980,0.303808
601.889920,0.293504
602.209820,0.298431
602.529680,0.310354
602.849500,0.299509
603.169280,0.309176
603.489020,0.301412
603.808720,0.301975
604.128380,0.299945
604.448000,0.299724
604.767580,0.303631
605.087120,0.295845
605.406620,0.300028
605.726080,0.306815
606.045500,0.293675
606.364880,0.297420
606.684220,0.302113
607.003520,0.299312
607.322780,0.300455
607.642000,0.300115
607.961180,0.301532
608.280320,0.299594
608.599420,0.297219
608.918480,0.299413
609.237500,0.299589
609.556480,0.294466
609.875420,0.298878
610.194320,0.302923
610.513180,0.295946
610.832000,0.296605
611.150780,0.304596
611.469520,0.294419
611.788220,0.296856
612.106880,0.300362
612.425500,0.299026
612.744080,0.304094
613.062620,0.303058
613.381120,0.290676
613.699580,0.301349
614.018000,0.300369
614.336380,0.300432
614.654720,0.301395
614.973020,0.292194
615.291280,0.299659
615.609500,0.299842
615.927680,0.296354
616.245820,0.294063
616.563920,0.299347
616.881980,0.299969
617.200000,0.294246
617.517980,0.290604
617.835920,0.292016
618.153820,0.291576
618.471680,0.294264
618.789500,0.297986
619.107280,0.294836
619.425020,0.295909
619.742720,0.290019
620.060380,0.287684
620.378000,0.297357
620.695580,0.295338
621.013120,0.287874
621.330620,0.295262
621.648080,0.290221
621.965500,0.292974
622.282880,0.289723
622.600220,0.291535
622.917520,0.296156
623.234780,0.299582
623.552000,0.293125
623.869180,0.290577
624.186320,0.293219
624.503420,0.293417
624.820480,0.293748
625.137500,0.292075
625.454480,0.289465
625.771420,0.291299
626.088320,0.289723
626.405180,0.294026
626.722000,0.291092
627.038780,0.295739
627.355520,0.294063
627.672220,0.287092
627.988880,0.287714
628.305500,0.295731
628.622080,0.290582
628.938620,0.296024
629.255120,0.294648
629.571580,0.288998
629.888000,0.291194
630.204380,0.288432
630.520720,0.290676
630.837020,0.290472
631.153280,0.289868
631.469500,0.292602
631.785680,0.288125
632.101820,0.295838
632.417920,0.289717
632.733980,0.289316
633.050000,0.289569
633.365980,0.294013
633.681920,0.290274
633.997820,0.293784
634.313680,0.291065
634.629500,0.289000
634.945280,0.286510
635.261020,0.295274
635.576720,0.291544
635.892380,0.291606
636.208000,0.287333
636.523580,0.289097
636.839120,0.288651
637.154620,0.291884
637.470080,0.287231
637.785500,0.291911
638.100880,0.289893
638.416220,0.290193
638.731520,0.284527
639.046780,0.296534
639.362000,0.291284
639.677180,0.287550
639.992320,0.290950
640.307420,0.287721
640.622480,0.292635
640.937500,0.290430
641.252480,0.292376
641.567420,0.291844
641.882320,0.289532
642.197180,0.289725
642.512000,0.289113
642.826780,0.285714
643.141520,0.288969
643.456220,0.284449
643.770880,0.288281
644.085500,0.291783
644.400080,0.291854
644.714620,0.293478
645.029120,0.287129
645.343580,0.285244
645.658000,0.290869
645.972380,0.289394
646.286720,0.288907
646.601020,0.286742
646.915280,0.293118
647.229500,0.286813
647.543680,0.286385
647.857820,0.285990
648.171920,0.289474
648.485980,0.288846
648.800000,0.282171
649.113980,0.288525
649.427920,0.290707
649.741820,0.286617
650.055680,0.285793
650.369500,0.287836
650.683280,0.281632
650.997020,0.279428
651.310720,0.282058
651.624380,0.282967
651.938000,0.286704
652.251580,0.285834
652.565120,0.279206
652.878620,0.284910
653.192080,0.285674
653.505500,0.285835
653.818880,0.284049
654.132220,0.282825
654.445520,0.281622
654.758780,0.283003
655.072000,0.286246
655.385180,0.281598
655.698320,0.281509
656.011420,0.284609
656.324480,0.282425
656.637500,0.281576
656.950480,0.283911
657.263420,0.281703
657.576320,0.280166
657.889180,0.284872
658.202000,0.283514
658.514780,0.283418
658.827520,0.286915
659.140220,0.278394
659.452880,0.283298
659.765500,0.282059
660.078080,0.276256
660.390620,0.277116
660.703120,0.283837
661.015580,0.279448
661.328000,0.287469
661.640380,0.280833
661.952720,0.278107
662.265020,0.280718
662.577280,0.274809
662.889500,0.282245
663.201680,0.277281
663.513820,0.277903
663.825920,0.284982
664.137980,0.284745
664.450000,0.275256
664.761980,0.279214
665.073920,0.276534
665.385820,0.276178
665.697680,0.277355
666.009500,0.276688
666.321280,0.279324
666.633020,0.281250
666.944720,0.276710
667.256380,0.275572
667.568000,0.271399
667.879580,0.275170
668.191120,0.281250
668.502620,0.276275
668.814080,0.274737
669.125500,0.277455
669.436880,0.281120
669.748220,0.275528
670.059520,0.279062
670.370780,0.277662
670.682000,0.274690
670.993180,0.272023
671.304320,0.276020
671.615420,0.270241
671.926480,0.272889
672.237500,0.270096
672.548480,0.266856
672.859420,0.271623
673.170320,0.276750
673.481180,0.274439
673.792000,0.270826
674.102780,0.273609
674.413520,0.273788
674.724220,0.278040
675.034880,0.276861
675.345500,0.271699
675.656080,0.274410
675.966620,0.273918
676.277120,0.272062
676.587580,0.268409
676.898000,0.271743
677.208380,0.269871
677.518720,0.269876
677.829020,0.273836
678.139280,0.275760
678.449500,0.272930
678.759680,0.270888
679.069820,0.268401
679.379920,0.273104
679.689980,0.266246
680.000000,0.268785
680.309980,0.272829
680.619920,0.270352
680.929820,0.271370
681.239680,0.264032
681.549500,0.268148
681.859280,0.269231
682.169020,0.277508
682.478720,0.268886
682.788380,0.266150
683.098000,0.268512
683.407580,0.268668
683.717120,0.267267
684.026620,0.266943
684.336080,0.267905
684.645500,0.264123
684.954880,0.268984
685.264220,0.264628
685.573520,0.276742
685.882780,0.269659
686.192000,0.270504
686.501180,0.272418
686.810320,0.270561
687.119420,0.267579
687.428480,0.264337
687.737500,0.270530
688.046480,0.271472
688.355420,0.268955
688.664320,0.267789
688.973180,0.265697
689.282000,0.268133
689.590780,0.266104
689.899520,0.258261
690.208220,0.270260
690.516880,0.267278
690.825500,0.265283
691.134080,0.263857
691.442620,0.265625
691.751120,0.266970
692.059580,0.268628
692.368000,0.268459
692.676380,0.269466
692.984720,0.266031
693.293020,0.259119
693.601280,0.262114
693.909500,0.267121
694.217680,0.266565
694.525820,0.270373
694.833920,0.260969
695.141980,0.264944
695.450000,0.267939
695.757980,0.268144
696.065920,0.264854
696.373820,0.265974
696.681680,0.261603
696.989500,0.270938
697.297280,0.266044
697.605020,0.268651
697.912720,0.258647
698.220380,0.256592
698.528000,0.263449
698.835580,0.263137
699.143120,0.258379
699.450620,0.262928
699.758080,0.256863
700.065500,0.262171
700.372880,0.260800
700.680220,0.264460
700.987520,0.266270
701.294780,0.265207
701.602000,0.261490
701.909180,0.263911
702.216320,0.261635
702.523420,0.261642
702.830480,0.266535
703.137500,0.252923
703.444480,0.267456
703.751420,0.262327
704.058320,0.261179
704.365180,0.265773
704.672000,0.259010
704.978780,0.257121
705.285520,0.257433
705.592220,0.263529
705.898880,0.266351
706.205500,0.264085
706.512080,0.261453
706.818620,0.258127
707.125120,0.260000
707.431580,0.258304
707.738000,0.258984
708.044380,0.260131
708.350720,0.261368
708.657020,0.267292
708.963280,0.259317
709.269500,0.258317
709.575680,0.266012
709.881820,0.264151
710.187920,0.262257
710.493980,0.254461
710.800000,0.251716
711.105980,0.254895
711.411920,0.258179
711.717820,0.257700
712.023680,0.257287
712.329500,0.255915
712.635280,0.264341
712.941020,0.257828
713.246720,0.254545
713.552380,0.258634
713.858000,0.254631
714.163580,0.258485
714.469120,0.256741
714.774620,0.256218
715.080080,0.254810
715.385500,0.264189
715.690880,0.263116
715.996220,0.250792
716.301520,0.256126
716.606780,0.252358
716.912000,0.261309
717.217180,0.261772
717.522320,0.256461
717.827420,0.256713
718.132480,0.257728
718.437500,0.258867
718.742480,0.255645
719.047420,0.248786
719.352320,0.254878
719.657180,0.258381
719.962000,0.251034
720.266780,0.255089
720.571520,0.251864
720.876220,0.250818
721.180880,0.252508
721.485500,0.257000
721.790080,0.255202
722.094620,0.259434
722.399120,0.259802
722.703580,0.252893
723.008000,0.251401
723.312380,0.257856
723.616720,0.246494
723.921020,0.249459
724.225280,0.251309
724.529500,0.248249
724.833680,0.253114
725.137820,0.248899
725.441920,0.249220
725.745980,0.254586
726.050000,0.254398
726.353980,0.254169
726.657920,0.251912
726.961820,0.256621
727.265680,0.252427
727.569500,0.251371
727.873280,0.246189
728.177020,0.250115
728.480720,0.251852
728.784380,0.262095
729.088000,0.252944
729.391580,0.249171
729.695120,0.250000
729.998620,0.257170
730.302080,0.255646
730.605500,0.249393
730.908880,0.248898
731.212220,0.255142
731.515520,0.253047
731.818780,0.250971
732.122000,0.250492
732.425180,0.249877
732.728320,0.247893
733.031420,0.256140
733.334480,0.243878
733.637500,0.243952
733.940480,0.250768
734.243420,0.254332
734.546320,0.251556
734.849180,0.243802
735.152000,0.247407
735.454780,0.248967
735.757520,0.235511
736.060220,0.243813
736.362880,0.253151
736.665500,0.249608
736.968080,0.252015
737.270620,0.253130
737.573120,0.250000
737.875580,0.248488
738.178000,0.252586
738.480380,0.241081
738.782720,0.243184
739.085020,0.241740
739.387280,0.246120
739.689500,0.251982
739.991680,0.249860
740.293820,0.248756
740.595920,0.250974
740.897980,0.247883
741.200000,0.242849
741.501980,0.252722
741.803920,0.236486
742.105820,0.244783
742.407680,0.249854
742.709500,0.243182
743.011280,0.245018
743.313020,0.241739
743.614720,0.240279
743.916380,0.236047
744.218000,0.250597
744.519580,0.245773
744.821120,0.250299
745.122620,0.242660
745.424080,0.247596
745.725500,0.244418
746.026880,0.243842
746.328220,0.245993
746.629520,0.242023
746.930780,0.243260
747.232000,0.245248
747.533180,0.242221
747.834320,0.239197
748.135420,0.241765
748.436480,0.248284
748.737500,0.245831
749.038480,0.236408
749.339420,0.244555
749.640320,0.249529
749.941180,0.247345
750.242000,0.241834
750.542780,0.243176
750.843520,0.240231
751.144220,0.244872
751.444880,0.244134
751.745500,0.248052
752.046080,0.251443
752.346620,0.238402
752.647120,0.239713
752.947580,0.238034
753.248000,0.239201
753.548380,0.239427
753.848720,0.248551
754.149020,0.237911
754.449280,0.248851
754.749500,0.238222
755.049680,0.236000
755.349820,0.242161
755.649920,0.245869
755.949980,0.241539
756.250000,0.248521
756.549980,0.233663
756.849920,0.239293
757.149820,0.234864
757.449680,0.234983
757.749500,0.241990
758.049280,0.245051
758.349020,0.240612
758.648720,0.245687
758.948380,0.242612
759.248000,0.235175
759.547580,0.240753
759.847120,0.235700
760.146620,0.241543
760.446080,0.239919
760.745500,0.240559
761.044880,0.240767
761.344220,0.240912
761.643520,0.242232
761.942780,0.239328
762.242000,0.231966
762.541180,0.244366
762.840320,0.240169
763.139420,0.242616
763.438480,0.233766
763.737500,0.242591
764.036480,0.245982
764.335420,0.235709
764.634320,0.237699
764.933180,0.235616
765.232000,0.243581
765.530780,0.239298
765.829520,0.248252
766.128220,0.238692
766.426880,0.237385
766.725500,0.241947
767.024080,0.229767
767.322620,0.239972
767.621120,0.231030
767.919580,0.245051
768.218000,0.236662
768.516380,0.242732
768.814720,0.235940
769.113020,0.244659
769.411280,0.239641
769.709500,0.235453
770.007680,0.231766
770.305820,0.240027
770.603920,0.235849
770.901980,0.241803
771.200000,0.228261
771.497980,0.237265
771.795920,0.242809
772.093820,0.233957
772.391680,0.235333
772.689500,0.235135
772.987280,0.241077
773.285020,0.234450
773.582720,0.233784
773.880380,0.236788
774.178000,0.232447
774.475580,0.240455
774.773120,0.234940
775.070620,0.233266
775.368080,0.242485
775.665500,0.232371
775.962880,0.232155
776.260220,0.236878
776.557520,0.228819
776.854780,0.232590
777.152000,0.226790
777.449180,0.230614
777.746320,0.226478
778.043420,0.234652
778.340480,0.235453
778.637500,0.240027
778.934480,0.238736
779.231420,0.225916
779.528320,0.230461
779.825180,0.231884
780.122000,0.227092
780.418780,0.238030
780.715520,0.240107
781.012220,0.241096
781.308880,0.233942
781.605500,0.237671
781.902080,0.228611
782.198620,0.233083
782.495120,0.238683
782.791580,0.232462
783.088000,0.237405
783.384380,0.231087
783.680720,0.235294
783.977020,0.227805
784.273280,0.239161
784.569500,0.240391
784.865680,0.236439
785.161820,0.231250
785.457920,0.230769
785.753980,0.227495
786.050000,0.226519
786.345980,0.227778
786.641920,0.226232
786.937820,0.237892
787.233680,0.227557
787.529500,0.230929
787.825280,0.232295
788.121020,0.230170
788.416720,0.232886
788.712380,0.232722
789.008000,0.228754
789.303580,0.227562
789.599120,0.237818
789.894620,0.232491
790.190080,0.227701
790.485500,0.233261
790.780880,0.222939
791.076220,0.227273
791.371520,0.229484
791.666780,0.240000
791.962000,0.232917
792.257180,0.234993
792.552320,0.227701
792.847420,0.233624
793.142480,0.231502
793.437500,0.236614
793.732480,0.237015
794.027420,0.222552
794.322320,0.228188
794.617180,0.228826
794.912000,0.224368
795.206780,0.230425
795.501520,0.235741
795.796220,0.225185
796.090880,0.230595
796.385500,0.229385
796.680080,0.222139
796.974620,0.232036
797.269120,0.231643
797.563580,0.225954
797.858000,0.233865
798.152380,0.236659
798.446720,0.233077
798.741020,0.224961
799.035280,0.225155
799.329500,0.223249
799.623680,0.233333
