399.985280,0.378378
400.329500,0.351351
400.673680,0.316456
401.017820,0.367647
401.361920,0.348485
401.705980,0.304878
402.050000,0.324675
402.393980,0.376471
402.737920,0.337079
403.081820,0.350515
403.425680,0.372093
403.769500,0.302083
404.113280,0.413793
404.457020,0.382022
404.800720,0.336957
405.144380,0.454545
405.488000,0.387097
405.831580,0.371134
406.175120,0.297872
406.518620,0.380000
406.862080,0.391753
407.205500,0.322917
407.548880,0.377551
407.892220,0.382353
408.235520,0.393617
408.578780,0.400000
408.922000,0.317308
409.265180,0.393939
409.608320,0.363636
409.951420,0.402062
410.294480,0.333333
410.637500,0.369565
410.980480,0.411765
411.323420,0.397959
411.666320,0.339450
412.009180,0.445455
412.352000,0.366337
412.694780,0.394495
413.037520,0.339450
413.380220,0.396396
413.722880,0.401786
414.065500,0.405405
414.408080,0.327434
414.750620,0.407080
415.093120,0.314050
415.435580,0.428571
415.778000,0.371212
416.120380,0.403361
416.462720,0.349206
416.805020,0.398496
417.147280,0.365672
417.489500,0.364286
417.831680,0.369863
418.173820,0.354610
418.515920,0.398601
418.857980,0.367089
419.200000,0.371795
419.541980,0.408284
419.883920,0.370787
420.225820,0.369942
420.567680,0.351955
420.909500,0.393443
421.251280,0.401042
421.593020,0.367347
421.934720,0.333333
422.276380,0.379487
422.618000,0.387255
422.959580,0.392157
423.301120,0.378995
423.642620,0.334783
423.984080,0.358140
424.325500,0.354260
424.666880,0.353448
425.008220,0.357143
425.349520,0.368644
425.690780,0.350000
426.032000,0.341176
426.373180,0.356846
426.714320,0.332031
427.055420,0.351351
427.396480,0.374532
427.737500,0.351779
428.078480,0.351779
428.419420,0.365462
428.760320,0.340996
429.101180,0.362205
429.442000,0.356322
429.782780,0.346154
430.123520,0.360784
430.464220,0.335793
430.804880,0.383142
431.145500,0.341818
431.486080,0.363296
431.826620,0.383721
432.167120,0.363971
432.507580,0.347826
432.848000,0.341727
433.188380,0.353791
433.528720,0.366038
433.869020,0.364286
434.209280,0.319298
434.549500,0.348432
434.889680,0.367003
435.229820,0.365188
435.569920,0.335640
435.909980,0.349515
436.250000,0.386441
436.589980,0.343653
436.929920,0.374603
437.269820,0.347962
437.609680,0.363905
437.949500,0.361446
438.289280,0.342776
438.629020,0.363372
438.968720,0.337209
439.308380,0.322493
439.648000,0.339726
439.987580,0.346561
440.327120,0.362667
440.666620,0.345455
441.006080,0.352941
441.345500,0.366093
441.684880,0.346890
442.024220,0.344913
442.363520,0.326190
442.702780,0.340909
443.042000,0.337004
443.381180,0.368534
443.720320,0.356371
444.059420,0.342437
444.398480,0.332636
444.737500,0.356557
445.076480,0.331349
445.415420,0.347305
445.754320,0.349272
446.093180,0.333945
446.432000,0.328947
446.770780,0.345351
447.109520,0.356618
447.448220,0.334526
447.786880,0.334526
448.125500,0.343103
448.464080,0.346429
448.802620,0.347518
449.141120,0.352941
449.479580,0.335664
449.818000,0.347676
450.156380,0.346154
450.494720,0.323967
450.833020,0.330420
451.171280,0.352740
451.509500,0.353659
451.847680,0.347386
452.185820,0.339071
452.523920,0.352234
452.861980,0.344013
453.200000,0.330565
453.537980,0.326050
453.875920,0.344538
454.213820,0.325342
454.551680,0.337748
454.889500,0.337268
455.227280,0.334520
455.565020,0.335008
455.902720,0.352745
456.240380,0.339434
456.578000,0.339721
456.915580,0.336788
457.253120,0.324013
457.590620,0.336617
457.928080,0.350168
458.265500,0.336149
458.602880,0.323052
458.940220,0.333333
459.277520,0.324800
459.614780,0.346972
459.952000,0.336957
460.289180,0.338608
460.626320,0.327559
460.963420,0.350565
461.300480,0.340979
461.637500,0.329738
461.974480,0.331804
462.311420,0.324888
462.648320,0.332357
462.985180,0.325681
463.322000,0.334821
463.658780,0.331492
463.995520,0.321871
464.332220,0.328255
464.668880,0.330645
465.005500,0.333780
465.342080,0.316261
465.678620,0.313653
466.015120,0.324709
466.351580,0.340076
466.688000,0.336175
467.024380,0.332928
467.360720,0.317045
467.697020,0.335991
468.033280,0.337778
468.369500,0.326711
468.705680,0.330327
469.041820,0.328125
469.377920,0.316703
469.713980,0.328527
470.050000,0.322705
470.385980,0.317025
470.721920,0.321254
471.057820,0.320663
471.393680,0.320861
471.729500,0.332715
472.065280,0.322898
472.401020,0.321809
472.736720,0.318499
473.072380,0.333034
473.408000,0.322889
473.743580,0.333045
474.079120,0.323859
474.414620,0.324852
474.750080,0.323027
475.085500,0.324836
475.420880,0.323064
475.756220,0.323794
476.091520,0.317136
476.426780,0.330097
476.762000,0.310539
477.097180,0.326400
477.432320,0.327948
477.767420,0.325980
478.102480,0.311811
478.437500,0.323481
478.772480,0.323877
479.107420,0.319772
479.442320,0.318145
479.777180,0.331742
480.112000,0.307396
480.446780,0.315666
480.781520,0.321256
481.116220,0.321746
481.450880,0.316940
481.785500,0.327532
482.120080,0.322100
482.454620,0.319347
482.789120,0.322452
483.123580,0.316199
483.458000,0.318829
483.792380,0.319489
484.126720,0.320463
484.461020,0.310695
484.795280,0.317656
485.129500,0.309431
485.463680,0.324806
485.797820,0.314152
486.131920,0.313695
486.465980,0.321236
486.800000,0.319847
487.133980,0.311178
487.467920,0.325937
487.801820,0.321129
488.135680,0.309325
488.469500,0.307110
488.803280,0.315750
489.137020,0.318681
489.470720,0.314540
489.804380,0.318486
490.138000,0.321217
490.471580,0.315402
490.805120,0.315940
491.138620,0.307036
491.472080,0.312367
491.805500,0.312413
492.138880,0.308548
492.472220,0.312111
492.805520,0.319134
493.138780,0.321158
493.472000,0.307692
493.805180,0.321965
494.138320,0.320213
494.471420,0.317057
494.804480,0.307891
495.137500,0.309371
495.470480,0.320586
495.803420,0.316121
496.136320,0.316416
496.469180,0.308778
496.802000,0.314181
497.134780,0.319588
497.467520,0.318654
497.800220,0.311321
498.132880,0.312757
498.465500,0.303592
498.798080,0.308790
499.130620,0.308254
499.463120,0.312746
499.795580,0.302530
500.128000,0.307357
500.460380,0.310549
500.792720,0.308059
501.125020,0.313190
501.457280,0.302872
501.789500,0.305785
502.121680,0.310524
502.453820,0.310556
502.785920,0.304152
503.117980,0.310108
503.450000,0.308388
503.781980,0.305431
504.113920,0.305358
504.445820,0.302868
504.777680,0.300706
505.109500,0.304808
505.441280,0.305927
505.773020,0.303899
506.104720,0.303815
506.436380,0.303360
506.768000,0.309635
507.099580,0.298856
507.431120,0.308197
507.762620,0.310620
508.094080,0.300365
508.425500,0.309991
508.756880,0.308185
509.088220,0.305888
509.419520,0.309125
509.750780,0.308810
510.082000,0.302239
510.413180,0.303086
510.744320,0.309250
511.075420,0.306599
511.406480,0.305125
511.737500,0.298148
512.068480,0.307331
512.399420,0.303286
512.730320,0.297460
513.061180,0.299239
513.392000,0.301467
513.722780,0.301153
514.053520,0.306181
514.384220,0.307802
514.714880,0.297271
515.045500,0.298851
515.376080,0.294431
515.706620,0.311252
516.037120,0.300490
516.367580,0.302612
516.698000,0.305882
517.028380,0.306356
517.358720,0.298272
517.689020,0.297230
518.019280,0.306071
518.349500,0.300558
518.679680,0.295305
519.009820,0.294028
519.339920,0.303607
519.669980,0.301356
520.000000,0.303107
520.329980,0.305340
520.659920,0.300613
520.989820,0.297730
521.319680,0.304012
521.649500,0.287404
521.979280,0.305324
522.309020,0.297199
522.638720,0.301587
522.968380,0.296277
523.298000,0.298017
523.627580,0.295913
523.957120,0.305455
524.286620,0.298072
524.616080,0.297828
524.945500,0.298708
525.274880,0.299641
525.604220,0.300207
525.933520,0.296122
526.262780,0.295996
526.592000,0.296804
526.921180,0.290503
527.250320,0.292745
527.579420,0.294593
527.908480,0.295421
528.237500,0.300894
528.566480,0.305389
528.895420,0.301626
529.224320,0.290243
529.553180,0.293012
529.882000,0.297324
530.210780,0.297780
530.539520,0.297220
530.868220,0.301101
531.196880,0.292881
531.525500,0.305085
531.854080,0.295028
532.182620,0.288183
532.511120,0.291879
532.839580,0.299909
533.168000,0.299909
533.496380,0.294977
533.824720,0.292508
534.153020,0.306732
534.481280,0.295154
534.809500,0.298153
535.137680,0.297309
535.465820,0.298969
535.793920,0.288494
536.121980,0.295006
536.450000,0.291332
536.777980,0.298282
537.105920,0.300955
537.433820,0.301146
537.761680,0.296327
538.089500,0.296236
538.417280,0.292877
538.745020,0.296751
539.072720,0.294026
539.400380,0.299145
539.728000,0.295220
540.055580,0.292135
540.383120,0.294862
540.710620,0.292783
541.038080,0.298414
541.365500,0.291544
541.692880,0.290698
542.020220,0.292911
542.347520,0.288586
542.674780,0.291814
543.002000,0.294612
543.329180,0.299895
543.656320,0.297468
543.983420,0.293333
544.310480,0.297316
544.637500,0.301262
544.964480,0.291386
545.291420,0.292456
545.618320,0.287849
545.945180,0.287409
546.272000,0.288991
546.598780,0.289413
546.925520,0.290142
547.252220,0.291845
547.578880,0.291300
547.905500,0.291176
548.232080,0.296621
548.558620,0.289619
548.885120,0.291462
549.211580,0.293475
549.538000,0.293774
549.864380,0.287781
550.190720,0.289635
550.517020,0.292047
550.843280,0.293811
551.169500,0.287532
551.495680,0.292050
551.821820,0.291639
552.147920,0.286272
552.473980,0.293382
552.800000,0.284500
553.125980,0.290439
553.451920,0.290975
553.777820,0.293138
554.103680,0.295585
554.429500,0.288249
554.755280,0.290053
555.081020,0.280080
555.406720,0.283779
555.732380,0.281599
556.058000,0.285472
556.383580,0.287915
556.709120,0.287733
557.034620,0.287633
557.360080,0.284974
557.685500,0.289419
558.010880,0.287348
558.336220,0.287522
558.661520,0.292449
558.986780,0.287739
559.312000,0.284544
559.637180,0.286535
559.962320,0.278391
560.287420,0.289140
560.612480,0.284535
560.937500,0.278267
561.262480,0.289589
561.587420,0.286543
561.912320,0.284819
562.237180,0.284234
562.562000,0.286569
562.886780,0.287254
563.211520,0.285395
563.536220,0.284601
563.860880,0.286307
564.185500,0.281426
564.510080,0.285929
564.834620,0.276889
565.159120,0.280451
565.483580,0.283162
565.808000,0.280742
566.132380,0.282730
566.456720,0.284203
566.781020,0.280945
567.105280,0.283176
567.429500,0.278832
567.753680,0.284235
568.077820,0.281020
568.401920,0.280367
568.725980,0.277799
569.050000,0.284791
569.373980,0.280929
569.697920,0.281001
570.021820,0.284644
570.345680,0.280903
570.669500,0.276612
570.993280,0.286453
571.317020,0.278042
571.640720,0.282327
571.964380,0.277654
572.288000,0.282641
572.611580,0.278173
572.935120,0.279835
573.258620,0.282349
573.582080,0.281669
573.905500,0.281087
574.228880,0.283593
574.552220,0.281055
574.875520,0.276992
575.198780,0.280448
575.522000,0.285191
575.845180,0.276146
576.168320,0.276680
576.491420,0.287064
576.814480,0.275226
577.137500,0.277056
577.460480,0.282711
577.783420,0.281172
578.106320,0.284900
578.429180,0.283846
578.752000,0.277874
579.074780,0.278827
579.397520,0.279858
579.720220,0.283140
580.042880,0.273869
580.365500,0.278623
580.688080,0.278494
581.010620,0.279447
581.333120,0.281229
581.655580,0.278721
581.978000,0.283339
582.300380,0.277507
582.622720,0.274225
582.945020,0.283160
583.267280,0.278411
583.589500,0.278331
583.911680,0.280724
584.233820,0.272899
584.555920,0.276395
584.877980,0.279837
585.200000,0.280847
585.521980,0.278962
585.843920,0.279439
586.165820,0.277575
586.487680,0.276858
586.809500,0.279328
587.131280,0.280982
587.453020,0.282738
587.774720,0.281195
588.096380,0.280338
588.418000,0.283875
588.739580,0.277379
589.061120,0.286084
589.382620,0.278223
589.704080,0.275736
590.025500,0.283676
590.346880,0.277403
590.668220,0.276953
590.989520,0.274820
591.310780,0.276995
591.632000,0.277869
591.953180,0.275671
592.274320,0.274365
592.595420,0.272360
592.916480,0.276284
593.237500,0.281865
593.558480,0.281679
593.879420,0.278122
594.200320,0.275650
594.521180,0.277025
594.842000,0.280494
595.162780,0.277244
595.483520,0.274661
595.804220,0.277390
596.124880,0.282707
596.445500,0.274037
596.766080,0.278570
597.086620,0.276008
597.407120,0.273565
597.727580,0.274463
598.048000,0.272150
598.368380,0.277486
598.688720,0.275754
599.009020,0.273355
599.329280,0.272219
599.649500,0.274168
599.969680,0.277778
600.289820,0.275107
600.609920,0.273845
600.929980,0.273116
601.250000,0.275405
601.569980,0.269241
601.889920,0.278535
602.209820,0.274080
602.529680,0.279044
602.849500,0.271413
603.169280,0.278038
603.489020,0.275118
603.808720,0.276467
604.128380,0.276214
604.448000,0.273204
604.767580,0.274860
605.087120,0.272022
605.406620,0.277638
605.726080,0.277445
606.045500,0.269156
606.364880,0.268217
606.684220,0.269560
607.003520,0.272936
607.322780,0.269471
607.642000,0.271109
607.961180,0.268286
608.280320,0.278422
608.599420,0.266802
608.918480,0.273607
609.237500,0.274061
609.556480,0.264871
609.875420,0.268458
610.194320,0.270151
610.513180,0.270198
610.832000,0.270697
611.150780,0.271253
611.469520,0.274208
611.788220,0.270556
612.106880,0.269903
612.425500,0.262789
612.744080,0.269929
613.062620,0.263914
613.381120,0.263559
613.699580,0.273145
614.018000,0.271192
614.336380,0.266194
614.654720,0.271318
614.973020,0.268744
615.291280,0.270530
615.609500,0.270365
615.927680,0.266069
616.245820,0.267780
616.563920,0.271060
616.881980,0.269411
617.200000,0.265941
617.517980,0.266024
617.835920,0.263125
618.153820,0.263289
618.471680,0.267287
618.789500,0.266834
619.107280,0.262911
619.425020,0.266730
619.742720,0.268675
620.060380,0.260733
620.378000,0.264003
620.695580,0.264049
621.013120,0.265827
621.330620,0.266081
621.648080,0.267508
621.965500,0.268821
622.282880,0.261034
622.600220,0.261845
622.917520,0.266541
623.234780,0.268081
623.552000,0.265436
623.869180,0.262212
624.186320,0.267112
624.503420,0.264263
624.820480,0.267358
625.137500,0.267761
625.454480,0.264458
625.771420,0.266393
626.088320,0.267654
626.405180,0.261668
626.722000,0.266939
627.038780,0.267857
627.355520,0.261250
627.672220,0.263453
627.988880,0.265319
628.305500,0.269243
628.622080,0.262392
628.938620,0.264220
629.255120,0.267268
629.571580,0.257738
629.888000,0.264805
630.204380,0.269101
630.520720,0.264168
630.837020,0.259636
631.153280,0.261391
631.469500,0.265919
631.785680,0.264316
632.101820,0.271713
632.417920,0.261997
632.733980,0.259904
633.050000,0.264706
633.365980,0.264671
633.681920,0.264021
633.997820,0.260012
634.313680,0.263049
634.629500,0.267473
634.945280,0.265103
635.261020,0.258879
635.576720,0.258074
635.892380,0.261981
636.208000,0.266124
636.523580,0.262496
636.839120,0.263752
637.154620,0.261739
637.470080,0.263128
637.785500,0.265826
638.100880,0.265566
638.416220,0.262870
638.731520,0.264183
639.046780,0.262161
639.362000,0.261181
639.677180,0.261279
639.992320,0.261066
640.307420,0.261028
640.622480,0.263792
640.937500,0.259917
641.252480,0.261380
641.567420,0.264848
641.882320,0.259465
642.197180,0.265862
642.512000,0.261125
642.826780,0.254369
643.141520,0.262851
643.456220,0.261483
643.770880,0.254284
644.085500,0.259922
644.400080,0.258989
644.714620,0.262821
645.029120,0.262651
645.343580,0.260011
645.658000,0.261171
645.972380,0.259797
646.286720,0.261924
646.601020,0.259341
646.915280,0.260762
647.229500,0.259066
647.543680,0.258216
647.857820,0.254335
648.171920,0.261259
648.485980,0.255686
648.800000,0.250758
649.113980,0.258315
649.427920,0.257420
649.741820,0.254191
650.055680,0.258365
650.369500,0.264013
650.683280,0.259989
650.997020,0.260176
651.310720,0.258393
651.624380,0.251923
651.938000,0.255679
652.251580,0.259115
652.565120,0.254053
652.878620,0.255349
653.192080,0.260112
653.505500,0.256662
653.818880,0.259596
654.132220,0.257192
654.445520,0.253261
654.758780,0.250142
655.072000,0.255587
655.385180,0.251926
655.698320,0.252929
656.011420,0.255947
656.324480,0.257359
656.637500,0.246813
656.950480,0.253670
657.263420,0.257168
657.576320,0.250519
657.889180,0.256561
658.202000,0.252717
658.514780,0.253349
658.827520,0.255102
659.140220,0.251723
659.452880,0.256720
659.765500,0.248645
660.078080,0.254288
660.390620,0.248701
660.703120,0.254507
661.015580,0.252147
661.328000,0.253463
661.640380,0.249767
661.952720,0.250389
662.265020,0.251733
662.577280,0.250318
662.889500,0.254809
663.201680,0.250798
663.513820,0.253779
663.825920,0.250400
664.137980,0.249838
664.450000,0.253197
664.761980,0.246809
665.073920,0.249270
665.385820,0.251309
665.697680,0.247934
666.009500,0.247423
666.321280,0.251491
666.633020,0.249003
666.944720,0.251769
667.256380,0.248654
667.568000,0.243546
667.879580,0.253061
668.191120,0.248626
668.502620,0.250257
668.814080,0.248421
669.125500,0.246322
669.436880,0.250346
669.748220,0.244721
670.059520,0.248599
670.370780,0.251566
670.682000,0.247434
670.993180,0.248062
671.304320,0.244726
671.615420,0.246094
671.926480,0.243435
672.237500,0.248303
672.548480,0.244500
672.859420,0.248034
673.170320,0.249184
673.481180,0.245474
673.792000,0.244140
674.102780,0.242370
674.413520,0.246081
674.724220,0.238475
675.034880,0.253025
675.345500,0.243253
675.656080,0.249728
675.966620,0.248818
676.277120,0.246796
676.587580,0.241163
676.898000,0.244867
677.208380,0.248799
677.518720,0.239971
677.829020,0.248707
678.139280,0.245738
678.449500,0.246565
678.759680,0.252529
679.069820,0.240149
679.379920,0.244059
679.689980,0.245823
680.000000,0.241869
680.309980,0.237565
680.619920,0.240439
680.929820,0.241881
681.239680,0.240768
681.549500,0.240370
681.859280,0.240478
682.169020,0.245058
682.478720,0.242334
682.788380,0.247693
683.098000,0.241960
683.407580,0.249156
683.717120,0.244369
684.026620,0.249623
684.336080,0.240621
684.645500,0.239431
684.954880,0.239894
685.264220,0.238581
685.573520,0.244766
685.882780,0.247411
686.192000,0.245297
686.501180,0.241771
686.810320,0.245965
687.119420,0.239073
687.428480,0.244208
687.737500,0.241750
688.046480,0.238880
688.355420,0.243304
688.664320,0.244070
688.973180,0.241194
689.282000,0.240741
689.590780,0.241181
689.899520,0.235853
690.208220,0.244266
690.516880,0.239786
690.825500,0.241132
691.134080,0.243736
691.442620,0.240854
691.751120,0.241942
692.059580,0.247230
692.368000,0.237410
692.676380,0.240840
692.984720,0.233588
693.293020,0.237462
693.601280,0.239985
693.909500,0.240257
694.217680,0.234196
694.525820,0.239909
694.833920,0.235406
695.141980,0.242576
695.450000,0.238550
695.757980,0.236058
696.065920,0.233786
696.373820,0.239415
696.681680,0.235903
696.989500,0.241606
697.297280,0.235706
697.605020,0.245635
697.912720,0.236357
698.220380,0.237702
698.528000,0.237342
698.835580,0.241407
699.143120,0.232268
699.450620,0.235481
699.758080,0.240784
700.065500,0.237430
700.372880,0.242000
700.680220,0.240527
700.987520,0.234127
701.294780,0.237226
701.602000,0.236133
701.909180,0.245231
702.216320,0.230739
702.523420,0.239542
702.830480,0.238020
703.137500,0.233827
703.444480,0.237870
703.751420,0.239448
704.058320,0.238227
704.365180,0.236199
704.672000,0.239604
704.978780,0.232150
705.285520,0.236307
705.592220,0.236078
705.898880,0.230496
706.205500,0.233568
706.512080,0.236177
706.818620,0.236842
707.125120,0.233846
707.431580,0.234857
707.738000,0.233984
708.044380,0.233501
708.350720,0.231945
708.657020,0.236811
708.963280,0.236801
709.269500,0.236008
709.575680,0.240472
709.881820,0.233491
710.187920,0.236187
710.493980,0.237393
710.800000,0.230359
711.105980,0.226280
711.411920,0.237288
711.717820,0.231579
712.023680,0.224252
712.329500,0.231861
712.635280,0.240698
712.941020,0.237341
713.246720,0.231621
713.552380,0.229984
713.858000,0.231376
714.163580,0.233228
714.469120,0.234076
714.774620,0.234505
715.080080,0.234786
715.385500,0.235012
715.690880,0.231953
715.996220,0.233360
716.301520,0.226482
716.606780,0.226808
716.912000,0.230210
717.217180,0.232642
717.522320,0.231014
717.827420,0.234744
718.132480,0.231634
718.437500,0.231961
718.742480,0.230242
719.047420,0.226942
719.352320,0.227065
719.657180,0.235487
719.962000,0.234078
720.266780,0.234317
720.571520,0.229909
720.876220,0.231588
721.180880,0.229097
721.485500,0.227330
721.790080,0.236093
722.094620,0.233705
722.399120,0.235674
722.703580,0.225889
723.008000,0.237171
723.312380,0.228153
723.616720,0.223544
723.921020,0.230836
724.225280,0.229494
724.529500,0.230736
724.833680,0.234875
725.137820,0.227313
725.441920,0.227820
725.745980,0.229083
726.050000,0.230492
726.353980,0.224876
726.657920,0.226271
726.961820,0.226484
727.265680,0.226537
727.569500,0.228062
727.873280,0.224480
728.177020,0.227545
728.480720,0.225000
728.784380,0.232504
729.088000,0.227037
729.391580,0.227380
729.695120,0.229367
729.998620,0.228489
730.302080,0.229697
730.605500,0.221737
730.908880,0.223420
731.212220,0.224780
731.515520,0.224281
731.818780,0.221359
732.122000,0.229331
732.425180,0.220798
732.728320,0.222112
733.031420,0.225564
733.334480,0.217857
733.637500,0.222782
733.940480,0.222108
734.243420,0.225790
734.546320,0.221992
734.849180,0.223657
735.152000,0.227178
735.454780,0.215393
735.757520,0.219705
736.060220,0.224329
736.362880,0.227416
736.665500,0.221410
736.968080,0.228909
737.270620,0.227001
737.573120,0.223799
737.875580,0.230346
738.178000,0.225912
738.480380,0.226486
738.782720,0.223010
739.085020,0.224119
739.387280,0.217849
739.689500,0.223669
739.991680,0.226839
740.293820,0.221117
740.595920,0.227045
740.897980,0.225861
741.200000,0.227145
741.501980,0.233811
741.803920,0.216216
742.105820,0.219966
742.407680,0.222481
742.709500,0.218750
743.011280,0.221571
743.313020,0.226087
743.614720,0.215322
743.916380,0.219186
744.218000,0.232100
744.519580,0.225845
744.821120,0.226347
745.122620,0.218694
745.424080,0.216346
745.725500,0.224502
746.026880,0.220443
746.328220,0.222565
746.629520,0.212523
746.930780,0.214461
747.232000,0.223176
747.533180,0.217816
747.834320,0.215460
748.135420,0.213176
748.436480,0.215845
748.737500,0.221124
749.038480,0.214417
749.339420,0.222775
749.640320,0.221873
749.941180,0.217364
750.242000,0.219221
750.542780,0.221464
750.843520,0.226137
751.144220,0.221154
751.444880,0.219404
751.745500,0.214286
752.046080,0.222579
752.346620,0.215206
752.647120,0.222077
752.947580,0.220569
753.248000,0.215345
753.548380,0.217957
753.848720,0.224082
754.149020,0.211476
754.449280,0.219961
754.749500,0.216324
755.049680,0.214667
755.349820,0.215477
755.649920,0.221414
755.949980,0.213670
756.250000,0.214333
756.549980,0.213201
756.849920,0.219579
757.149820,0.216900
757.449680,0.222442
757.749500,0.218814
758.049280,0.221843
758.349020,0.210014
758.648720,0.220842
758.948380,0.217869
759.248000,0.219003
759.547580,0.215198
759.847120,0.213646
760.146620,0.212449
760.446080,0.209677
760.745500,0.213986
761.044880,0.223011
761.344220,0.220955
761.643520,0.218220
761.942780,0.215535
762.242000,0.218529
762.541180,0.213380
762.840320,0.209972
763.139420,0.212377
763.438480,0.215311
763.737500,0.210889
764.036480,0.221523
764.335420,0.213126
764.634320,0.209979
764.933180,0.219178
765.232000,0.217904
765.530780,0.216842
765.829520,0.220979
766.128220,0.216423
766.426880,0.216063
766.725500,0.214531
767.024080,0.206447
767.322620,0.207469
767.621120,0.214770
767.919580,0.214334
768.218000,0.212722
768.516380,0.215686
768.814720,0.213992
769.113020,0.202619
769.411280,0.216160
769.709500,0.212449
770.007680,0.205181
770.305820,0.215686
770.603920,0.214960
770.901980,0.209016
771.200000,0.209918
771.497980,0.209115
771.795920,0.212709
772.093820,0.211898
772.391680,0.212920
772.689500,0.206757
772.987280,0.213468
773.285020,0.211893
773.582720,0.212162
773.880380,0.207962
774.178000,0.208589
774.475580,0.209645
774.773120,0.213521
775.070620,0.214334
775.368080,0.214429
775.665500,0.209537
775.962880,0.214143
776.260220,0.213997
776.557520,0.211474
776.854780,0.215686
777.152000,0.210212
777.449180,0.204990
777.746320,0.209677
778.043420,0.214188
778.340480,0.206360
778.637500,0.214334
778.934480,0.211163
779.231420,0.215739
779.528320,0.211089
779.825180,0.205534
780.122000,0.216467
780.418780,0.211354
780.715520,0.213950
781.012220,0.220548
781.308880,0.215010
781.605500,0.213014
781.902080,0.214237
782.198620,0.207109
782.495120,0.209877
782.791580,0.213893
783.088000,0.216011
783.384380,0.209766
783.680720,0.216826
783.977020,0.208534
784.273280,0.210490
784.569500,0.216632
784.865680,0.213491
785.161820,0.206944
785.457920,0.211365
785.753980,0.207258
786.050000,0.202348
786.345980,0.208333
786.641920,0.214434
786.937820,0.214387
787.233680,0.213640
787.529500,0.213592
787.825280,0.213173
788.121020,0.208924
788.416720,0.203952
788.712380,0.206629
789.008000,0.212465
789.303580,0.208481
789.599120,0.210182
789.894620,0.212274
790.190080,0.203771
790.485500,0.206623
790.780880,0.208602
791.076220,0.209957
791.371520,0.206972
791.666780,0.208000
791.962000,0.207201
792.257180,0.211567
792.552320,0.214648
792.847420,0.208151
793.142480,0.213919
793.437500,0.203329
793.732480,0.207754
794.027420,0.205490
794.322320,0.208054
794.617180,0.213967
794.912000,0.205052
795.206780,0.207308
795.501520,0.213688
795.796220,0.209630
796.090880,0.205727
796.385500,0.206147
796.680080,0.210172
796.974620,0.206587
797.269120,0.203634
797.563580,0.205344
797.858000,0.205771
798.152380,0.212684
798.446720,0.217692
798.741020,0.208012
799.035280,0.214286
799.329500,0.208622
799.623680,0.208527
