399.985280,0.256757
400.329500,0.324324
400.673680,0.265823
401.017820,0.308824
401.361920,0.333333
401.705980,0.207317
402.050000,0.285714
402.393980,0.341176
402.737920,0.348315
403.081820,0.329897
403.425680,0.325581
403.769500,0.250000
404.113280,0.287356
404.457020,0.359551
404.800720,0.239130
405.144380,0.323232
405.488000,0.311828
405.831580,0.329897
406.175120,0.308511
406.518620,0.280000
406.862080,0.298969
407.205500,0.322917
407.548880,0.326531
407.892220,0.303922
408.235520,0.351064
408.578780,0.304762
408.922000,0.307692
409.265180,0.353535
409.608320,0.303030
409.951420,0.309278
410.294480,0.333333
410.637500,0.315217
410.980480,0.294118
411.323420,0.316327
411.666320,0.339450
412.009180,0.363636
412.352000,0.346535
412.694780,0.330275
413.037520,0.311927
413.380220,0.306306
413.722880,0.330357
414.065500,0.369369
414.408080,0.327434
414.750620,0.256637
415.093120,0.330579
415.435580,0.361345
415.778000,0.325758
416.120380,0.319328
416.462720,0.301587
416.805020,0.300752
417.147280,0.305970
417.489500,0.350000
417.831680,0.321918
418.173820,0.304965
418.515920,0.328671
418.857980,0.303797
419.200000,0.320513
419.541980,0.325444
419.883920,0.286517
420.225820,0.323699
420.567680,0.290503
420.909500,0.316940
421.251280,0.312500
421.593020,0.316327
421.934720,0.313131
422.276380,0.323077
422.618000,0.343137
422.959580,0.318627
423.301120,0.333333
423.642620,0.265217
423.984080,0.288372
424.325500,0.286996
424.666880,0.323276
425.008220,0.298319
425.349520,0.300847
425.690780,0.288462
426.032000,0.282353
426.373180,0.290456
426.714320,0.308594
427.055420,0.277992
427.396480,0.307116
427.737500,0.280632
428.078480,0.304348
428.419420,0.317269
428.760320,0.302682
429.101180,0.287402
429.442000,0.291188
429.782780,0.307692
430.123520,0.301961
430.464220,0.276753
430.804880,0.321839
431.145500,0.294545
431.486080,0.318352
431.826620,0.294574
432.167120,0.294118
432.507580,0.318841
432.848000,0.316547
433.188380,0.299639
433.528720,0.294340
433.869020,0.300000
434.209280,0.291228
434.549500,0.292683
434.889680,0.303030
435.229820,0.296928
435.569920,0.287197
435.909980,0.271845
436.250000,0.301695
436.589980,0.275542
436.929920,0.314286
437.269820,0.304075
437.609680,0.316568
437.949500,0.310241
438.289280,0.300283
438.629020,0.311047
438.968720,0.293605
439.308380,0.292683
439.648000,0.298630
439.987580,0.301587
440.327120,0.306667
440.666620,0.293506
441.006080,0.301790
441.345500,0.282555
441.684880,0.294258
442.024220,0.275434
442.363520,0.288095
442.702780,0.281818
443.042000,0.281938
443.381180,0.295259
443.720320,0.304536
444.059420,0.285714
444.398480,0.294979
444.737500,0.286885
445.076480,0.271825
445.415420,0.293413
445.754320,0.295218
446.093180,0.288073
446.432000,0.287594
446.770780,0.290323
447.109520,0.292279
447.448220,0.293381
447.786880,0.304114
448.125500,0.287931
448.464080,0.280357
448.802620,0.299645
449.141120,0.285467
449.479580,0.279720
449.818000,0.296041
450.156380,0.287625
450.494720,0.289256
450.833020,0.286713
451.171280,0.268836
451.509500,0.297909
451.847680,0.290051
452.185820,0.290878
452.523920,0.295533
452.861980,0.290051
453.200000,0.284053
453.537980,0.277311
453.875920,0.285714
454.213820,0.279110
454.551680,0.289735
454.889500,0.281619
455.227280,0.275801
455.565020,0.289782
455.902720,0.287854
456.240380,0.272879
456.578000,0.277003
456.915580,0.288428
457.253120,0.277961
457.590620,0.287356
457.928080,0.277778
458.265500,0.285473
458.602880,0.271104
458.940220,0.272420
459.277520,0.276800
459.614780,0.284779
459.952000,0.265528
460.289180,0.294304
460.626320,0.280315
460.963420,0.269790
461.300480,0.282875
461.637500,0.274268
461.974480,0.276758
462.311420,0.277198
462.648320,0.276720
462.985180,0.272597
463.322000,0.276786
463.658780,0.272099
463.995520,0.269601
464.332220,0.267313
464.668880,0.266129
465.005500,0.288204
465.342080,0.276569
465.678620,0.269373
466.015120,0.266494
466.351580,0.280657
466.688000,0.289890
467.024380,0.278250
467.360720,0.284091
467.697020,0.273349
468.033280,0.287778
468.369500,0.271523
468.705680,0.287486
469.041820,0.277083
469.377920,0.275488
469.713980,0.273944
470.050000,0.281159
470.385980,0.275930
470.721920,0.265426
471.057820,0.271930
471.393680,0.275023
471.729500,0.278962
472.065280,0.269231
472.401020,0.265957
472.736720,0.280977
473.072380,0.277379
473.408000,0.272411
473.743580,0.276817
474.079120,0.277347
474.414620,0.273961
474.750080,0.264443
475.085500,0.271382
475.420880,0.278102
475.756220,0.265740
476.091520,0.267690
476.426780,0.264563
476.762000,0.269509
477.097180,0.272800
477.432320,0.275444
477.767420,0.263889
478.102480,0.265354
478.437500,0.263547
478.772480,0.256107
479.107420,0.258747
479.442320,0.266986
479.777180,0.272872
480.112000,0.255008
480.446780,0.269680
480.781520,0.271337
481.116220,0.267583
481.450880,0.266979
481.785500,0.276108
482.120080,0.271160
482.454620,0.269619
482.789120,0.265127
483.123580,0.265576
483.458000,0.259494
483.792380,0.269169
484.126720,0.262548
484.461020,0.265418
484.795280,0.263685
485.129500,0.272798
485.463680,0.262791
485.797820,0.268274
486.131920,0.259373
486.465980,0.261776
486.800000,0.265649
487.133980,0.264350
487.467920,0.262433
487.801820,0.270023
488.135680,0.268385
488.469500,0.263238
488.803280,0.262259
489.137020,0.257875
489.470720,0.267804
489.804380,0.262806
490.138000,0.278190
490.471580,0.266028
490.805120,0.253753
491.138620,0.249467
491.472080,0.256537
491.805500,0.265690
492.138880,0.260598
492.472220,0.251211
492.805520,0.259777
493.138780,0.254997
493.472000,0.256187
493.805180,0.262619
494.138320,0.265510
494.471420,0.259766
494.804480,0.256792
495.137500,0.252888
495.470480,0.256851
495.803420,0.259446
496.136320,0.259398
496.469180,0.255371
496.802000,0.256724
497.134780,0.260764
497.467520,0.268502
497.800220,0.258844
498.132880,0.258083
498.465500,0.263615
498.798080,0.259703
499.130620,0.262774
499.463120,0.261651
499.795580,0.254675
500.128000,0.254496
500.460380,0.257804
500.792720,0.259279
501.125020,0.253810
501.457280,0.253264
501.789500,0.253616
502.121680,0.258683
502.453820,0.252932
502.785920,0.257129
503.117980,0.256624
503.450000,0.261175
503.781980,0.259093
504.113920,0.245614
504.445820,0.255712
504.777680,0.249412
505.109500,0.254808
505.441280,0.253824
505.773020,0.254110
506.104720,0.251060
506.436380,0.256981
506.768000,0.258653
507.099580,0.252174
507.431120,0.251522
507.762620,0.258459
508.094080,0.247949
508.425500,0.257236
508.756880,0.255601
509.088220,0.248850
509.419520,0.252793
509.750780,0.254920
510.082000,0.250000
510.413180,0.251497
510.744320,0.254487
511.075420,0.248396
511.406480,0.246827
511.737500,0.244444
512.068480,0.251880
512.399420,0.250235
512.730320,0.242956
513.061180,0.248335
513.392000,0.247042
513.722780,0.249760
514.053520,0.253474
514.384220,0.250238
514.714880,0.253231
515.045500,0.242816
515.376080,0.250847
515.706620,0.252314
516.037120,0.249020
516.367580,0.249877
516.698000,0.249510
517.028380,0.250745
517.358720,0.251852
517.689020,0.252720
518.019280,0.246864
518.349500,0.248860
518.679680,0.251388
519.009820,0.244433
519.339920,0.246994
519.669980,0.242592
520.000000,0.248090
520.329980,0.254536
520.659920,0.244376
520.989820,0.246646
521.319680,0.251543
521.649500,0.247301
521.979280,0.255219
522.309020,0.244813
522.638720,0.237071
522.968380,0.252327
523.298000,0.247912
523.627580,0.249871
523.957120,0.245714
524.286620,0.244919
524.616080,0.239917
524.945500,0.253747
525.274880,0.252950
525.604220,0.240683
525.933520,0.250000
526.262780,0.242777
526.592000,0.245561
526.921180,0.249365
527.250320,0.252664
527.579420,0.247600
527.908480,0.251108
528.237500,0.251241
528.566480,0.245509
528.895420,0.246427
529.224320,0.247152
529.553180,0.251084
529.882000,0.247689
530.210780,0.250483
530.539520,0.244487
530.868220,0.243657
531.196880,0.239369
531.525500,0.245521
531.854080,0.248124
532.182620,0.241943
532.511120,0.251508
532.839580,0.247731
533.168000,0.248405
533.496380,0.248402
533.824720,0.241812
534.153020,0.248774
534.481280,0.242731
534.809500,0.251979
535.137680,0.244792
535.465820,0.243127
535.793920,0.244924
536.121980,0.242971
536.450000,0.246089
536.777980,0.246753
537.105920,0.246160
537.433820,0.244272
537.761680,0.244082
538.089500,0.248482
538.417280,0.245523
538.745020,0.248811
539.072720,0.242874
539.400380,0.240093
539.728000,0.242065
540.055580,0.241199
540.383120,0.244974
540.710620,0.238839
541.038080,0.241239
541.365500,0.243750
541.692880,0.238372
542.020220,0.245772
542.347520,0.245154
542.674780,0.244884
543.002000,0.241428
543.329180,0.243073
543.656320,0.250352
543.983420,0.244786
544.310480,0.242610
544.637500,0.241897
544.964480,0.237887
545.291420,0.236956
545.618320,0.243692
545.945180,0.235662
546.272000,0.240498
546.598780,0.239921
546.925520,0.238048
547.252220,0.237042
547.578880,0.244705
547.905500,0.245098
548.232080,0.240416
548.558620,0.247641
548.885120,0.242067
549.211580,0.242044
549.538000,0.245136
549.864380,0.243730
550.190720,0.238618
550.517020,0.238592
550.843280,0.243974
551.169500,0.230280
551.495680,0.243430
551.821820,0.239386
552.147920,0.240078
552.473980,0.241357
552.800000,0.233159
553.125980,0.235756
553.451920,0.238553
553.777820,0.241506
554.103680,0.242669
554.429500,0.232005
554.755280,0.239319
555.081020,0.236631
555.406720,0.237386
555.732380,0.235513
556.058000,0.236253
556.383580,0.240671
556.709120,0.236733
557.034620,0.232518
557.360080,0.231088
557.685500,0.238243
558.010880,0.233969
558.336220,0.233743
558.661520,0.237150
558.986780,0.237775
559.312000,0.237536
559.637180,0.238061
559.962320,0.234959
560.287420,0.234485
560.612480,0.236814
560.937500,0.235683
561.262480,0.232038
561.587420,0.234313
561.912320,0.234709
562.237180,0.239822
562.562000,0.238683
562.886780,0.236715
563.211520,0.228018
563.536220,0.233024
563.860880,0.237646
564.185500,0.234897
564.510080,0.233634
564.834620,0.228508
565.159120,0.228571
565.483580,0.232231
565.808000,0.233447
566.132380,0.228646
566.456720,0.236961
566.781020,0.235184
567.105280,0.230246
567.429500,0.232929
567.753680,0.231300
568.077820,0.226904
568.401920,0.236058
568.725980,0.235294
569.050000,0.236122
569.373980,0.234107
569.697920,0.232082
570.021820,0.228464
570.345680,0.231535
570.669500,0.229302
570.993280,0.232189
571.317020,0.227621
571.640720,0.228974
571.964380,0.227914
572.288000,0.227374
572.611580,0.228753
572.935120,0.238683
573.258620,0.229993
573.582080,0.230253
573.905500,0.231571
574.228880,0.230883
574.552220,0.232686
574.875520,0.230454
575.198780,0.233104
575.522000,0.234971
575.845180,0.229585
576.168320,0.231046
576.491420,0.235465
576.814480,0.233273
577.137500,0.235570
577.460480,0.226169
577.783420,0.235441
578.106320,0.226496
578.429180,0.228703
578.752000,0.229594
579.074780,0.234659
579.397520,0.234022
579.720220,0.230695
580.042880,0.228279
580.365500,0.232958
580.688080,0.227612
581.010620,0.230847
581.333120,0.235471
581.655580,0.232101
581.978000,0.231792
582.300380,0.230769
582.622720,0.232367
582.945020,0.236346
583.267280,0.237382
583.589500,0.228892
583.911680,0.230232
584.233820,0.225055
584.555920,0.232903
584.877980,0.231156
585.200000,0.228668
585.521980,0.227680
585.843920,0.231544
586.165820,0.229129
586.487680,0.229010
586.809500,0.225323
587.131280,0.221828
587.453020,0.232143
587.774720,0.231224
588.096380,0.233081
588.418000,0.233246
588.739580,0.233113
589.061120,0.232030
589.382620,0.226648
589.704080,0.225245
590.025500,0.232591
590.346880,0.232715
590.668220,0.228507
590.989520,0.229063
591.310780,0.229771
591.632000,0.231967
591.953180,0.231110
592.274320,0.231231
592.595420,0.226293
592.916480,0.224667
593.237500,0.227432
593.558480,0.227065
593.879420,0.227408
594.200320,0.232521
594.521180,0.226295
594.842000,0.233477
595.162780,0.230769
595.483520,0.230524
595.804220,0.226101
596.124880,0.231282
596.445500,0.223736
596.766080,0.232858
597.086620,0.231688
597.407120,0.226698
597.727580,0.229382
598.048000,0.228511
598.368380,0.231720
598.688720,0.230668
599.009020,0.227707
599.329280,0.230176
599.649500,0.224511
599.969680,0.228900
600.289820,0.225694
600.609920,0.226823
600.929980,0.227418
601.250000,0.229459
601.569980,0.224953
601.889920,0.228281
602.209820,0.226461
602.529680,0.230706
602.849500,0.225314
603.169280,0.228162
603.489020,0.227789
603.808720,0.229018
604.128380,0.227097
604.448000,0.224309
604.767580,0.224022
605.087120,0.224377
605.406620,0.223342
605.726080,0.224693
606.045500,0.221510
606.364880,0.224270
606.684220,0.223301
607.003520,0.223911
607.322780,0.221148
607.642000,0.217404
607.961180,0.217982
608.280320,0.217807
608.599420,0.219583
608.918480,0.224927
609.237500,0.223592
609.556480,0.224327
609.875420,0.218842
610.194320,0.220844
610.513180,0.223439
610.832000,0.220965
611.150780,0.223791
611.469520,0.220513
611.788220,0.221282
612.106880,0.219240
612.425500,0.225030
612.744080,0.221607
613.062620,0.222324
613.381120,0.221511
613.699580,0.216432
614.018000,0.224509
614.336380,0.222394
614.654720,0.220465
614.973020,0.220611
615.291280,0.216610
615.609500,0.222187
615.927680,0.220025
616.245820,0.221398
616.563920,0.217905
616.881980,0.221703
617.200000,0.216174
617.517980,0.219042
617.835920,0.214974
618.153820,0.218837
618.471680,0.218915
618.789500,0.221838
619.107280,0.221596
619.425020,0.223597
619.742720,0.218142
620.060380,0.217800
620.378000,0.217118
620.695580,0.216794
621.013120,0.220472
621.330620,0.220270
621.648080,0.218297
621.965500,0.218319
622.282880,0.219420
622.600220,0.218256
622.917520,0.220227
623.234780,0.219544
623.552000,0.222151
623.869180,0.216199
624.186320,0.219994
624.503420,0.215361
624.820480,0.218347
625.137500,0.213135
625.454480,0.214755
625.771420,0.219105
626.088320,0.216898
626.405180,0.212508
626.722000,0.218946
627.038780,0.215539
627.355520,0.218125
627.672220,0.216174
627.988880,0.221462
628.305500,0.221253
628.622080,0.217472
628.938620,0.217737
629.255120,0.220286
629.571580,0.215139
629.888000,0.215097
630.204380,0.216938
630.520720,0.213285
630.837020,0.220783
631.153280,0.218525
631.469500,0.220133
631.785680,0.218204
632.101820,0.219542
632.417920,0.212519
632.733980,0.215486
633.050000,0.218921
633.365980,0.221399
633.681920,0.217184
633.997820,0.219366
634.313680,0.216455
634.629500,0.215276
634.945280,0.220528
635.261020,0.217200
635.576720,0.215502
635.892380,0.216091
636.208000,0.219349
636.523580,0.217480
636.839120,0.214244
637.154620,0.215942
637.470080,0.216930
637.785500,0.217761
638.100880,0.216623
638.416220,0.215703
638.731520,0.218052
639.046780,0.216429
639.362000,0.217890
639.677180,0.210166
639.992320,0.219058
640.307420,0.212419
640.622480,0.215346
640.937500,0.213315
641.252480,0.220330
641.567420,0.216823
641.882320,0.215757
642.197180,0.220943
642.512000,0.214386
642.826780,0.215257
643.141520,0.213948
643.456220,0.216381
643.770880,0.213930
644.085500,0.214366
644.400080,0.215730
644.714620,0.212932
645.029120,0.212871
645.343580,0.216127
645.658000,0.214266
645.972380,0.215401
646.286720,0.211774
646.601020,0.213950
646.915280,0.211132
647.229500,0.215934
647.543680,0.210715
647.857820,0.212497
648.171920,0.213239
648.485980,0.208002
648.800000,0.211077
649.113980,0.212306
649.427920,0.216089
649.741820,0.206650
650.055680,0.217224
650.369500,0.216087
650.683280,0.213097
650.997020,0.213696
651.310720,0.213814
651.624380,0.214286
651.938000,0.211634
652.251580,0.210966
652.565120,0.210732
652.878620,0.213401
653.192080,0.208708
653.505500,0.202805
653.818880,0.209838
654.132220,0.209342
654.445520,0.211288
654.758780,0.215014
655.072000,0.214040
655.385180,0.209415
655.698320,0.207202
656.011420,0.207509
656.324480,0.215681
656.637500,0.208285
656.950480,0.215208
657.263420,0.209873
657.576320,0.207234
657.889180,0.205839
658.202000,0.215882
658.514780,0.211968
658.827520,0.207983
659.140220,0.207072
659.452880,0.212021
659.765500,0.202890
660.078080,0.199819
660.390620,0.205927
660.703120,0.207455
661.015580,0.206442
661.328000,0.207179
661.640380,0.206275
661.952720,0.208035
662.265020,0.208885
662.577280,0.209288
662.889500,0.207190
663.201680,0.206765
663.513820,0.204567
663.825920,0.208774
664.137980,0.208791
664.450000,0.200767
664.761980,0.207856
665.073920,0.204154
665.385820,0.206806
665.697680,0.203636
666.009500,0.205520
666.321280,0.211067
666.633020,0.205452
666.944720,0.203910
667.256380,0.206258
667.568000,0.203465
667.879580,0.203061
668.191120,0.202610
668.502620,0.205751
668.814080,0.210877
669.125500,0.204926
669.436880,0.206086
669.748220,0.206992
670.059520,0.209734
670.370780,0.207029
670.682000,0.205310
670.993180,0.205779
671.304320,0.202532
671.615420,0.202770
671.926480,0.201916
672.237500,0.201858
672.548480,0.206175
672.859420,0.201930
673.170320,0.203482
673.481180,0.204200
673.792000,0.197259
674.102780,0.202154
674.413520,0.202333
674.724220,0.201089
675.034880,0.204254
675.345500,0.203501
675.656080,0.202541
675.966620,0.206257
676.277120,0.204321
676.587580,0.199926
676.898000,0.204181
677.208380,0.201109
677.518720,0.198760
677.829020,0.202882
678.139280,0.203855
678.449500,0.203862
678.759680,0.199326
679.069820,0.199628
679.379920,0.200679
679.689980,0.199406
680.000000,0.197383
680.309980,0.199332
680.619920,0.201439
680.929820,0.200821
681.239680,0.200517
681.549500,0.206296
681.859280,0.199776
682.169020,0.199552
682.478720,0.203067
682.788380,0.200812
683.098000,0.204188
683.407580,0.204128
683.717120,0.200450
684.026620,0.202184
684.336080,0.198939
684.645500,0.197157
684.954880,0.196449
685.264220,0.193658
685.573520,0.200228
685.882780,0.197545
686.192000,0.200150
686.501180,0.201665
686.810320,0.199078
687.119420,0.197643
687.428480,0.200532
687.737500,0.199156
688.046480,0.199003
688.355420,0.202942
688.664320,0.201224
688.973180,0.200995
689.282000,0.197917
689.590780,0.198620
689.899520,0.196734
690.208220,0.199924
690.516880,0.202749
690.825500,0.195094
691.134080,0.200076
691.442620,0.197409
691.751120,0.194539
692.059580,0.202522
692.368000,0.195381
692.676380,0.203435
692.984720,0.199237
693.293020,0.196429
693.601280,0.197634
693.909500,0.197503
694.217680,0.196497
694.525820,0.198401
694.833920,0.196108
695.141980,0.198997
695.450000,0.198092
695.757980,0.199389
696.065920,0.199223
696.373820,0.197460
696.681680,0.191024
696.989500,0.197993
697.297280,0.199533
697.605020,0.200000
697.912720,0.197540
698.220380,0.194412
698.528000,0.197785
698.835580,0.194785
699.143120,0.194076
699.450620,0.198488
699.758080,0.197255
700.065500,0.199122
700.372880,0.193600
700.680220,0.194655
700.987520,0.193651
701.294780,0.197891
701.602000,0.197702
701.909180,0.196741
702.216320,0.193586
702.523420,0.195343
702.830480,0.194455
703.137500,0.195246
703.444480,0.195661
703.751420,0.196450
704.058320,0.196280
704.365180,0.194401
704.672000,0.196040
704.978780,0.195864
705.285520,0.196401
705.592220,0.191765
705.898880,0.192277
706.205500,0.197966
706.512080,0.195103
706.818620,0.195820
707.125120,0.190769
707.431580,0.191872
707.738000,0.195703
708.044380,0.193748
708.350720,0.191058
708.657020,0.193044
708.963280,0.194099
709.269500,0.194912
709.575680,0.196071
709.881820,0.191824
710.187920,0.193774
710.493980,0.187742
710.800000,0.190313
711.105980,0.190136
711.411920,0.193142
711.717820,0.188304
712.023680,0.192382
712.329500,0.198738
712.635280,0.191860
712.941020,0.195593
713.246720,0.193281
713.552380,0.191915
713.858000,0.192747
714.163580,0.190213
714.469120,0.186401
714.774620,0.193447
715.080080,0.196309
715.385500,0.196643
715.690880,0.191321
715.996220,0.191759
716.301520,0.193676
716.606780,0.194182
716.912000,0.194669
717.217180,0.189944
717.522320,0.193241
717.827420,0.196094
718.132480,0.191489
718.437500,0.192825
718.742480,0.190323
719.047420,0.192961
719.352320,0.198423
719.657180,0.198283
719.962000,0.193135
720.266780,0.187786
720.571520,0.188070
720.876220,0.191080
721.180880,0.191054
721.485500,0.186377
721.790080,0.188110
722.094620,0.192110
722.399120,0.189573
722.703580,0.189456
723.008000,0.187150
723.312380,0.191563
723.616720,0.192095
723.921020,0.186661
724.225280,0.187173
724.529500,0.188704
724.833680,0.189057
725.137820,0.185463
725.441920,0.185912
725.745980,0.182550
726.050000,0.193054
726.353980,0.186571
726.657920,0.188934
726.961820,0.186758
727.265680,0.186778
727.569500,0.188757
727.873280,0.182448
728.177020,0.184247
728.480720,0.186574
728.784380,0.192579
729.088000,0.187471
729.391580,0.188063
729.695120,0.192898
729.998620,0.186902
730.302080,0.183566
730.605500,0.185347
730.908880,0.187163
731.212220,0.190010
731.515520,0.182350
731.818780,0.189320
732.122000,0.186516
732.425180,0.186299
732.728320,0.184928
733.031420,0.185464
733.334480,0.189286
733.637500,0.181956
733.940480,0.183726
734.243420,0.190112
734.546320,0.190353
734.849180,0.181302
735.152000,0.185166
735.454780,0.181302
735.757520,0.182824
736.060220,0.189047
736.362880,0.180147
736.665500,0.184334
736.968080,0.183235
737.270620,0.189984
737.573120,0.186681
737.875580,0.189115
738.178000,0.179096
738.480380,0.177297
738.782720,0.183751
739.085020,0.185573
739.387280,0.180155
739.689500,0.190260
739.991680,0.187535
740.293820,0.186844
740.595920,0.185865
740.897980,0.189159
741.200000,0.186764
741.501980,0.181662
741.803920,0.186937
742.105820,0.186125
742.407680,0.182877
742.709500,0.186932
743.011280,0.181712
743.313020,0.183188
743.614720,0.172374
743.916380,0.180814
744.218000,0.190931
744.519580,0.181159
744.821120,0.185030
745.122620,0.180348
745.424080,0.183293
745.725500,0.183464
746.026880,0.189039
746.328220,0.188656
746.629520,0.183624
746.930780,0.182598
747.232000,0.185776
747.533180,0.183038
747.834320,0.183810
748.135420,0.182722
748.436480,0.183406
748.737500,0.184682
749.038480,0.175932
749.339420,0.186061
749.640320,0.178504
749.941180,0.183011
750.242000,0.176508
750.542780,0.179901
750.843520,0.192184
751.144220,0.185897
751.444880,0.183259
751.745500,0.181169
752.046080,0.186017
752.346620,0.177835
752.647120,0.184193
752.947580,0.181113
753.248000,0.183752
753.548380,0.183474
753.848720,0.177721
754.149020,0.170858
754.449280,0.183848
754.749500,0.175182
755.049680,0.172667
755.349820,0.181454
755.649920,0.181097
755.949980,0.185136
756.250000,0.184089
756.549980,0.177558
756.849920,0.184228
757.149820,0.180306
757.449680,0.180198
757.749500,0.173142
758.049280,0.178157
758.349020,0.181502
758.648720,0.184955
758.948380,0.175945
759.248000,0.184636
759.547580,0.183591
759.847120,0.180565
760.146620,0.183356
760.446080,0.178763
760.745500,0.181119
761.044880,0.183239
761.344220,0.181753
761.643520,0.180791
761.942780,0.184045
762.242000,0.176803
762.541180,0.178169
762.840320,0.177669
763.139420,0.181435
763.438480,0.180451
763.737500,0.181254
764.036480,0.177498
764.335420,0.178546
764.634320,0.178794
764.933180,0.180137
765.232000,0.179736
765.530780,0.181754
765.829520,0.187413
766.128220,0.174669
766.426880,0.180526
766.725500,0.175463
767.024080,0.174897
767.322620,0.172891
767.621120,0.180894
767.919580,0.176792
768.218000,0.184679
768.516380,0.181204
768.814720,0.172154
769.113020,0.173673
769.411280,0.180249
769.709500,0.179296
770.007680,0.173824
770.305820,0.175794
770.603920,0.173854
770.901980,0.185109
771.200000,0.175272
771.497980,0.176944
771.795920,0.176589
772.093820,0.174465
772.391680,0.179301
772.689500,0.175000
772.987280,0.174411
773.285020,0.170882
773.582720,0.179054
773.880380,0.172272
774.178000,0.175869
774.475580,0.176825
774.773120,0.178046
775.070620,0.177147
775.368080,0.177689
775.665500,0.168570
775.962880,0.178786
776.260220,0.182369
776.557520,0.170113
776.854780,0.181204
777.152000,0.175066
777.449180,0.181389
777.746320,0.173387
778.043420,0.179400
778.340480,0.172530
778.637500,0.175118
778.934480,0.173504
779.231420,0.177069
779.528320,0.168337
779.825180,0.169960
780.122000,0.165339
780.418780,0.170315
780.715520,0.175721
781.012220,0.173288
781.308880,0.174442
781.605500,0.169178
781.902080,0.171116
782.198620,0.174299
782.495120,0.174897
782.791580,0.176754
783.088000,0.178054
783.384380,0.182256
783.680720,0.180575
783.977020,0.172058
784.273280,0.177622
784.569500,0.175402
784.865680,0.173157
785.161820,0.175000
785.457920,0.169785
785.753980,0.172366
786.050000,0.168508
786.345980,0.176389
786.641920,0.173491
786.937820,0.173789
787.233680,0.167015
787.529500,0.174064
787.825280,0.177762
788.121020,0.172096
788.416720,0.174312
788.712380,0.176305
789.008000,0.170680
789.303580,0.166784
789.599120,0.168727
789.894620,0.175451
790.190080,0.166788
790.485500,0.169186
790.780880,0.177778
791.076220,0.179654
791.371520,0.175018
791.666780,0.183273
791.962000,0.175606
792.257180,0.172767
792.552320,0.177665
792.847420,0.176128
793.142480,0.176557
793.437500,0.164255
793.732480,0.166789
794.027420,0.169881
794.322320,0.170022
794.617180,0.170134
794.912000,0.171620
795.206780,0.167040
795.501520,0.174905
795.796220,0.169630
796.090880,0.171816
796.385500,0.163418
796.680080,0.169783
796.974620,0.169162
797.269120,0.166540
797.563580,0.170229
797.858000,0.174639
798.152380,0.173241
798.446720,0.176923
798.741020,0.180277
799.035280,0.176242
799.329500,0.170901
799.623680,0.168992
