399.985280,0.270270
400.329500,0.297297
400.673680,0.329114
401.017820,0.323529
401.361920,0.303030
401.705980,0.231707
402.050000,0.233766
402.393980,0.282353
402.737920,0.292135
403.081820,0.278351
403.425680,0.279070
403.769500,0.302083
404.113280,0.287356
404.457020,0.303371
404.800720,0.282609
405.144380,0.282828
405.488000,0.258065
405.831580,0.278351
406.175120,0.276596
406.518620,0.280000
406.862080,0.340206
407.205500,0.333333
407.548880,0.357143
407.892220,0.333333
408.235520,0.297872
408.578780,0.323810
408.922000,0.269231
409.265180,0.292929
409.608320,0.242424
409.951420,0.391753
410.294480,0.323529
410.637500,0.293478
410.980480,0.284314
411.323420,0.285714
411.666320,0.284404
412.009180,0.345455
412.352000,0.207921
412.694780,0.311927
413.037520,0.247706
413.380220,0.288288
413.722880,0.276786
414.065500,0.297297
414.408080,0.274336
414.750620,0.274336
415.093120,0.256198
415.435580,0.310924
415.778000,0.280303
416.120380,0.235294
416.462720,0.269841
416.805020,0.285714
417.147280,0.313433
417.489500,0.300000
417.831680,0.260274
418.173820,0.262411
418.515920,0.300699
418.857980,0.291139
419.200000,0.294872
419.541980,0.272189
419.883920,0.264045
420.225820,0.236994
420.567680,0.301676
420.909500,0.311475
421.251280,0.296875
421.593020,0.295918
421.934720,0.272727
422.276380,0.287179
422.618000,0.284314
422.959580,0.274510
423.301120,0.287671
423.642620,0.282609
423.984080,0.302326
424.325500,0.291480
424.666880,0.293103
425.008220,0.285714
425.349520,0.275424
425.690780,0.300000
426.032000,0.250980
426.373180,0.282158
426.714320,0.273437
427.055420,0.289575
427.396480,0.295880
427.737500,0.264822
428.078480,0.252964
428.419420,0.281124
428.760320,0.275862
429.101180,0.279528
429.442000,0.291188
429.782780,0.280769
430.123520,0.290196
430.464220,0.284133
430.804880,0.318008
431.145500,0.261818
431.486080,0.292135
431.826620,0.294574
432.167120,0.272059
432.507580,0.275362
432.848000,0.266187
433.188380,0.285199
433.528720,0.286792
433.869020,0.285714
434.209280,0.263158
434.549500,0.271777
434.889680,0.282828
435.229820,0.259386
435.569920,0.245675
435.909980,0.258900
436.250000,0.281356
436.589980,0.256966
436.929920,0.269841
437.269820,0.278997
437.609680,0.292899
437.949500,0.292169
438.289280,0.271955
438.629020,0.267442
438.968720,0.267442
439.308380,0.254743
439.648000,0.265753
439.987580,0.267196
440.327120,0.280000
440.666620,0.275325
441.006080,0.283887
441.345500,0.262899
441.684880,0.275120
442.024220,0.272953
442.363520,0.254762
442.702780,0.261364
443.042000,0.273128
443.381180,0.273707
443.720320,0.274298
444.059420,0.254202
444.398480,0.259414
444.737500,0.262295
445.076480,0.277778
445.415420,0.261477
445.754320,0.274428
446.093180,0.258716
446.432000,0.261278
446.770780,0.273245
447.109520,0.279412
447.448220,0.273703
447.786880,0.275492
448.125500,0.267241
448.464080,0.241071
448.802620,0.273050
449.141120,0.273356
449.479580,0.260490
449.818000,0.271945
450.156380,0.257525
450.494720,0.264463
450.833020,0.265734
451.171280,0.260274
451.509500,0.271777
451.847680,0.266442
452.185820,0.270224
452.523920,0.268041
452.861980,0.264755
453.200000,0.265781
453.537980,0.253782
453.875920,0.267227
454.213820,0.248288
454.551680,0.256623
454.889500,0.259696
455.227280,0.261566
455.565020,0.266332
455.902720,0.261231
456.240380,0.251248
456.578000,0.268293
456.915580,0.262522
457.253120,0.268092
457.590620,0.266010
457.928080,0.269360
458.265500,0.253378
458.602880,0.256494
458.940220,0.253807
459.277520,0.249600
459.614780,0.276596
459.952000,0.242236
460.289180,0.250000
460.626320,0.259843
460.963420,0.266559
461.300480,0.247706
461.637500,0.244992
461.974480,0.256881
462.311420,0.254844
462.648320,0.248902
462.985180,0.248207
463.322000,0.261905
463.658780,0.250000
463.995520,0.255846
464.332220,0.257618
464.668880,0.254032
465.005500,0.254692
465.342080,0.249680
465.678620,0.260763
466.015120,0.254851
466.351580,0.260430
466.688000,0.254568
467.024380,0.243013
467.360720,0.259091
467.697020,0.259681
468.033280,0.255556
468.369500,0.253863
468.705680,0.264938
469.041820,0.258333
469.377920,0.247289
469.713980,0.247168
470.050000,0.257005
470.385980,0.259295
470.721920,0.250735
471.057820,0.259259
471.393680,0.246024
471.729500,0.253939
472.065280,0.248658
472.401020,0.242021
472.736720,0.252182
473.072380,0.252244
473.408000,0.250653
473.743580,0.246540
474.079120,0.260982
474.414620,0.242578
474.750080,0.246542
475.085500,0.245066
475.420880,0.240633
475.756220,0.250204
476.091520,0.253197
476.426780,0.238673
476.762000,0.242961
477.097180,0.244800
477.432320,0.253635
477.767420,0.241830
478.102480,0.243307
478.437500,0.245484
478.772480,0.240347
479.107420,0.243287
479.442320,0.247802
479.777180,0.250597
480.112000,0.236518
480.446780,0.238504
480.781520,0.241546
481.116220,0.245756
481.450880,0.241218
481.785500,0.239715
482.120080,0.244514
482.454620,0.244755
482.789120,0.245223
483.123580,0.246885
483.458000,0.234968
483.792380,0.247604
484.126720,0.244788
484.461020,0.243560
484.795280,0.245181
485.129500,0.247857
485.463680,0.237209
485.797820,0.241835
486.131920,0.241010
486.465980,0.244788
486.800000,0.245038
487.133980,0.245468
487.467920,0.241010
487.801820,0.240275
488.135680,0.233510
488.469500,0.236762
488.803280,0.238484
489.137020,0.246886
489.470720,0.239614
489.804380,0.245731
490.138000,0.241098
490.471580,0.241710
490.805120,0.238742
491.138620,0.242360
491.472080,0.236042
491.805500,0.235704
492.138880,0.240445
492.472220,0.244291
492.805520,0.241620
493.138780,0.248794
493.472000,0.236120
493.805180,0.242838
494.138320,0.244163
494.471420,0.244792
494.804480,0.238680
495.137500,0.240693
495.470480,0.249203
495.803420,0.231108
496.136320,0.235589
496.469180,0.232658
496.802000,0.235941
497.134780,0.248029
497.467520,0.237309
497.800220,0.242925
498.132880,0.239271
498.465500,0.239861
498.798080,0.237443
499.130620,0.239753
499.463120,0.236946
499.795580,0.235974
500.128000,0.239237
500.460380,0.238428
500.792720,0.235419
501.125020,0.233841
501.457280,0.234465
501.789500,0.235537
502.121680,0.233281
502.453820,0.238144
502.785920,0.236618
503.117980,0.234053
503.450000,0.240583
503.781980,0.240159
504.113920,0.231389
504.445820,0.232863
504.777680,0.236235
505.109500,0.233173
505.441280,0.237094
505.773020,0.232034
506.104720,0.233161
506.436380,0.237104
506.768000,0.232928
507.099580,0.229291
507.431120,0.232319
507.762620,0.238252
508.094080,0.229717
508.425500,0.234827
508.756880,0.235940
509.088220,0.234591
509.419520,0.235102
509.750780,0.232896
510.082000,0.231343
510.413180,0.232612
510.744320,0.236079
511.075420,0.231439
511.406480,0.236013
511.737500,0.231019
512.068480,0.227914
512.399420,0.234272
512.730320,0.227252
513.061180,0.236441
513.392000,0.229531
513.722780,0.231028
514.053520,0.223766
514.384220,0.228830
514.714880,0.230254
515.045500,0.227490
515.376080,0.222760
515.706620,0.228446
516.037120,0.228431
516.367580,0.231148
516.698000,0.228922
517.028380,0.227408
517.358720,0.230617
517.689020,0.229476
518.019280,0.233317
518.349500,0.233654
518.679680,0.230692
519.009820,0.232287
519.339920,0.234970
519.669980,0.233049
520.000000,0.227203
520.329980,0.226024
520.659920,0.230061
520.989820,0.226522
521.319680,0.226852
521.649500,0.226735
521.979280,0.233820
522.309020,0.230809
522.638720,0.219662
522.968380,0.231644
523.298000,0.224426
523.627580,0.227108
523.957120,0.227013
524.286620,0.226159
524.616080,0.228542
524.945500,0.227390
525.274880,0.227296
525.604220,0.225155
525.933520,0.224319
526.262780,0.221490
526.592000,0.224759
526.921180,0.224987
527.250320,0.223237
527.579420,0.223345
527.908480,0.227967
528.237500,0.227905
528.566480,0.227545
528.895420,0.229670
529.224320,0.230312
529.553180,0.227470
529.882000,0.228224
530.210780,0.228764
530.539520,0.226270
530.868220,0.220680
531.196880,0.222169
531.525500,0.226634
531.854080,0.219512
532.182620,0.221859
532.511120,0.225986
532.839580,0.226407
533.168000,0.226071
533.496380,0.231963
533.824720,0.228802
534.153020,0.223807
534.481280,0.222907
534.809500,0.221636
535.137680,0.223090
535.465820,0.224656
535.793920,0.229272
536.121980,0.221989
536.450000,0.227061
536.777980,0.232090
537.105920,0.227480
537.433820,0.228314
537.761680,0.226122
538.089500,0.226224
538.417280,0.222045
538.745020,0.221870
539.072720,0.221398
539.400380,0.224165
539.728000,0.225239
540.055580,0.222472
540.383120,0.226359
540.710620,0.219122
541.038080,0.230173
541.365500,0.229044
541.692880,0.223474
542.020220,0.222022
542.347520,0.223977
542.674780,0.227241
543.002000,0.225332
543.329180,0.228692
543.656320,0.227848
543.983420,0.216410
544.310480,0.225620
544.637500,0.225520
544.964480,0.224428
545.291420,0.221668
545.618320,0.226096
545.945180,0.225115
546.272000,0.218545
546.598780,0.222222
546.925520,0.225519
547.252220,0.229449
547.578880,0.222874
547.905500,0.219608
548.232080,0.219948
548.558620,0.220306
548.885120,0.220805
549.211580,0.222115
549.538000,0.222114
549.864380,0.219614
550.190720,0.222150
550.517020,0.218057
550.843280,0.216612
551.169500,0.212786
551.495680,0.223719
551.821820,0.218485
552.147920,0.217957
552.473980,0.224893
552.800000,0.217789
553.125980,0.223641
553.451920,0.222296
553.777820,0.221519
554.103680,0.222447
554.429500,0.211584
554.755280,0.216956
555.081020,0.219251
555.406720,0.217406
555.732380,0.218570
556.058000,0.218262
556.383580,0.214310
556.709120,0.214680
557.034620,0.215295
557.360080,0.218307
557.685500,0.219225
558.010880,0.214905
558.336220,0.216872
558.661520,0.222616
558.986780,0.216513
559.312000,0.217236
559.637180,0.217235
559.962320,0.212175
560.287420,0.217913
560.612480,0.218873
560.937500,0.220999
561.262480,0.217009
561.587420,0.217628
561.912320,0.215181
562.237180,0.216876
562.562000,0.219229
562.886780,0.211074
563.211520,0.220194
563.536220,0.211132
563.860880,0.211241
564.185500,0.212383
564.510080,0.217833
564.834620,0.213249
565.159120,0.210902
565.483580,0.212087
565.808000,0.214529
566.132380,0.217829
566.456720,0.215797
566.781020,0.212303
567.105280,0.215879
567.429500,0.216616
567.753680,0.217875
568.077820,0.212601
568.401920,0.212758
568.725980,0.215180
569.050000,0.211407
569.373980,0.213171
569.697920,0.216155
570.021820,0.217978
570.345680,0.206659
570.669500,0.209462
570.993280,0.211517
571.317020,0.213738
571.640720,0.210819
571.964380,0.214180
572.288000,0.212166
572.611580,0.214526
572.935120,0.210999
573.258620,0.217651
573.582080,0.213115
573.905500,0.209605
574.228880,0.218263
574.552220,0.213998
574.875520,0.211095
575.198780,0.211420
575.522000,0.218109
575.845180,0.209169
576.168320,0.212001
576.491420,0.218387
576.814480,0.210488
577.137500,0.215729
577.460480,0.214933
577.783420,0.214005
578.106320,0.216880
578.429180,0.212089
578.752000,0.211184
579.074780,0.217465
579.397520,0.214009
579.720220,0.214286
580.042880,0.213082
580.365500,0.210457
580.688080,0.215400
581.010620,0.211947
581.333120,0.213093
581.655580,0.214119
581.978000,0.214832
582.300380,0.206751
582.622720,0.209624
582.945020,0.210988
583.267280,0.211657
583.589500,0.211236
583.911680,0.211178
584.233820,0.212465
584.555920,0.210211
584.877980,0.213882
585.200000,0.209024
585.521980,0.213778
585.843920,0.206833
586.165820,0.215113
586.487680,0.207343
586.809500,0.207621
587.131280,0.211180
587.453020,0.210417
587.774720,0.213187
588.096380,0.213244
588.418000,0.213638
588.739580,0.211842
589.061120,0.208453
589.382620,0.207163
589.704080,0.211781
590.025500,0.212900
590.346880,0.215008
590.668220,0.212826
590.989520,0.206323
591.310780,0.212648
591.632000,0.212022
591.953180,0.211182
592.274320,0.208026
592.595420,0.209591
592.916480,0.218419
593.237500,0.213959
593.558480,0.209847
593.879420,0.209334
594.200320,0.215108
594.521180,0.212749
594.842000,0.213057
595.162780,0.210737
595.483520,0.213773
595.804220,0.213212
596.124880,0.208900
596.445500,0.213256
596.766080,0.211347
597.086620,0.213907
597.407120,0.205635
597.727580,0.211880
598.048000,0.209204
598.368380,0.208048
598.688720,0.208126
599.009020,0.209926
599.329280,0.208356
599.649500,0.207343
599.969680,0.210203
600.289820,0.209669
600.609920,0.206786
600.929980,0.208979
601.250000,0.210000
601.569980,0.208750
601.889920,0.207164
602.209820,0.208874
602.529680,0.212030
602.849500,0.201855
603.169280,0.210526
603.489020,0.205646
603.808720,0.207351
604.128380,0.208609
604.448000,0.208287
604.767580,0.206983
605.087120,0.200831
605.406620,0.206829
605.726080,0.208725
606.045500,0.204235
606.364880,0.204423
606.684220,0.209023
607.003520,0.206422
607.322780,0.206367
607.642000,0.203331
607.961180,0.200636
608.280320,0.205916
608.599420,0.203360
608.918480,0.205865
609.237500,0.199824
609.556480,0.204794
609.875420,0.204666
610.194320,0.204311
610.513180,0.202723
610.832000,0.203097
611.150780,0.204566
611.469520,0.204525
611.788220,0.206469
612.106880,0.200241
612.425500,0.201583
612.744080,0.209295
613.062620,0.201223
613.381120,0.200183
613.699580,0.205395
614.018000,0.204545
614.336380,0.208822
614.654720,0.202171
614.973020,0.196544
615.291280,0.202045
615.609500,0.206022
615.927680,0.206119
616.245820,0.203463
616.563920,0.203606
616.881980,0.201746
617.200000,0.200933
617.517980,0.199751
617.835920,0.202547
618.153820,0.198321
618.471680,0.200620
618.789500,0.201070
619.107280,0.197496
619.425020,0.200127
619.742720,0.201507
620.060380,0.201191
620.378000,0.200126
620.695580,0.202746
621.013120,0.196850
621.330620,0.203012
621.648080,0.198107
621.965500,0.200125
622.282880,0.198613
622.600220,0.200884
622.917520,0.201008
623.234780,0.202507
623.552000,0.201146
623.869180,0.199496
624.186320,0.202165
624.503420,0.201567
624.820480,0.201068
625.137500,0.196400
625.454480,0.200375
625.771420,0.201450
626.088320,0.197667
626.405180,0.203796
626.722000,0.202321
627.038780,0.198308
627.355520,0.201250
627.672220,0.200933
627.988880,0.200000
628.305500,0.201309
628.622080,0.200434
628.938620,0.195413
629.255120,0.203174
629.571580,0.199203
629.888000,0.198527
630.204380,0.200368
630.520720,0.194394
630.837020,0.198273
631.153280,0.198141
631.469500,0.201637
631.785680,0.202230
632.101820,0.198130
632.417920,0.197317
632.733980,0.195678
633.050000,0.202850
633.365980,0.200652
633.681920,0.199881
633.997820,0.198745
634.313680,0.201710
634.629500,0.197877
634.945280,0.199413
635.261020,0.202818
635.576720,0.198767
635.892380,0.197212
636.208000,0.201627
636.523580,0.200526
636.839120,0.200058
637.154620,0.196522
637.470080,0.200000
637.785500,0.198710
638.100880,0.200985
638.416220,0.201035
638.731520,0.195989
639.046780,0.198077
639.362000,0.195528
639.677180,0.197030
639.992320,0.201297
640.307420,0.198651
640.622480,0.196864
640.937500,0.198890
641.252480,0.201061
641.567420,0.197783
641.882320,0.195991
642.197180,0.199045
642.512000,0.192275
642.826780,0.203606
643.141520,0.198388
643.456220,0.198395
643.770880,0.201216
644.085500,0.195640
644.400080,0.198034
644.714620,0.198161
645.029120,0.198570
645.343580,0.193637
645.658000,0.196780
645.972380,0.195944
646.286720,0.196511
646.601020,0.195405
646.915280,0.196600
647.229500,0.193407
647.543680,0.194421
647.857820,0.193779
648.171920,0.199946
648.485980,0.194574
648.800000,0.194820
649.113980,0.199834
649.427920,0.196117
649.741820,0.194559
650.055680,0.194460
650.369500,0.198991
650.683280,0.194784
650.997020,0.194719
651.310720,0.194827
651.624380,0.193407
651.938000,0.198061
652.251580,0.193988
652.565120,0.193125
652.878620,0.200169
653.192080,0.195506
653.505500,0.194109
653.818880,0.193915
654.132220,0.193107
654.445520,0.197958
654.758780,0.191785
655.072000,0.192837
655.385180,0.191155
655.698320,0.189197
656.011420,0.195185
656.324480,0.190615
656.637500,0.188007
656.950480,0.191427
657.263420,0.195980
657.576320,0.196264
657.889180,0.194928
658.202000,0.191425
658.514780,0.191426
658.827520,0.190876
659.140220,0.190890
659.452880,0.193899
659.765500,0.190849
660.078080,0.191393
660.390620,0.193095
660.703120,0.192178
661.015580,0.196012
661.328000,0.193640
661.640380,0.190432
661.952720,0.189038
662.265020,0.192817
662.577280,0.190204
662.889500,0.189845
663.201680,0.195278
663.513820,0.192023
663.825920,0.187000
664.137980,0.190692
664.450000,0.189898
664.761980,0.188216
665.073920,0.188900
665.385820,0.191099
665.697680,0.191074
666.009500,0.194214
666.321280,0.193174
666.633020,0.189827
666.944720,0.191776
667.256380,0.190444
667.568000,0.186821
667.879580,0.189796
668.191120,0.189217
668.502620,0.190688
668.814080,0.186316
669.125500,0.186110
669.436880,0.189834
669.748220,0.185877
670.059520,0.188725
670.370780,0.189979
670.682000,0.184425
670.993180,0.189570
671.304320,0.186006
671.615420,0.182884
671.926480,0.185947
672.237500,0.183994
672.548480,0.189851
672.859420,0.186204
673.170320,0.187523
673.481180,0.188269
673.792000,0.180310
674.102780,0.190305
674.413520,0.189209
674.724220,0.186207
675.034880,0.194719
675.345500,0.187454
675.656080,0.184392
675.966620,0.189160
676.277120,0.186012
676.587580,0.185567
676.898000,0.185890
677.208380,0.187061
677.518720,0.185266
677.829020,0.187361
678.139280,0.187176
678.449500,0.182696
678.759680,0.185463
679.069820,0.185502
679.379920,0.186722
679.689980,0.180839
680.000000,0.184673
680.309980,0.182999
680.619920,0.188565
680.929820,0.183277
681.239680,0.182053
681.549500,0.186296
681.859280,0.192308
682.169020,0.187244
682.478720,0.185490
682.788380,0.186416
683.098000,0.190352
683.407580,0.184991
683.717120,0.183559
684.026620,0.182982
684.336080,0.183782
684.645500,0.178077
684.954880,0.182093
685.264220,0.186108
685.573520,0.190331
685.882780,0.186805
686.192000,0.185102
686.501180,0.183125
686.810320,0.186395
687.119420,0.187001
687.428480,0.186100
687.737500,0.181504
688.046480,0.180598
688.355420,0.182573
688.664320,0.185539
688.973180,0.181470
689.282000,0.189429
689.590780,0.185583
689.899520,0.181922
690.208220,0.181575
690.516880,0.184422
690.825500,0.179245
691.134080,0.183751
691.442620,0.179878
691.751120,0.182783
692.059580,0.183416
692.368000,0.182128
692.676380,0.181679
692.984720,0.182061
693.293020,0.180471
693.601280,0.181229
693.909500,0.186530
694.217680,0.182407
694.525820,0.188119
694.833920,0.179702
695.141980,0.183185
695.450000,0.181679
695.757980,0.179144
696.065920,0.179417
696.373820,0.181678
696.681680,0.181818
696.989500,0.182555
697.297280,0.178530
697.605020,0.182540
697.912720,0.177940
698.220380,0.177096
698.528000,0.181962
698.835580,0.180561
699.143120,0.179657
699.450620,0.186158
699.758080,0.179608
700.065500,0.184358
700.372880,0.182400
700.680220,0.180295
700.987520,0.181349
701.294780,0.184915
701.602000,0.183439
701.909180,0.182830
702.216320,0.181854
702.523420,0.177979
702.830480,0.180594
703.137500,0.180436
703.444480,0.180671
703.751420,0.185010
704.058320,0.182034
704.365180,0.180599
704.672000,0.183762
704.978780,0.178697
705.285520,0.174883
705.592220,0.176471
705.898880,0.180063
706.205500,0.180360
706.512080,0.176540
706.818620,0.180341
707.125120,0.180000
707.431580,0.173505
707.738000,0.181641
708.044380,0.177152
708.350720,0.178066
708.657020,0.175459
708.963280,0.175466
709.269500,0.178865
709.575680,0.181139
709.881820,0.184748
710.187920,0.176265
710.493980,0.179597
710.800000,0.178490
711.105980,0.175075
711.411920,0.178952
711.717820,0.178558
712.023680,0.173339
712.329500,0.178628
712.635280,0.180233
712.941020,0.170854
713.246720,0.177470
713.552380,0.179356
713.858000,0.176587
714.163580,0.179558
714.469120,0.176631
714.774620,0.178839
715.080080,0.178642
715.385500,0.177858
715.690880,0.176331
715.996220,0.177496
716.301520,0.177866
716.606780,0.181997
716.912000,0.181341
717.217180,0.181564
717.522320,0.173360
717.827420,0.177380
718.132480,0.175432
718.437500,0.175296
718.742480,0.176613
719.047420,0.173544
719.352320,0.183479
719.657180,0.181112
719.962000,0.177419
720.266780,0.177815
720.571520,0.179785
720.876220,0.181669
721.180880,0.176839
721.485500,0.173422
721.790080,0.171975
722.094620,0.175386
722.399120,0.177510
722.703580,0.174453
723.008000,0.173782
723.312380,0.173052
723.616720,0.174246
723.921020,0.172369
724.225280,0.173211
724.529500,0.177320
724.833680,0.179270
725.137820,0.175771
725.441920,0.171645
725.745980,0.171365
726.050000,0.175913
726.353980,0.173051
726.657920,0.168691
726.961820,0.170320
727.265680,0.166898
727.569500,0.172303
727.873280,0.169053
728.177020,0.176877
728.480720,0.174074
728.784380,0.175200
729.088000,0.169571
729.391580,0.171483
729.695120,0.173704
729.998620,0.178776
730.302080,0.171552
730.605500,0.175158
730.908880,0.171975
731.212220,0.175318
731.515520,0.170161
731.818780,0.171359
732.122000,0.173720
732.425180,0.172992
732.728320,0.175508
733.031420,0.174937
733.334480,0.169388
733.637500,0.171875
733.940480,0.175537
734.243420,0.174822
734.546320,0.172199
734.849180,0.168388
735.152000,0.168050
735.454780,0.166839
735.757520,0.169652
736.060220,0.169563
736.362880,0.175420
736.665500,0.169713
736.968080,0.174637
737.270620,0.175286
737.573120,0.172489
737.875580,0.175371
738.178000,0.176919
738.480380,0.171892
738.782720,0.172301
739.085020,0.167952
739.387280,0.165743
739.689500,0.175538
739.991680,0.171252
740.293820,0.170813
740.595920,0.163050
740.897980,0.175607
741.200000,0.166012
741.501980,0.174785
741.803920,0.168919
742.105820,0.177665
742.407680,0.171229
742.709500,0.163636
743.011280,0.173505
743.313020,0.169855
743.614720,0.161927
743.916380,0.165698
744.218000,0.171838
744.519580,0.168478
744.821120,0.170659
745.122620,0.168364
745.424080,0.167668
745.725500,0.165359
746.026880,0.167488
746.328220,0.168927
746.629520,0.164359
746.930780,0.166667
747.232000,0.167382
747.533180,0.169616
747.834320,0.164334
748.135420,0.167806
748.436480,0.169058
748.737500,0.169240
749.038480,0.166158
749.339420,0.170504
749.640320,0.169076
749.941180,0.170518
750.242000,0.167085
750.542780,0.170596
750.843520,0.168482
751.144220,0.169231
751.444880,0.175016
751.745500,0.163636
752.046080,0.169981
752.346620,0.165593
752.647120,0.167211
752.947580,0.169470
753.248000,0.167634
753.548380,0.169161
753.848720,0.169350
754.149020,0.165055
754.449280,0.171372
754.749500,0.167220
755.049680,0.162667
755.349820,0.169446
755.649920,0.170522
755.949980,0.167220
756.250000,0.166338
756.549980,0.161056
756.849920,0.171992
757.149820,0.160346
757.449680,0.166337
757.749500,0.168371
758.049280,0.166553
758.349020,0.170376
758.648720,0.170462
758.948380,0.166323
759.248000,0.167790
759.547580,0.164089
759.847120,0.164714
760.146620,0.167118
760.446080,0.171371
760.745500,0.172028
761.044880,0.166193
761.344220,0.163934
761.643520,0.161723
761.942780,0.162351
762.242000,0.162659
762.541180,0.170423
762.840320,0.167837
763.139420,0.161041
763.438480,0.159262
763.737500,0.161957
764.036480,0.169113
764.335420,0.163726
764.634320,0.167013
764.933180,0.164384
765.232000,0.167245
765.530780,0.167719
765.829520,0.168531
766.128220,0.165623
766.426880,0.164890
766.725500,0.169979
767.024080,0.159808
767.322620,0.165975
767.621120,0.161247
767.919580,0.159727
768.218000,0.160055
768.516380,0.160920
768.814720,0.154321
769.113020,0.161957
769.411280,0.168508
769.709500,0.165088
770.007680,0.164281
770.305820,0.170385
770.603920,0.162399
770.901980,0.164617
771.200000,0.171875
771.497980,0.164209
771.795920,0.168562
772.093820,0.164439
772.391680,0.168095
772.689500,0.150676
772.987280,0.152862
773.285020,0.163363
773.582720,0.162162
773.880380,0.157859
774.178000,0.159509
774.475580,0.168118
774.773120,0.161312
775.070620,0.160920
775.368080,0.164997
775.665500,0.167898
775.962880,0.162108
776.260220,0.159489
776.557520,0.169446
776.854780,0.162948
777.152000,0.157825
777.449180,0.157114
777.746320,0.157258
778.043420,0.169168
778.340480,0.163058
778.637500,0.165652
778.934480,0.164761
779.231420,0.164179
779.528320,0.160989
779.825180,0.162055
780.122000,0.158699
780.418780,0.164843
780.715520,0.163649
781.012220,0.167123
781.308880,0.165652
781.605500,0.164384
781.902080,0.164271
782.198620,0.166097
782.495120,0.159122
782.791580,0.167813
783.088000,0.158040
783.384380,0.160935
783.680720,0.160055
783.977020,0.158981
784.273280,0.162937
784.569500,0.165618
784.865680,0.161335
785.161820,0.161111
785.457920,0.164241
785.753980,0.159805
786.050000,0.157459
786.345980,0.156944
786.641920,0.166551
786.937820,0.164530
787.233680,0.155880
787.529500,0.158807
787.825280,0.160057
788.121020,0.160765
788.416720,0.161609
788.712380,0.160085
789.008000,0.155807
789.303580,0.160424
789.599120,0.165818
789.894620,0.163899
790.190080,0.158811
790.485500,0.157667
790.780880,0.156989
791.076220,0.160173
791.371520,0.158315
791.666780,0.161455
791.962000,0.163115
792.257180,0.154466
792.552320,0.159536
792.847420,0.164483
793.142480,0.163370
793.437500,0.157019
793.732480,0.160205
794.027420,0.160979
794.322320,0.158837
794.617180,0.161961
794.912000,0.161961
795.206780,0.155854
795.501520,0.168061
795.796220,0.160000
796.090880,0.161266
796.385500,0.157421
796.680080,0.160060
796.974620,0.154940
797.269120,0.157456
797.563580,0.160305
797.858000,0.164768
798.152380,0.162413
798.446720,0.160000
798.741020,0.160247
799.035280,0.157609
799.329500,0.163202
799.623680,0.167442
