399.985280,0.256757
400.329500,0.283784
400.673680,0.240506
401.017820,0.250000
401.361920,0.257576
401.705980,0.195122
402.050000,0.220779
402.393980,0.282353
402.737920,0.269663
403.081820,0.278351
403.425680,0.267442
403.769500,0.218750
404.113280,0.218391
404.457020,0.325843
404.800720,0.228261
405.144380,0.323232
405.488000,0.279570
405.831580,0.216495
406.175120,0.223404
406.518620,0.330000
406.862080,0.329897
407.205500,0.250000
407.548880,0.204082
407.892220,0.245098
408.235520,0.329787
408.578780,0.314286
408.922000,0.259615
409.265180,0.333333
409.608320,0.262626
409.951420,0.360825
410.294480,0.333333
410.637500,0.293478
410.980480,0.254902
411.323420,0.255102
411.666320,0.293578
412.009180,0.327273
412.352000,0.297030
412.694780,0.256881
413.037520,0.256881
413.380220,0.234234
413.722880,0.294643
414.065500,0.261261
414.408080,0.274336
414.750620,0.247788
415.093120,0.272727
415.435580,0.277311
415.778000,0.310606
416.120380,0.243697
416.462720,0.261905
416.805020,0.308271
417.147280,0.305970
417.489500,0.292857
417.831680,0.239726
418.173820,0.276596
418.515920,0.286713
418.857980,0.265823
419.200000,0.269231
419.541980,0.260355
419.883920,0.252809
420.225820,0.283237
420.567680,0.245810
420.909500,0.273224
421.251280,0.296875
421.593020,0.265306
421.934720,0.277778
422.276380,0.282051
422.618000,0.294118
422.959580,0.279412
423.301120,0.296804
423.642620,0.243478
423.984080,0.269767
424.325500,0.255605
424.666880,0.275862
425.008220,0.256303
425.349520,0.271186
425.690780,0.269231
426.032000,0.282353
426.373180,0.240664
426.714320,0.277344
427.055420,0.274131
427.396480,0.277154
427.737500,0.252964
428.078480,0.260870
428.419420,0.253012
428.760320,0.260536
429.101180,0.307087
429.442000,0.279693
429.782780,0.273077
430.123520,0.278431
430.464220,0.269373
430.804880,0.314176
431.145500,0.247273
431.486080,0.262172
431.826620,0.286822
432.167120,0.305147
432.507580,0.282609
432.848000,0.280576
433.188380,0.296029
433.528720,0.260377
433.869020,0.257143
434.209280,0.256140
434.549500,0.285714
434.889680,0.265993
435.229820,0.266212
435.569920,0.242215
435.909980,0.249191
436.250000,0.261017
436.589980,0.229102
436.929920,0.276190
437.269820,0.278997
437.609680,0.275148
437.949500,0.283133
438.289280,0.260623
438.629020,0.273256
438.968720,0.276163
439.308380,0.249322
439.648000,0.271233
439.987580,0.256614
440.327120,0.253333
440.666620,0.283117
441.006080,0.291560
441.345500,0.250614
441.684880,0.258373
442.024220,0.248139
442.363520,0.259524
442.702780,0.265909
443.042000,0.262115
443.381180,0.262931
443.720320,0.259179
444.059420,0.264706
444.398480,0.253138
444.737500,0.268443
445.076480,0.271825
445.415420,0.279441
445.754320,0.270270
446.093180,0.271560
446.432000,0.270677
446.770780,0.256167
447.109520,0.270221
447.448220,0.262970
447.786880,0.262970
448.125500,0.255172
448.464080,0.242857
448.802620,0.264184
449.141120,0.250865
449.479580,0.262238
449.818000,0.263339
450.156380,0.250836
450.494720,0.249587
450.833020,0.256993
451.171280,0.250000
451.509500,0.266551
451.847680,0.269815
452.185820,0.263339
452.523920,0.264605
452.861980,0.256324
453.200000,0.247508
453.537980,0.265546
453.875920,0.268908
454.213820,0.260274
454.551680,0.264901
454.889500,0.256324
455.227280,0.243772
455.565020,0.251256
455.902720,0.254576
456.240380,0.237937
456.578000,0.252613
456.915580,0.255613
457.253120,0.250000
457.590620,0.261084
457.928080,0.257576
458.265500,0.260135
458.602880,0.248377
458.940220,0.240271
459.277520,0.254400
459.614780,0.256956
459.952000,0.246894
460.289180,0.264241
460.626320,0.248819
460.963420,0.253635
461.300480,0.246177
461.637500,0.248074
461.974480,0.249235
462.311420,0.242921
462.648320,0.253294
462.985180,0.235294
463.322000,0.266369
463.658780,0.241713
463.995520,0.253095
464.332220,0.236842
464.668880,0.251344
465.005500,0.252011
465.342080,0.250960
465.678620,0.231242
466.015120,0.243208
466.351580,0.245259
466.688000,0.254568
467.024380,0.257594
467.360720,0.230682
467.697020,0.260820
468.033280,0.247778
468.369500,0.253863
468.705680,0.253664
469.041820,0.247917
469.377920,0.241866
469.713980,0.245108
470.050000,0.249275
470.385980,0.242661
470.721920,0.244858
471.057820,0.248538
471.393680,0.244153
471.729500,0.244671
472.065280,0.241503
472.401020,0.242021
472.736720,0.238220
473.072380,0.240575
473.408000,0.244560
473.743580,0.236159
474.079120,0.246339
474.414620,0.241730
474.750080,0.239219
475.085500,0.242599
475.420880,0.239800
475.756220,0.242845
476.091520,0.246377
476.426780,0.237055
476.762000,0.228479
477.097180,0.243200
477.432320,0.233441
477.767420,0.246732
478.102480,0.242520
478.437500,0.238916
478.772480,0.233255
479.107420,0.233523
479.442320,0.234213
479.777180,0.234686
480.112000,0.235747
480.446780,0.228371
480.781520,0.231079
481.116220,0.239289
481.450880,0.239657
481.785500,0.249209
482.120080,0.241379
482.454620,0.236208
482.789120,0.236465
483.123580,0.242212
483.458000,0.230222
483.792380,0.234026
484.126720,0.237838
484.461020,0.234192
484.795280,0.233616
485.129500,0.244739
485.463680,0.236434
485.797820,0.241058
486.131920,0.233359
486.465980,0.238610
486.800000,0.237405
487.133980,0.231873
487.467920,0.237950
487.801820,0.238749
488.135680,0.239575
488.469500,0.226172
488.803280,0.237741
489.137020,0.235165
489.470720,0.242582
489.804380,0.239050
490.138000,0.238872
490.471580,0.240236
490.805120,0.231594
491.138620,0.233120
491.472080,0.232509
491.805500,0.237796
492.138880,0.239055
492.472220,0.232526
492.805520,0.236732
493.138780,0.235700
493.472000,0.228763
493.805180,0.243520
494.138320,0.234156
494.471420,0.234375
494.804480,0.227038
495.137500,0.232991
495.470480,0.237731
495.803420,0.235516
496.136320,0.231203
496.469180,0.230816
496.802000,0.227384
497.134780,0.231656
497.467520,0.236697
497.800220,0.227005
498.132880,0.233980
498.465500,0.228273
498.798080,0.233447
499.130620,0.230208
499.463120,0.222908
499.795580,0.226073
500.128000,0.237602
500.460380,0.229279
500.792720,0.224284
501.125020,0.224908
501.457280,0.234987
501.789500,0.232955
502.121680,0.232763
502.453820,0.232024
502.785920,0.228614
503.117980,0.232581
503.450000,0.231040
503.781980,0.223219
504.113920,0.226648
504.445820,0.221682
504.777680,0.218824
505.109500,0.225962
505.441280,0.228967
505.773020,0.228276
506.104720,0.230334
506.436380,0.231425
506.768000,0.230122
507.099580,0.225629
507.431120,0.226230
507.762620,0.221805
508.094080,0.224704
508.425500,0.229225
508.756880,0.228624
509.088220,0.225391
509.419520,0.226723
509.750780,0.228210
510.082000,0.228078
510.413180,0.223860
510.744320,0.228256
511.075420,0.222731
511.406480,0.225200
511.737500,0.220370
512.068480,0.229323
512.399420,0.224413
512.730320,0.224942
513.061180,0.221218
513.392000,0.221013
513.722780,0.223823
514.053520,0.227599
514.384220,0.224548
514.714880,0.230732
515.045500,0.220785
515.376080,0.225182
515.706620,0.221627
516.037120,0.224020
516.367580,0.220798
516.698000,0.225490
517.028380,0.222443
517.358720,0.223704
517.689020,0.224530
518.019280,0.225790
518.349500,0.223517
518.679680,0.224634
519.009820,0.223178
519.339920,0.227455
519.669980,0.219488
520.000000,0.224147
520.329980,0.224987
520.659920,0.223415
520.989820,0.220846
521.319680,0.230453
521.649500,0.217995
521.979280,0.223904
522.309020,0.224585
522.638720,0.220686
522.968380,0.227508
523.298000,0.220251
523.627580,0.211588
523.957120,0.218182
524.286620,0.223554
524.616080,0.220269
524.945500,0.222222
525.274880,0.222678
525.604220,0.217391
525.933520,0.221698
526.262780,0.211353
526.592000,0.219685
526.921180,0.218385
527.250320,0.218671
527.579420,0.225872
527.908480,0.216642
528.237500,0.216485
528.566480,0.215569
528.895420,0.222770
529.224320,0.218920
529.553180,0.217349
529.882000,0.221411
530.210780,0.216699
530.539520,0.215244
530.868220,0.220201
531.196880,0.215480
531.525500,0.226150
531.854080,0.220450
532.182620,0.219057
532.511120,0.215313
532.839580,0.227314
533.168000,0.220146
533.496380,0.224658
533.824720,0.214895
534.153020,0.220687
534.481280,0.220264
534.809500,0.220317
535.137680,0.220052
535.465820,0.216065
535.793920,0.215313
536.121980,0.215275
536.450000,0.221142
536.777980,0.225388
537.105920,0.213782
537.433820,0.219722
537.761680,0.221633
538.089500,0.223391
538.417280,0.224433
538.745020,0.219889
539.072720,0.219055
539.400380,0.214064
539.728000,0.219503
540.055580,0.213858
540.383120,0.215190
540.710620,0.215030
541.038080,0.215050
541.365500,0.218382
541.692880,0.217297
542.020220,0.213026
542.347520,0.215363
542.674780,0.215243
543.002000,0.214486
543.329180,0.220975
543.656320,0.219761
543.983420,0.217778
544.310480,0.217125
544.637500,0.216308
544.964480,0.215680
545.291420,0.214025
545.618320,0.219788
545.945180,0.213579
546.272000,0.213958
546.598780,0.214684
546.925520,0.215628
547.252220,0.213272
547.578880,0.217660
547.905500,0.218954
548.232080,0.217999
548.558620,0.219004
548.885120,0.217206
549.211580,0.215365
549.538000,0.215953
549.864380,0.215113
550.190720,0.215047
550.517020,0.214472
550.843280,0.214007
551.169500,0.210242
551.495680,0.218791
551.821820,0.216199
552.147920,0.215355
552.473980,0.211064
552.800000,0.213211
553.125980,0.209889
553.451920,0.212011
553.777820,0.216855
554.103680,0.215369
554.429500,0.213927
554.755280,0.212617
555.081020,0.214572
555.406720,0.210972
555.732380,0.211454
556.058000,0.219959
556.383580,0.210887
556.709120,0.209511
557.034620,0.210816
557.360080,0.209672
557.685500,0.211272
558.010880,0.207972
558.336220,0.207381
558.661520,0.212336
558.986780,0.209072
559.312000,0.211538
559.637180,0.213285
559.962320,0.213599
560.287420,0.209097
560.612480,0.209903
560.937500,0.209251
561.262480,0.208578
561.587420,0.210011
561.912320,0.209654
562.237180,0.214656
562.562000,0.211373
562.886780,0.211817
563.211520,0.209762
563.536220,0.205937
563.860880,0.210109
564.185500,0.210882
564.510080,0.205418
564.834620,0.210272
565.159120,0.212030
565.483580,0.212087
565.808000,0.208097
566.132380,0.210742
566.456720,0.208995
566.781020,0.211178
567.105280,0.210964
567.429500,0.212064
567.753680,0.206367
568.077820,0.208349
568.401920,0.207792
568.725980,0.207211
569.050000,0.210266
569.373980,0.206700
569.697920,0.203641
570.021820,0.206367
570.345680,0.208955
570.669500,0.209081
570.993280,0.208933
571.317020,0.206065
571.640720,0.209707
571.964380,0.205271
572.288000,0.211053
572.611580,0.209659
572.935120,0.207258
573.258620,0.210172
573.582080,0.205291
573.905500,0.205882
574.228880,0.211210
574.552220,0.203371
574.875520,0.204021
575.198780,0.203469
575.522000,0.206745
575.845180,0.205229
576.168320,0.205893
576.491420,0.212573
576.814480,0.205787
577.137500,0.207431
577.460480,0.210946
577.783420,0.209360
578.106320,0.210826
578.429180,0.206787
578.752000,0.202154
579.074780,0.210384
579.397520,0.207230
579.720220,0.207207
580.042880,0.205154
580.365500,0.202184
580.688080,0.208277
581.010620,0.211272
581.333120,0.208417
581.655580,0.211455
581.978000,0.210841
582.300380,0.203181
582.622720,0.208965
582.945020,0.205137
583.267280,0.206122
583.589500,0.206100
583.911680,0.203874
584.233820,0.199559
584.555920,0.208320
584.877980,0.199749
585.200000,0.204420
585.521980,0.204819
585.843920,0.206223
586.165820,0.208714
586.487680,0.207042
586.809500,0.205521
587.131280,0.198462
587.453020,0.209226
587.774720,0.203430
588.096380,0.202450
588.418000,0.210126
588.739580,0.208681
589.061120,0.204140
589.382620,0.203438
589.704080,0.203086
590.025500,0.210046
590.346880,0.205734
590.668220,0.206945
590.989520,0.207155
591.310780,0.207125
591.632000,0.205191
591.953180,0.203432
592.274320,0.202293
592.595420,0.207435
592.916480,0.201304
593.237500,0.207491
593.558480,0.201238
593.879420,0.205827
594.200320,0.207608
594.521180,0.204515
594.842000,0.209833
595.162780,0.207799
595.483520,0.204201
595.804220,0.204619
596.124880,0.205436
596.445500,0.203039
596.766080,0.209465
597.086620,0.204087
597.407120,0.204581
597.727580,0.208698
598.048000,0.198625
598.368380,0.204103
598.688720,0.202883
599.009020,0.202495
599.329280,0.207025
599.649500,0.200740
599.969680,0.201122
600.289820,0.204060
600.609920,0.203847
600.929980,0.202031
601.250000,0.200000
601.569980,0.199028
601.889920,0.202352
602.209820,0.202922
602.529680,0.205987
602.849500,0.201855
603.169280,0.208046
603.489020,0.203709
603.808720,0.199945
604.128380,0.204194
604.448000,0.195856
604.767580,0.199162
605.087120,0.198338
605.406620,0.203470
605.726080,0.201027
606.045500,0.195598
606.364880,0.197618
606.684220,0.200171
607.003520,0.198968
607.322780,0.196987
607.642000,0.198449
607.961180,0.197167
608.280320,0.199536
608.599420,0.197856
608.918480,0.199707
609.237500,0.200411
609.556480,0.199763
609.875420,0.199646
610.194320,0.197520
610.513180,0.197100
610.832000,0.201013
611.150780,0.196455
611.469520,0.199397
611.788220,0.198005
612.106880,0.200241
612.425500,0.197320
612.744080,0.199446
613.062620,0.196942
613.381120,0.199878
613.699580,0.196812
614.018000,0.199324
614.336380,0.198951
614.654720,0.197519
614.973020,0.196853
615.291280,0.204214
615.609500,0.194929
615.927680,0.193758
616.245820,0.192641
616.563920,0.194591
616.881980,0.198628
617.200000,0.197823
617.517980,0.195395
617.835920,0.193538
618.153820,0.194280
618.471680,0.193798
618.789500,0.199497
619.107280,0.198748
619.425020,0.190612
619.742720,0.194288
620.060380,0.193983
620.378000,0.195091
620.695580,0.195402
621.013120,0.191496
621.330620,0.198619
621.648080,0.191798
621.965500,0.193852
622.282880,0.194199
622.600220,0.192672
622.917520,0.193762
623.234780,0.202186
623.552000,0.199873
623.869180,0.196974
624.186320,0.197389
624.503420,0.191850
624.820480,0.193528
625.137500,0.193874
625.454480,0.194748
625.771420,0.201135
626.088320,0.196721
626.405180,0.197262
626.722000,0.197302
627.038780,0.197055
627.355520,0.194062
627.672220,0.190669
627.988880,0.192535
628.305500,0.202867
628.622080,0.194548
628.938620,0.191743
629.255120,0.192906
629.571580,0.193074
629.888000,0.194538
630.204380,0.193618
630.520720,0.192870
630.837020,0.193956
631.153280,0.193345
631.469500,0.196180
631.785680,0.192586
632.101820,0.195115
632.417920,0.193741
632.733980,0.192077
633.050000,0.192844
633.365980,0.193835
633.681920,0.195704
633.997820,0.194860
634.313680,0.192569
634.629500,0.194338
634.945280,0.193548
635.261020,0.193425
635.576720,0.194656
635.892380,0.190532
636.208000,0.194073
636.523580,0.194388
636.839120,0.192530
637.154620,0.192464
637.470080,0.190244
637.785500,0.197245
638.100880,0.190559
638.416220,0.189244
638.731520,0.189971
639.046780,0.196330
639.362000,0.188933
639.677180,0.196174
639.992320,0.190302
640.307420,0.191346
640.622480,0.190703
640.937500,0.190291
641.252480,0.193521
641.567420,0.190679
641.882320,0.191537
642.197180,0.195396
642.512000,0.190316
642.826780,0.192233
643.141520,0.192553
643.456220,0.190647
643.770880,0.194306
644.085500,0.189491
644.400080,0.193539
644.714620,0.192586
645.029120,0.189769
645.343580,0.190071
645.658000,0.190674
645.972380,0.195122
646.286720,0.191333
646.601020,0.190147
646.915280,0.191664
647.229500,0.192857
647.543680,0.188898
647.857820,0.190476
648.171920,0.190722
648.485980,0.189367
648.800000,0.189308
649.113980,0.192350
649.427920,0.192788
649.741820,0.186590
650.055680,0.188426
650.369500,0.195067
650.683280,0.186737
650.997020,0.189494
651.310720,0.189598
651.624380,0.189011
651.938000,0.190305
652.251580,0.192875
652.565120,0.191448
652.878620,0.186937
653.192080,0.190169
653.505500,0.188780
653.818880,0.185385
654.132220,0.187981
654.445520,0.186330
654.758780,0.188102
655.072000,0.185673
655.385180,0.187732
655.698320,0.186911
656.011420,0.187160
656.324480,0.189158
656.637500,0.188007
656.950480,0.188491
657.263420,0.184452
657.576320,0.184109
657.889180,0.186671
658.202000,0.189614
658.514780,0.191426
658.827520,0.185474
659.140220,0.181600
659.452880,0.186047
659.765500,0.183925
660.078080,0.180560
660.390620,0.183624
660.703120,0.186068
661.015580,0.186503
661.328000,0.190491
661.640380,0.186083
661.952720,0.186546
662.265020,0.187146
662.577280,0.186069
662.889500,0.185430
663.201680,0.183472
663.513820,0.185590
663.825920,0.188280
664.137980,0.185197
664.450000,0.183504
664.761980,0.181669
665.073920,0.184356
665.385820,0.182264
665.697680,0.185785
666.009500,0.183239
666.321280,0.185885
666.633020,0.184840
666.944720,0.182676
667.256380,0.182705
667.568000,0.179687
667.879580,0.184014
668.191120,0.187843
668.502620,0.181445
668.814080,0.185263
669.125500,0.185768
669.436880,0.186376
669.748220,0.185531
670.059520,0.182423
670.370780,0.185456
670.682000,0.180177
670.993180,0.179352
671.304320,0.180731
671.615420,0.184304
671.926480,0.188077
672.237500,0.178635
672.548480,0.180625
672.859420,0.185490
673.170320,0.179543
673.481180,0.182839
673.792000,0.177065
674.102780,0.181329
674.413520,0.183011
674.724220,0.179310
675.034880,0.184818
675.345500,0.179796
675.656080,0.180399
675.966620,0.179338
676.277120,0.179055
676.587580,0.185199
676.898000,0.181038
677.208380,0.180407
677.518720,0.179066
677.829020,0.180710
678.139280,0.181245
678.449500,0.181211
678.759680,0.179093
679.069820,0.178810
679.379920,0.180687
679.689980,0.179354
680.000000,0.179065
680.309980,0.177060
680.619920,0.180613
680.929820,0.179918
681.239680,0.173929
681.549500,0.181111
681.859280,0.177371
682.169020,0.181276
682.478720,0.178010
682.788380,0.181986
683.098000,0.179880
683.407580,0.177861
683.717120,0.177553
684.026620,0.181099
684.336080,0.179235
684.645500,0.174336
684.954880,0.176048
685.264220,0.180068
685.573520,0.181957
685.882780,0.181051
686.192000,0.175696
686.501180,0.180855
686.810320,0.178324
687.119420,0.179399
687.428480,0.178883
687.737500,0.178051
688.046480,0.176380
688.355420,0.177669
688.664320,0.177888
688.973180,0.174579
689.282000,0.179784
689.590780,0.176380
689.899520,0.173946
690.208220,0.181957
690.516880,0.173730
690.825500,0.178868
691.134080,0.175778
691.442620,0.175686
691.751120,0.179370
692.059580,0.181506
692.368000,0.176448
692.676380,0.177099
692.984720,0.181679
693.293020,0.177432
693.601280,0.173216
693.909500,0.175936
694.217680,0.177837
694.525820,0.176314
694.833920,0.175887
695.141980,0.178558
695.450000,0.180153
695.757980,0.177617
696.065920,0.173204
696.373820,0.172440
696.681680,0.174914
696.989500,0.174450
697.297280,0.171918
697.605020,0.179762
697.912720,0.174097
698.220380,0.173554
698.528000,0.178402
698.835580,0.180561
699.143120,0.169914
699.450620,0.175418
699.758080,0.174510
700.065500,0.175579
700.372880,0.175600
700.680220,0.171919
700.987520,0.176587
701.294780,0.176805
701.602000,0.176704
701.909180,0.176073
702.216320,0.172859
702.523420,0.176401
702.830480,0.176238
703.137500,0.171863
703.444480,0.175542
703.751420,0.176331
704.058320,0.176098
704.365180,0.176656
704.672000,0.174653
704.978780,0.175575
705.285520,0.171362
705.592220,0.175294
705.898880,0.169425
706.205500,0.174883
706.512080,0.174961
706.818620,0.172988
707.125120,0.176538
707.431580,0.169988
707.738000,0.175391
708.044380,0.173292
708.350720,0.170424
708.657020,0.177413
708.963280,0.176630
709.269500,0.174168
709.575680,0.177210
709.881820,0.169811
710.187920,0.171595
710.493980,0.172227
710.800000,0.174676
711.105980,0.173569
711.411920,0.169492
711.717820,0.175439
712.023680,0.171784
712.329500,0.176262
712.635280,0.175969
712.941020,0.176652
713.246720,0.170356
713.552380,0.173077
713.858000,0.170674
714.163580,0.170876
714.469120,0.167253
714.774620,0.170154
715.080080,0.175893
715.385500,0.174261
715.690880,0.170020
715.996220,0.171949
716.301520,0.169565
716.606780,0.173349
716.912000,0.169628
717.217180,0.167598
717.522320,0.168986
717.827420,0.170464
718.132480,0.171016
718.437500,0.173257
718.742480,0.170161
719.047420,0.174353
719.352320,0.174761
719.657180,0.174980
719.962000,0.173697
720.266780,0.175322
720.571520,0.171500
720.876220,0.175941
721.180880,0.173913
721.485500,0.173422
721.790080,0.168577
722.094620,0.172813
722.399120,0.175786
722.703580,0.166738
723.008000,0.167745
723.312380,0.167886
723.616720,0.163196
723.921020,0.171936
724.225280,0.169284
724.529500,0.167688
724.833680,0.172598
725.137820,0.171806
725.441920,0.168970
725.745980,0.167338
726.050000,0.169599
726.353980,0.168995
726.657920,0.169591
726.961820,0.173973
727.265680,0.169672
727.569500,0.168647
727.873280,0.164896
728.177020,0.170889
728.480720,0.170370
728.784380,0.170972
729.088000,0.171455
729.391580,0.166746
729.695120,0.170825
729.998620,0.173040
730.302080,0.169149
730.605500,0.165454
730.908880,0.167075
731.212220,0.164055
731.515520,0.168698
731.818780,0.168932
732.122000,0.162402
732.425180,0.169049
732.728320,0.168071
733.031420,0.168421
733.334480,0.168367
733.637500,0.166835
733.940480,0.170931
734.243420,0.168705
734.546320,0.169606
734.849180,0.165806
735.152000,0.163900
735.454780,0.165289
735.757520,0.171233
736.060220,0.167457
736.362880,0.164916
736.665500,0.170235
736.968080,0.163353
737.270620,0.168753
737.573120,0.166485
737.875580,0.174821
738.178000,0.166032
738.480380,0.169730
738.782720,0.165213
739.085020,0.164097
739.387280,0.166297
739.689500,0.168177
739.991680,0.166760
740.293820,0.166390
740.595920,0.168614
740.897980,0.163749
741.200000,0.162086
741.501980,0.167335
741.803920,0.160473
742.105820,0.168077
742.407680,0.170646
742.709500,0.165909
743.011280,0.160023
743.313020,0.166377
743.614720,0.165990
743.916380,0.161047
744.218000,0.165274
744.519580,0.170290
744.821120,0.165269
745.122620,0.165368
745.424080,0.156250
745.725500,0.164152
746.026880,0.161330
746.328220,0.159679
746.629520,0.162553
746.930780,0.161152
747.232000,0.161864
747.533180,0.164735
747.834320,0.163116
748.135420,0.163456
748.436480,0.164691
748.737500,0.164917
749.038480,0.162492
749.339420,0.168637
749.640320,0.164048
749.941180,0.165522
750.242000,0.160176
750.542780,0.168114
750.843520,0.163357
751.144220,0.165385
751.444880,0.160431
751.745500,0.161039
752.046080,0.166132
752.346620,0.162371
752.647120,0.163945
752.947580,0.163001
753.248000,0.166989
753.548380,0.159401
753.848720,0.171281
754.149020,0.156028
754.449280,0.159554
754.749500,0.163902
755.049680,0.162000
755.349820,0.159440
755.649920,0.165896
755.949980,0.165893
756.250000,0.169625
756.549980,0.155116
756.849920,0.165194
757.149820,0.160346
757.449680,0.161056
757.749500,0.162918
758.049280,0.162457
758.349020,0.164812
758.648720,0.165631
758.948380,0.162199
759.248000,0.164420
759.547580,0.166779
759.847120,0.163336
760.146620,0.162382
760.446080,0.157258
760.745500,0.160839
761.044880,0.161222
761.344220,0.163934
761.643520,0.163136
761.942780,0.160952
762.242000,0.164781
762.541180,0.157746
762.840320,0.165028
763.139420,0.161041
763.438480,0.158578
763.737500,0.159201
764.036480,0.160028
764.335420,0.157375
764.634320,0.157311
764.933180,0.166438
765.232000,0.161693
765.530780,0.160702
765.829520,0.158741
766.128220,0.160752
766.426880,0.164890
766.725500,0.163125
767.024080,0.155693
767.322620,0.157676
767.621120,0.157859
767.919580,0.155631
768.218000,0.159371
768.516380,0.160920
768.814720,0.159808
769.113020,0.159201
769.411280,0.164365
769.709500,0.159675
770.007680,0.157464
770.305820,0.162272
770.603920,0.157682
770.901980,0.165301
771.200000,0.152853
771.497980,0.161528
771.795920,0.160535
772.093820,0.159091
772.391680,0.157548
772.689500,0.162162
772.987280,0.160943
773.285020,0.156528
773.582720,0.158784
773.880380,0.159231
774.178000,0.154738
774.475580,0.161420
774.773120,0.161312
775.070620,0.162272
775.368080,0.169673
775.665500,0.153123
775.962880,0.157438
776.260220,0.162180
776.557520,0.158105
776.854780,0.158891
777.152000,0.161141
777.449180,0.157788
777.746320,0.148522
778.043420,0.160982
778.340480,0.158322
778.637500,0.162948
778.934480,0.151311
779.231420,0.154681
779.528320,0.159653
779.825180,0.153491
780.122000,0.156707
780.418780,0.159371
780.715520,0.157612
781.012220,0.167808
781.308880,0.163624
781.605500,0.156164
781.902080,0.158795
782.198620,0.159945
782.495120,0.158436
782.791580,0.160248
783.088000,0.162181
783.384380,0.166437
783.680720,0.155951
783.977020,0.157605
784.273280,0.158741
784.569500,0.155835
784.865680,0.157858
785.161820,0.156250
785.457920,0.162855
785.753980,0.157013
786.050000,0.152624
786.345980,0.163194
786.641920,0.159611
786.937820,0.162393
787.233680,0.158664
787.529500,0.155340
787.825280,0.157224
788.121020,0.157224
788.416720,0.153846
788.712380,0.156559
789.008000,0.157932
789.303580,0.154064
789.599120,0.157818
789.894620,0.158123
790.190080,0.158086
790.485500,0.156947
790.780880,0.157706
791.076220,0.151515
791.371520,0.154684
791.666780,0.160727
791.962000,0.150625
792.257180,0.156662
792.552320,0.155185
792.847420,0.154294
793.142480,0.154579
793.437500,0.153401
793.732480,0.155816
794.027420,0.148368
794.322320,0.154362
794.617180,0.152303
794.912000,0.156018
795.206780,0.153617
795.501520,0.153612
795.796220,0.156296
796.090880,0.155237
796.385500,0.159670
796.680080,0.159312
796.974620,0.163174
797.269120,0.149886
797.563580,0.156489
797.858000,0.155657
798.152380,0.154679
798.446720,0.159231
798.741020,0.160247
799.035280,0.149845
799.329500,0.157814
799.623680,0.153488
