399.985280,0.189189
400.329500,0.229730
400.673680,0.164557
401.017820,0.161765
401.361920,0.196970
401.705980,0.231707
402.050000,0.129870
402.393980,0.235294
402.737920,0.213483
403.081820,0.164948
403.425680,0.220930
403.769500,0.156250
404.113280,0.183908
404.457020,0.235955
404.800720,0.184783
405.144380,0.242424
405.488000,0.204301
405.831580,0.175258
406.175120,0.202128
406.518620,0.210000
406.862080,0.175258
407.205500,0.166667
407.548880,0.204082
407.892220,0.235294
408.235520,0.234043
408.578780,0.257143
408.922000,0.173077
409.265180,0.292929
409.608320,0.252525
409.951420,0.257732
410.294480,0.254902
410.637500,0.152174
410.980480,0.196078
411.323420,0.214286
411.666320,0.256881
412.009180,0.218182
412.352000,0.227723
412.694780,0.211009
413.037520,0.201835
413.380220,0.216216
413.722880,0.196429
414.065500,0.261261
414.408080,0.221239
414.750620,0.176991
415.093120,0.190083
415.435580,0.260504
415.778000,0.265152
416.120380,0.260504
416.462720,0.198413
416.805020,0.180451
417.147280,0.201493
417.489500,0.250000
417.831680,0.212329
418.173820,0.191489
418.515920,0.230769
418.857980,0.183544
419.200000,0.192308
419.541980,0.248521
419.883920,0.202247
420.225820,0.236994
420.567680,0.234637
420.909500,0.245902
421.251280,0.223958
421.593020,0.204082
421.934720,0.212121
422.276380,0.205128
422.618000,0.200980
422.959580,0.196078
423.301120,0.210046
423.642620,0.208696
423.984080,0.181395
424.325500,0.215247
424.666880,0.176724
425.008220,0.189076
425.349520,0.199153
425.690780,0.200000
426.032000,0.203922
426.373180,0.211618
426.714320,0.207031
427.055420,0.223938
427.396480,0.213483
427.737500,0.205534
428.078480,0.177866
428.419420,0.188755
428.760320,0.191571
429.101180,0.216535
429.442000,0.214559
429.782780,0.207692
430.123520,0.196078
430.464220,0.206642
430.804880,0.241379
431.145500,0.181818
431.486080,0.213483
431.826620,0.186047
432.167120,0.198529
432.507580,0.217391
432.848000,0.219424
433.188380,0.220217
433.528720,0.196226
433.869020,0.217857
434.209280,0.185965
434.549500,0.226481
434.889680,0.212121
435.229820,0.208191
435.569920,0.190311
435.909980,0.207120
436.250000,0.216949
436.589980,0.173375
436.929920,0.209524
437.269820,0.188088
437.609680,0.198225
437.949500,0.189759
438.289280,0.215297
438.629020,0.212209
438.968720,0.197674
439.308380,0.197832
439.648000,0.210959
439.987580,0.208995
440.327120,0.202667
440.666620,0.194805
441.006080,0.204604
441.345500,0.199017
441.684880,0.198565
442.024220,0.191067
442.363520,0.188095
442.702780,0.197727
443.042000,0.193833
443.381180,0.200431
443.720320,0.203024
444.059420,0.205882
444.398480,0.192469
444.737500,0.211066
445.076480,0.198413
445.415420,0.197605
445.754320,0.193347
446.093180,0.196330
446.432000,0.204887
446.770780,0.195446
447.109520,0.205882
447.448220,0.203936
447.786880,0.198569
448.125500,0.196552
448.464080,0.198214
448.802620,0.198582
449.141120,0.193772
449.479580,0.195804
449.818000,0.199656
450.156380,0.204013
450.494720,0.196694
450.833020,0.197552
451.171280,0.188356
451.509500,0.207317
451.847680,0.205734
452.185820,0.204819
452.523920,0.199313
452.861980,0.205734
453.200000,0.191030
453.537980,0.186555
453.875920,0.198319
454.213820,0.188356
454.551680,0.183775
454.889500,0.192243
455.227280,0.185053
455.565020,0.195980
455.902720,0.201331
456.240380,0.176373
456.578000,0.198606
456.915580,0.196891
457.253120,0.192434
457.590620,0.197044
457.928080,0.198653
458.265500,0.194257
458.602880,0.199675
458.940220,0.186125
459.277520,0.184000
459.614780,0.194763
459.952000,0.175466
460.289180,0.189873
460.626320,0.182677
460.963420,0.189015
461.300480,0.192661
461.637500,0.195686
461.974480,0.192661
462.311420,0.192250
462.648320,0.190337
462.985180,0.190818
463.322000,0.196429
463.658780,0.186464
463.995520,0.187070
464.332220,0.180055
464.668880,0.198925
465.005500,0.183646
465.342080,0.195903
465.678620,0.189422
466.015120,0.178525
466.351580,0.190898
466.688000,0.193666
467.024380,0.185905
467.360720,0.196591
467.697020,0.190205
468.033280,0.188889
468.369500,0.192053
468.705680,0.195039
469.041820,0.194792
469.377920,0.188720
469.713980,0.185376
470.050000,0.192271
470.385980,0.192759
470.721920,0.188051
471.057820,0.187135
471.393680,0.185220
471.729500,0.185357
472.065280,0.182469
472.401020,0.182624
472.736720,0.187609
473.072380,0.192998
473.408000,0.179286
473.743580,0.179066
474.079120,0.186908
474.414620,0.181510
474.750080,0.178194
475.085500,0.185855
475.420880,0.186511
475.756220,0.184791
476.091520,0.189258
476.426780,0.185275
476.762000,0.182623
477.097180,0.184800
477.432320,0.186591
477.767420,0.187908
478.102480,0.181890
478.437500,0.186371
478.772480,0.183609
479.107420,0.179821
479.442320,0.172662
479.777180,0.186953
480.112000,0.176425
480.446780,0.177708
480.781520,0.187601
481.116220,0.186742
481.450880,0.180328
481.785500,0.185127
482.120080,0.184169
482.454620,0.181041
482.789120,0.183917
483.123580,0.188474
483.458000,0.174051
483.792380,0.178914
484.126720,0.180695
484.461020,0.177205
484.795280,0.178103
485.129500,0.187841
485.463680,0.175194
485.797820,0.184292
486.131920,0.175976
486.465980,0.176062
486.800000,0.185496
487.133980,0.179758
487.467920,0.183627
487.801820,0.185355
488.135680,0.178165
488.469500,0.177761
488.803280,0.184993
489.137020,0.175824
489.470720,0.172107
489.804380,0.181143
490.138000,0.179525
490.471580,0.185704
490.805120,0.181558
491.138620,0.180526
491.472080,0.179505
491.805500,0.177824
492.138880,0.182071
492.472220,0.179931
492.805520,0.175978
493.138780,0.177119
493.472000,0.177926
493.805180,0.184175
494.138320,0.178119
494.471420,0.177083
494.804480,0.181113
495.137500,0.179076
495.470480,0.186106
495.803420,0.178841
496.136320,0.176692
496.469180,0.183548
496.802000,0.170538
497.134780,0.172832
497.467520,0.186544
497.800220,0.183962
498.132880,0.175779
498.465500,0.177868
498.798080,0.173516
499.130620,0.176305
499.463120,0.178551
499.795580,0.182068
500.128000,0.178747
500.460380,0.177072
500.792720,0.170732
501.125020,0.176038
501.457280,0.179112
501.789500,0.179752
502.121680,0.180923
502.453820,0.174911
502.785920,0.173087
503.117980,0.181060
503.450000,0.180311
503.781980,0.176383
504.113920,0.172594
504.445820,0.177929
504.777680,0.168471
505.109500,0.172115
505.441280,0.171128
505.773020,0.174260
506.104720,0.172398
506.436380,0.175580
506.768000,0.179607
507.099580,0.169336
507.431120,0.172365
507.762620,0.174812
508.094080,0.172288
508.425500,0.174136
508.756880,0.170553
509.088220,0.172033
509.419520,0.171788
509.750780,0.171509
510.082000,0.170243
510.413180,0.169968
510.744320,0.172572
511.075420,0.169569
511.406480,0.177245
511.737500,0.170370
512.068480,0.172932
512.399420,0.174648
512.730320,0.173672
513.061180,0.170790
513.392000,0.173687
513.722780,0.172430
514.053520,0.172017
514.384220,0.168887
514.714880,0.173289
515.045500,0.163314
515.376080,0.169492
515.706620,0.169995
516.037120,0.169608
516.367580,0.172006
516.698000,0.172549
517.028380,0.166832
517.358720,0.173827
517.689020,0.177547
518.019280,0.174109
518.349500,0.174354
518.679680,0.170621
519.009820,0.166498
519.339920,0.176854
519.669980,0.167755
520.000000,0.171167
520.329980,0.172628
520.659920,0.164622
520.989820,0.172343
521.319680,0.172325
521.649500,0.169666
521.979280,0.168580
522.309020,0.167531
522.638720,0.165899
522.968380,0.171665
523.298000,0.168058
523.627580,0.169167
523.957120,0.171948
524.286620,0.164148
524.616080,0.169597
524.945500,0.170543
525.274880,0.172909
525.604220,0.167184
525.933520,0.168763
526.262780,0.173340
526.592000,0.170979
526.921180,0.168106
527.250320,0.170472
527.579420,0.172815
527.908480,0.167405
528.237500,0.167329
528.566480,0.169162
528.895420,0.170527
529.224320,0.169886
529.553180,0.173494
529.882000,0.173236
530.210780,0.165541
530.539520,0.169703
530.868220,0.173767
531.196880,0.167702
531.525500,0.173366
531.854080,0.164165
532.182620,0.166277
532.511120,0.168445
532.839580,0.171053
533.168000,0.170921
533.496380,0.172146
533.824720,0.169583
534.153020,0.173428
534.481280,0.173128
534.809500,0.166227
535.137680,0.167101
535.465820,0.169674
535.793920,0.164129
536.121980,0.166597
536.450000,0.169133
536.777980,0.170088
537.105920,0.168535
537.433820,0.166121
537.761680,0.170204
538.089500,0.167544
538.417280,0.163550
538.745020,0.166799
539.072720,0.165560
539.400380,0.167832
539.728000,0.168642
540.055580,0.167416
540.383120,0.170886
540.710620,0.168155
541.038080,0.169310
541.365500,0.165809
541.692880,0.169331
542.020220,0.166247
542.347520,0.170136
542.674780,0.166196
543.002000,0.166900
543.329180,0.170467
543.656320,0.168425
543.983420,0.162051
544.310480,0.164798
544.637500,0.166837
544.964480,0.168910
545.291420,0.170156
545.618320,0.170319
545.945180,0.163151
546.272000,0.164155
546.598780,0.166831
546.925520,0.162875
547.252220,0.167712
547.578880,0.167807
547.905500,0.165686
548.232080,0.163418
548.558620,0.168890
548.885120,0.165195
549.211580,0.160720
549.538000,0.163748
549.864380,0.167524
550.190720,0.166290
550.517020,0.166232
550.843280,0.167101
551.169500,0.162532
551.495680,0.160315
551.821820,0.166231
552.147920,0.164281
552.473980,0.166941
552.800000,0.166449
553.125980,0.168304
553.451920,0.165893
553.777820,0.162558
554.103680,0.161105
554.429500,0.161031
554.755280,0.161215
555.081020,0.164104
555.406720,0.164578
555.732380,0.161640
556.058000,0.163951
556.383580,0.162958
556.709120,0.162646
557.034620,0.162590
557.360080,0.162003
557.685500,0.161826
558.010880,0.157712
558.336220,0.156415
558.661520,0.161999
558.986780,0.165131
559.312000,0.160256
559.637180,0.163016
559.962320,0.162335
560.287420,0.165021
560.612480,0.161823
560.937500,0.164097
561.262480,0.160557
561.587420,0.158506
561.912320,0.161754
562.237180,0.158031
562.562000,0.159746
562.886780,0.160164
563.211520,0.159091
563.536220,0.161039
563.860880,0.159940
564.185500,0.162101
564.510080,0.162152
564.834620,0.161891
565.159120,0.158647
565.483580,0.162676
565.808000,0.158910
566.132380,0.165237
566.456720,0.163643
566.781020,0.158290
567.105280,0.157278
567.429500,0.160850
567.753680,0.163406
568.077820,0.161964
568.401920,0.163866
568.725980,0.160911
569.050000,0.160076
569.373980,0.159498
569.697920,0.161926
570.021820,0.159925
570.345680,0.159969
570.669500,0.159481
570.993280,0.158361
571.317020,0.157837
571.640720,0.164135
571.964380,0.163326
572.288000,0.158383
572.611580,0.160240
572.935120,0.162364
573.258620,0.157442
573.582080,0.158718
573.905500,0.154877
574.228880,0.159614
574.552220,0.160498
574.875520,0.161206
575.198780,0.159378
575.522000,0.158724
575.845180,0.156519
576.168320,0.157384
576.491420,0.162791
576.814480,0.160579
577.137500,0.163059
577.460480,0.158753
577.783420,0.161844
578.106320,0.157407
578.429180,0.156946
578.752000,0.158736
579.074780,0.158800
579.397520,0.155584
579.720220,0.161840
580.042880,0.161216
580.365500,0.159497
580.688080,0.160448
581.010620,0.158961
581.333120,0.158317
581.655580,0.155178
581.978000,0.157632
582.300380,0.155469
582.622720,0.160844
582.945020,0.159948
583.267280,0.155650
583.589500,0.160193
583.911680,0.160368
584.233820,0.156752
584.555920,0.163568
584.877980,0.158606
585.200000,0.159300
585.521980,0.158480
585.843920,0.158023
586.165820,0.157221
586.487680,0.156786
586.809500,0.158716
587.131280,0.156167
587.453020,0.160417
587.774720,0.157008
588.096380,0.155776
588.418000,0.155985
588.739580,0.161828
589.061120,0.160437
589.382620,0.160172
589.704080,0.157644
590.025500,0.159532
590.346880,0.158235
590.668220,0.158779
590.989520,0.153356
591.310780,0.158796
591.632000,0.158743
591.953180,0.158317
592.274320,0.156156
592.595420,0.157866
592.916480,0.151861
593.237500,0.158178
593.558480,0.155502
593.879420,0.159158
594.200320,0.156710
594.521180,0.156707
594.842000,0.160398
595.162780,0.158387
595.483520,0.157937
595.804220,0.156284
596.124880,0.159339
596.445500,0.153000
596.766080,0.159451
597.086620,0.156051
597.407120,0.153502
597.727580,0.157518
598.048000,0.157895
598.368380,0.155445
598.688720,0.154128
599.009020,0.160563
599.329280,0.158329
599.649500,0.154781
599.969680,0.156250
600.289820,0.155182
600.609920,0.153620
600.929980,0.155265
601.250000,0.154324
601.569980,0.153929
601.889920,0.155841
602.209820,0.155303
602.529680,0.156550
602.849500,0.154392
603.169280,0.155415
603.489020,0.156933
603.808720,0.155787
604.128380,0.157009
604.448000,0.155801
604.767580,0.150559
605.087120,0.154294
605.406620,0.153932
605.726080,0.152267
606.045500,0.150181
606.364880,0.154239
606.684220,0.152484
607.003520,0.154530
607.322780,0.151222
607.642000,0.156806
607.961180,0.153802
608.280320,0.155162
608.599420,0.147451
608.918480,0.151613
609.237500,0.155516
609.556480,0.150340
609.875420,0.151802
610.194320,0.152938
610.513180,0.154188
610.832000,0.149494
611.150780,0.152598
611.469520,0.154449
611.788220,0.151149
612.106880,0.152292
612.425500,0.152558
612.744080,0.155740
613.062620,0.151070
613.381120,0.150518
613.699580,0.151747
614.018000,0.152027
614.336380,0.154534
614.654720,0.147907
614.973020,0.156125
615.291280,0.153703
615.609500,0.155626
615.927680,0.152040
616.245820,0.150897
616.563920,0.149207
616.881980,0.149984
617.200000,0.152100
617.517980,0.150591
617.835920,0.146629
618.153820,0.151072
618.471680,0.151938
618.789500,0.150409
619.107280,0.151174
619.425020,0.152870
619.742720,0.148776
620.060380,0.149796
620.378000,0.148521
620.695580,0.153257
621.013120,0.146772
621.330620,0.149984
621.648080,0.151420
621.965500,0.152133
622.282880,0.154477
622.600220,0.152243
622.917520,0.152174
623.234780,0.152684
623.552000,0.150541
623.869180,0.150016
624.186320,0.151544
624.503420,0.150784
624.820480,0.151744
625.137500,0.150616
625.454480,0.150985
625.771420,0.151955
626.088320,0.148172
626.405180,0.151525
626.722000,0.147428
627.038780,0.148496
627.355520,0.145313
627.672220,0.148989
627.988880,0.150544
628.305500,0.151761
628.622080,0.155824
628.938620,0.151988
629.255120,0.152147
629.571580,0.145572
629.888000,0.147591
630.204380,0.150967
630.520720,0.149299
630.837020,0.150170
631.153280,0.148082
631.469500,0.147362
631.785680,0.145871
632.101820,0.148070
632.417920,0.151118
632.733980,0.150660
633.050000,0.148272
633.365980,0.147599
633.681920,0.150358
633.997820,0.145846
634.313680,0.153642
634.629500,0.148924
634.945280,0.149853
635.261020,0.148811
635.576720,0.150910
635.892380,0.146384
636.208000,0.148460
636.523580,0.153464
636.839120,0.150550
637.154620,0.150145
637.470080,0.148063
637.785500,0.152403
638.100880,0.149146
638.416220,0.151280
638.731520,0.148138
639.046780,0.149723
639.362000,0.146789
639.677180,0.151057
639.992320,0.145475
640.307420,0.146951
640.622480,0.149258
640.937500,0.147018
641.252480,0.148841
641.567420,0.148338
641.882320,0.146715
642.197180,0.147389
642.512000,0.148615
642.826780,0.150347
643.141520,0.146707
643.456220,0.150249
643.770880,0.150359
644.085500,0.148686
644.400080,0.148315
644.714620,0.148551
645.029120,0.149890
645.343580,0.147833
645.658000,0.147377
645.972380,0.149356
646.286720,0.145816
646.601020,0.150844
646.915280,0.152180
647.229500,0.144505
647.543680,0.151616
647.857820,0.145059
648.171920,0.145958
648.485980,0.147712
648.800000,0.145219
649.113980,0.145787
649.427920,0.152843
649.741820,0.146744
650.055680,0.149479
650.369500,0.148262
650.683280,0.146226
650.997020,0.145765
651.310720,0.146120
651.624380,0.145055
651.938000,0.150693
652.251580,0.147509
652.565120,0.144774
652.878620,0.148367
653.192080,0.146910
653.505500,0.146143
653.818880,0.148422
654.132220,0.146967
654.445520,0.144923
654.758780,0.145326
655.072000,0.146132
655.385180,0.146648
655.698320,0.144327
656.011420,0.147607
656.324480,0.143981
656.637500,0.143105
656.950480,0.145919
657.263420,0.146024
657.576320,0.143789
657.889180,0.146564
658.202000,0.146739
658.514780,0.146770
658.827520,0.146759
659.140220,0.143842
659.452880,0.142253
659.765500,0.144491
660.078080,0.141739
660.390620,0.143905
660.703120,0.146043
661.015580,0.144479
661.328000,0.148300
661.640380,0.144144
661.952720,0.146372
662.265020,0.144928
662.577280,0.144084
662.889500,0.145695
663.201680,0.150925
663.513820,0.139916
663.825920,0.144733
664.137980,0.147059
664.450000,0.145141
664.761980,0.145336
665.073920,0.144758
665.385820,0.145288
665.697680,0.142810
666.009500,0.145328
666.321280,0.144467
666.633020,0.141955
666.944720,0.140883
667.256380,0.140983
667.568000,0.143003
667.879580,0.144898
668.191120,0.145604
668.502620,0.144813
668.814080,0.140000
669.125500,0.143004
669.436880,0.142116
669.748220,0.139495
670.059520,0.145658
670.370780,0.142310
670.682000,0.140177
670.993180,0.142001
671.304320,0.145218
671.615420,0.143821
671.926480,0.140525
672.237500,0.139693
672.548480,0.144429
672.859420,0.142602
673.170320,0.143272
673.481180,0.144461
673.792000,0.139560
674.102780,0.142549
674.413520,0.141816
674.724220,0.137568
675.034880,0.141914
675.345500,0.139679
675.656080,0.142287
675.966620,0.139323
676.277120,0.146100
676.587580,0.143594
676.898000,0.141844
677.208380,0.138262
677.518720,0.139314
677.829020,0.140059
678.139280,0.141586
678.449500,0.141478
678.759680,0.139003
679.069820,0.137918
679.379920,0.142965
679.689980,0.141107
680.000000,0.138318
680.309980,0.139941
680.619920,0.141234
680.929820,0.138485
681.239680,0.137371
681.549500,0.140370
681.859280,0.143764
682.169020,0.142484
682.478720,0.141361
682.788380,0.139535
683.098000,0.141361
683.407580,0.141088
683.717120,0.138889
684.026620,0.135919
684.336080,0.136794
684.645500,0.136551
684.954880,0.137892
685.264220,0.135900
685.573520,0.140084
685.882780,0.143843
686.192000,0.136569
686.501180,0.138479
686.810320,0.141814
687.119420,0.141771
687.428480,0.139005
687.737500,0.136224
688.046480,0.135736
688.355420,0.141456
688.664320,0.138485
688.973180,0.141271
689.282000,0.136574
689.590780,0.142255
689.899520,0.136346
690.208220,0.141437
690.516880,0.140893
690.825500,0.137358
691.134080,0.137434
691.442620,0.141387
691.751120,0.137277
692.059580,0.139091
692.368000,0.134419
692.676380,0.143893
692.984720,0.136641
693.293020,0.141337
693.601280,0.136971
693.909500,0.137344
694.217680,0.141660
694.525820,0.144326
694.833920,0.140404
695.141980,0.140378
695.450000,0.145038
695.757980,0.140183
696.065920,0.137087
696.373820,0.138953
696.681680,0.139624
696.989500,0.142416
697.297280,0.138079
697.605020,0.138492
697.912720,0.137202
698.220380,0.135773
698.528000,0.138845
698.835580,0.138680
699.143120,0.134061
699.450620,0.141209
699.758080,0.135686
700.065500,0.138069
700.372880,0.140800
700.680220,0.137216
700.987520,0.136905
701.294780,0.141930
701.602000,0.137876
701.909180,0.138712
702.216320,0.134924
702.523420,0.137727
702.830480,0.140594
703.137500,0.135230
703.444480,0.141223
703.751420,0.138856
704.058320,0.136130
704.365180,0.137224
704.672000,0.133069
704.978780,0.137729
705.285520,0.136541
705.592220,0.138431
705.898880,0.136328
706.205500,0.136933
706.512080,0.136256
706.818620,0.134675
707.125120,0.137692
707.431580,0.136381
707.738000,0.143359
708.044380,0.134697
708.350720,0.139091
708.657020,0.136381
708.963280,0.137422
709.269500,0.140117
709.575680,0.137525
709.881820,0.134827
710.187920,0.135798
710.493980,0.135764
710.800000,0.133486
711.105980,0.134413
711.411920,0.137170
711.717820,0.133723
712.023680,0.135251
712.329500,0.130521
712.635280,0.139147
712.941020,0.135292
713.246720,0.135968
713.552380,0.138540
713.858000,0.133622
714.163580,0.133386
714.469120,0.135209
714.774620,0.135413
715.080080,0.134276
715.385500,0.135092
715.690880,0.130966
715.996220,0.135499
716.301520,0.134783
716.606780,0.140723
716.912000,0.134491
717.217180,0.135674
717.522320,0.133598
717.827420,0.134662
718.132480,0.135688
718.437500,0.134937
718.742480,0.136694
719.047420,0.132686
719.352320,0.136571
719.657180,0.132870
719.962000,0.134822
720.266780,0.136269
720.571520,0.132560
720.876220,0.132570
721.180880,0.132943
721.485500,0.134977
721.790080,0.139703
722.094620,0.137221
722.399120,0.134856
722.703580,0.132019
723.008000,0.132385
723.312380,0.136892
723.616720,0.132172
723.921020,0.135990
724.225280,0.134817
724.529500,0.134413
724.833680,0.139235
725.137820,0.137004
725.441920,0.134641
725.745980,0.133333
726.050000,0.135318
726.353980,0.131591
726.657920,0.127305
726.961820,0.129680
727.265680,0.134535
727.569500,0.131170
727.873280,0.128406
728.177020,0.128512
728.480720,0.131944
728.784380,0.135275
729.088000,0.132831
729.391580,0.133112
729.695120,0.132438
729.998620,0.134799
730.302080,0.131667
730.605500,0.134886
730.908880,0.130818
731.212220,0.128306
731.515520,0.132618
731.818780,0.135437
732.122000,0.129921
732.425180,0.133070
732.728320,0.134854
733.031420,0.128321
733.334480,0.131633
733.637500,0.132056
733.940480,0.132549
734.243420,0.133028
734.546320,0.132780
734.849180,0.129649
735.152000,0.132261
735.454780,0.128099
735.757520,0.129610
736.060220,0.127962
736.362880,0.130252
736.665500,0.130026
736.968080,0.131112
737.270620,0.133370
737.573120,0.128821
737.875580,0.131941
738.178000,0.131192
738.480380,0.128649
738.782720,0.130316
739.085020,0.132159
739.387280,0.134701
739.689500,0.126274
739.991680,0.125211
740.293820,0.133223
740.595920,0.132443
740.897980,0.131564
741.200000,0.135726
741.501980,0.131232
741.803920,0.132883
742.105820,0.128596
742.407680,0.136284
742.709500,0.127273
743.011280,0.132474
743.313020,0.137971
743.614720,0.121300
743.916380,0.130814
744.218000,0.136635
744.519580,0.134058
744.821120,0.132934
745.122620,0.133014
745.424080,0.128005
745.725500,0.127339
746.026880,0.131158
746.328220,0.127620
746.629520,0.128838
746.930780,0.131740
747.232000,0.132434
747.533180,0.129347
747.834320,0.133293
748.135420,0.133002
748.436480,0.139738
748.737500,0.132798
749.038480,0.133170
749.339420,0.134412
749.640320,0.132621
749.941180,0.134291
750.242000,0.122487
750.542780,0.130273
750.843520,0.135170
751.144220,0.125641
751.444880,0.133164
751.745500,0.127273
752.046080,0.130212
752.346620,0.125000
752.647120,0.133899
752.947580,0.130660
753.248000,0.129594
753.548380,0.128822
753.848720,0.126851
754.149020,0.121857
754.449280,0.131976
754.749500,0.130060
755.049680,0.123333
755.349820,0.126751
755.649920,0.134171
755.949980,0.129396
756.250000,0.126233
756.549980,0.124752
756.849920,0.133243
757.149820,0.127079
757.449680,0.132013
757.749500,0.131561
758.049280,0.130375
758.349020,0.121697
758.648720,0.133885
758.948380,0.127148
759.248000,0.128706
759.547580,0.128447
759.847120,0.120606
760.146620,0.127199
760.446080,0.128360
760.745500,0.124476
761.044880,0.129972
761.344220,0.126871
761.643520,0.130650
761.942780,0.129461
762.242000,0.131542
762.541180,0.126761
762.840320,0.125702
763.139420,0.128692
763.438480,0.128503
763.737500,0.126120
764.036480,0.128581
764.335420,0.128440
764.634320,0.128898
764.933180,0.127397
765.232000,0.126995
765.530780,0.125614
765.829520,0.134965
766.128220,0.132220
766.426880,0.130775
766.725500,0.130226
767.024080,0.122085
767.322620,0.121024
767.621120,0.119241
767.919580,0.126280
768.218000,0.129959
768.516380,0.126437
768.814720,0.120713
769.113020,0.130255
769.411280,0.130525
769.709500,0.119080
770.007680,0.127471
770.305820,0.131846
770.603920,0.121968
770.901980,0.125683
771.200000,0.129076
771.497980,0.126676
771.795920,0.124415
772.093820,0.126337
772.391680,0.126566
772.689500,0.126351
772.987280,0.131313
773.285020,0.134655
773.582720,0.126351
773.880380,0.120110
774.178000,0.124063
774.475580,0.123242
774.773120,0.125167
775.070620,0.129817
775.368080,0.130261
775.665500,0.125588
775.962880,0.125417
776.260220,0.126514
776.557520,0.121414
776.854780,0.121028
777.152000,0.121353
777.449180,0.126096
777.746320,0.118280
778.043420,0.130286
778.340480,0.129229
778.637500,0.131170
778.934480,0.129119
779.231420,0.122117
779.528320,0.120240
779.825180,0.120553
780.122000,0.126162
780.418780,0.132011
780.715520,0.123407
781.012220,0.127397
781.308880,0.126437
781.605500,0.126712
781.902080,0.123203
782.198620,0.131237
782.495120,0.128258
782.791580,0.126547
783.088000,0.126294
783.384380,0.132050
783.680720,0.130643
783.977020,0.134205
784.273280,0.125175
784.569500,0.120196
784.865680,0.123783
785.161820,0.125694
785.457920,0.127512
785.753980,0.125611
786.050000,0.123619
786.345980,0.125694
786.641920,0.123525
786.937820,0.133903
787.233680,0.123173
787.529500,0.122053
787.825280,0.124646
788.121020,0.123229
788.416720,0.131263
788.712380,0.128350
789.008000,0.122521
789.303580,0.122261
789.599120,0.124364
789.894620,0.123466
790.190080,0.118927
790.485500,0.121670
790.780880,0.127599
791.076220,0.124098
791.371520,0.122004
791.666780,0.130182
791.962000,0.122704
792.257180,0.126647
792.552320,0.123278
792.847420,0.128093
793.142480,0.126740
793.437500,0.119392
793.732480,0.127286
794.027420,0.121662
794.322320,0.128262
794.617180,0.127786
794.912000,0.126300
795.206780,0.129008
795.501520,0.129278
795.796220,0.119259
796.090880,0.122080
796.385500,0.125937
796.680080,0.118923
796.974620,0.133982
797.269120,0.121120
797.563580,0.129008
797.858000,0.125285
798.152380,0.125290
798.446720,0.126923
798.741020,0.120955
799.035280,0.128106
799.329500,0.133179
799.623680,0.124031
