399.985280,0.094595
400.329500,0.135135
400.673680,0.113924
401.017820,0.161765
401.361920,0.015152
401.705980,0.097561
402.050000,0.168831
402.393980,0.176471
402.737920,0.157303
403.081820,0.134021
403.425680,0.186047
403.769500,0.135417
404.113280,0.149425
404.457020,0.179775
404.800720,0.086957
405.144380,0.141414
405.488000,0.107527
405.831580,0.185567
406.175120,0.127660
406.518620,0.180000
406.862080,0.175258
407.205500,0.156250
407.548880,0.153061
407.892220,0.156863
408.235520,0.138298
408.578780,0.190476
408.922000,0.153846
409.265180,0.191919
409.608320,0.151515
409.951420,0.195876
410.294480,0.235294
410.637500,0.250000
410.980480,0.196078
411.323420,0.132653
411.666320,0.174312
412.009180,0.218182
412.352000,0.128713
412.694780,0.174312
413.037520,0.119266
413.380220,0.180180
413.722880,0.187500
414.065500,0.207207
414.408080,0.123894
414.750620,0.185841
415.093120,0.148760
415.435580,0.210084
415.778000,0.212121
416.120380,0.210084
416.462720,0.182540
416.805020,0.157895
417.147280,0.201493
417.489500,0.164286
417.831680,0.205479
418.173820,0.141844
418.515920,0.174825
418.857980,0.151899
419.200000,0.153846
419.541980,0.183432
419.883920,0.168539
420.225820,0.167630
420.567680,0.139665
420.909500,0.180328
421.251280,0.203125
421.593020,0.168367
421.934720,0.161616
422.276380,0.174359
422.618000,0.191176
422.959580,0.171569
423.301120,0.164384
423.642620,0.152174
423.984080,0.153488
424.325500,0.170404
424.666880,0.163793
425.008220,0.163866
425.349520,0.169492
425.690780,0.173077
426.032000,0.172549
426.373180,0.136929
426.714320,0.156250
427.055420,0.150579
427.396480,0.179775
427.737500,0.146245
428.078480,0.154150
428.419420,0.172691
428.760320,0.157088
429.101180,0.173228
429.442000,0.157088
429.782780,0.157692
430.123520,0.168627
430.464220,0.188192
430.804880,0.183908
431.145500,0.156364
431.486080,0.172285
431.826620,0.158915
432.167120,0.139706
432.507580,0.170290
432.848000,0.169065
433.188380,0.158845
433.528720,0.173585
433.869020,0.157143
434.209280,0.161404
434.549500,0.191638
434.889680,0.168350
435.229820,0.156997
435.569920,0.169550
435.909980,0.177994
436.250000,0.172881
436.589980,0.157895
436.929920,0.171429
437.269820,0.159875
437.609680,0.180473
437.949500,0.159639
438.289280,0.152975
438.629020,0.186047
438.968720,0.171512
439.308380,0.146341
439.648000,0.156164
439.987580,0.166667
440.327120,0.160000
440.666620,0.171429
441.006080,0.158568
441.345500,0.164619
441.684880,0.153110
442.024220,0.151365
442.363520,0.161905
442.702780,0.163636
443.042000,0.158590
443.381180,0.168103
443.720320,0.177106
444.059420,0.157563
444.398480,0.152720
444.737500,0.168033
445.076480,0.160714
445.415420,0.153693
445.754320,0.151767
446.093180,0.163303
446.432000,0.142857
446.770780,0.146110
447.109520,0.170956
447.448220,0.164580
447.786880,0.159213
448.125500,0.160345
448.464080,0.158929
448.802620,0.163121
449.141120,0.166090
449.479580,0.166084
449.818000,0.177281
450.156380,0.153846
450.494720,0.157025
450.833020,0.153846
451.171280,0.160959
451.509500,0.162021
451.847680,0.155143
452.185820,0.160069
452.523920,0.164948
452.861980,0.163575
453.200000,0.164452
453.537980,0.156303
453.875920,0.164706
454.213820,0.166096
454.551680,0.158940
454.889500,0.155143
455.227280,0.154804
455.565020,0.170854
455.902720,0.164725
456.240380,0.146423
456.578000,0.160279
456.915580,0.165803
457.253120,0.164474
457.590620,0.154351
457.928080,0.166667
458.265500,0.165541
458.602880,0.160714
458.940220,0.157360
459.277520,0.155200
459.614780,0.158756
459.952000,0.170807
460.289180,0.162975
460.626320,0.148031
460.963420,0.151858
461.300480,0.155963
461.637500,0.140216
461.974480,0.169725
462.311420,0.159463
462.648320,0.156662
462.985180,0.159254
463.322000,0.160714
463.658780,0.145028
463.995520,0.143054
464.332220,0.145429
464.668880,0.155914
465.005500,0.164879
465.342080,0.165173
465.678620,0.159902
466.015120,0.153946
466.351580,0.159292
466.688000,0.161998
467.024380,0.156744
467.360720,0.146591
467.697020,0.154897
468.033280,0.161111
468.369500,0.157837
468.705680,0.151071
469.041820,0.158333
469.377920,0.155098
469.713980,0.153450
470.050000,0.155556
470.385980,0.155577
470.721920,0.159647
471.057820,0.153021
471.393680,0.158092
471.729500,0.149212
472.065280,0.152952
472.401020,0.150709
472.736720,0.153578
473.072380,0.159785
473.408000,0.150566
473.743580,0.146194
474.079120,0.157623
474.414620,0.154368
474.750080,0.147274
475.085500,0.149671
475.420880,0.149875
475.756220,0.148814
476.091520,0.153453
476.426780,0.148058
476.762000,0.150442
477.097180,0.155200
477.432320,0.150242
477.767420,0.150327
478.102480,0.146457
478.437500,0.149425
478.772480,0.142632
479.107420,0.148902
479.442320,0.155875
479.777180,0.151154
480.112000,0.149461
480.446780,0.147311
480.781520,0.145733
481.116220,0.148747
481.450880,0.149102
481.785500,0.147152
482.120080,0.155956
482.454620,0.153846
482.789120,0.148089
483.123580,0.149533
483.458000,0.150316
483.792380,0.147764
484.126720,0.145946
484.461020,0.145980
484.795280,0.145721
485.129500,0.153546
485.463680,0.144186
485.797820,0.153966
486.131920,0.147666
486.465980,0.149035
486.800000,0.150382
487.133980,0.148792
487.467920,0.149197
487.801820,0.151030
488.135680,0.157695
488.469500,0.143722
488.803280,0.146360
489.137020,0.149451
489.470720,0.144659
489.804380,0.153675
490.138000,0.151335
490.471580,0.147384
490.805120,0.140100
491.138620,0.143568
491.472080,0.152650
491.805500,0.152720
492.138880,0.150104
492.472220,0.149481
492.805520,0.145251
493.138780,0.155755
493.472000,0.147157
493.805180,0.154161
494.138320,0.148099
494.471420,0.139974
494.804480,0.146184
495.137500,0.147625
495.470480,0.154238
495.803420,0.142947
496.136320,0.150376
496.469180,0.144874
496.802000,0.148533
497.134780,0.147968
497.467520,0.150459
497.800220,0.147406
498.132880,0.152263
498.465500,0.144264
498.798080,0.143265
499.130620,0.154969
499.463120,0.147108
499.795580,0.145215
500.128000,0.148229
500.460380,0.144779
500.792720,0.140509
501.125020,0.146085
501.457280,0.139948
501.789500,0.147727
502.121680,0.152411
502.453820,0.145844
502.785920,0.145573
503.117980,0.145731
503.450000,0.150176
503.781980,0.146487
504.113920,0.139877
504.445820,0.143899
504.777680,0.144471
505.109500,0.141827
505.441280,0.147228
505.773020,0.145608
506.104720,0.144607
506.436380,0.146711
506.768000,0.141254
507.099580,0.142792
507.431120,0.148009
507.762620,0.139568
508.094080,0.143573
508.425500,0.141923
508.756880,0.142204
509.088220,0.145354
509.419520,0.142458
509.750780,0.144330
510.082000,0.144590
510.413180,0.146016
510.744320,0.139439
511.075420,0.144363
511.406480,0.143394
511.737500,0.144907
512.068480,0.145207
512.399420,0.141784
512.730320,0.136721
513.061180,0.138915
513.392000,0.148131
513.722780,0.143612
514.053520,0.139914
514.384220,0.141770
514.714880,0.138344
515.045500,0.136494
515.376080,0.140436
515.706620,0.145641
516.037120,0.143627
516.367580,0.143420
516.698000,0.134314
517.028380,0.139523
517.358720,0.139259
517.689020,0.143917
518.019280,0.143502
518.349500,0.142423
518.679680,0.141848
519.009820,0.138664
519.339920,0.143788
519.669980,0.140633
520.000000,0.139582
520.329980,0.139969
520.659920,0.138548
520.989820,0.136739
521.319680,0.141461
521.649500,0.139846
521.979280,0.137787
522.309020,0.137448
522.638720,0.137225
522.968380,0.143226
523.298000,0.138831
523.627580,0.138645
523.957120,0.142857
524.286620,0.142783
524.616080,0.142709
524.945500,0.137984
525.274880,0.143663
525.604220,0.138716
525.933520,0.136792
526.262780,0.133300
526.592000,0.142060
526.921180,0.140173
527.250320,0.139523
527.579420,0.144012
527.908480,0.139340
528.237500,0.138530
528.566480,0.139222
528.895420,0.138985
529.224320,0.144131
529.553180,0.137349
529.882000,0.142092
530.210780,0.139961
530.539520,0.142857
530.868220,0.140737
531.196880,0.142379
531.525500,0.138499
531.854080,0.139775
532.182620,0.141523
532.511120,0.140603
532.839580,0.140653
533.168000,0.138560
533.496380,0.138813
533.824720,0.135935
534.153020,0.140437
534.481280,0.141410
534.809500,0.141161
535.137680,0.135417
535.465820,0.137027
535.793920,0.140440
536.121980,0.136383
536.450000,0.139958
536.777980,0.142438
537.105920,0.142798
537.433820,0.141571
537.761680,0.143265
538.089500,0.143262
538.417280,0.139276
538.745020,0.143423
539.072720,0.138227
539.400380,0.141803
539.728000,0.138815
540.055580,0.137079
540.383120,0.139985
540.710620,0.140997
541.038080,0.138694
541.365500,0.136029
541.692880,0.139172
542.020220,0.139259
542.347520,0.139268
542.674780,0.134792
543.002000,0.137159
543.329180,0.141705
543.656320,0.139592
543.983420,0.135043
544.310480,0.137615
544.637500,0.139543
544.964480,0.140310
545.291420,0.141575
545.618320,0.141102
545.945180,0.135465
546.272000,0.134666
546.598780,0.137660
546.925520,0.136169
547.252220,0.137669
547.578880,0.137504
547.905500,0.139869
548.232080,0.137102
548.558620,0.136023
548.885120,0.141969
549.211580,0.137255
549.538000,0.137808
549.864380,0.132476
550.190720,0.138844
550.517020,0.138201
550.843280,0.141368
551.169500,0.134542
551.495680,0.135677
551.821820,0.138472
552.147920,0.136630
552.473980,0.138294
552.800000,0.136364
553.125980,0.139489
553.451920,0.138354
553.777820,0.137908
554.103680,0.135490
554.429500,0.134918
554.755280,0.137183
555.081020,0.134024
555.406720,0.136133
555.732380,0.131142
556.058000,0.138153
556.383580,0.136939
556.709120,0.136458
557.034620,0.140200
557.360080,0.134715
557.685500,0.134163
558.010880,0.132409
558.336220,0.131810
558.661520,0.135767
558.986780,0.136074
559.312000,0.139957
559.637180,0.133573
559.962320,0.135635
560.287420,0.135755
560.612480,0.131324
560.937500,0.138032
561.262480,0.136730
561.587420,0.135292
561.912320,0.135593
562.237180,0.137306
562.562000,0.137299
562.886780,0.135266
563.211520,0.131520
563.536220,0.132096
563.860880,0.135043
564.185500,0.132083
564.510080,0.132054
564.834620,0.136211
565.159120,0.136466
565.483580,0.133409
565.808000,0.133182
566.132380,0.135397
566.456720,0.136054
566.781020,0.130908
567.105280,0.133837
567.429500,0.133915
567.753680,0.135788
568.077820,0.133746
568.401920,0.132544
568.725980,0.136622
569.050000,0.139544
569.373980,0.131329
569.697920,0.131210
570.021820,0.131461
570.345680,0.132415
570.669500,0.135826
570.993280,0.132152
571.317020,0.132627
571.640720,0.135606
571.964380,0.133630
572.288000,0.135757
572.611580,0.131411
572.935120,0.134680
573.258620,0.132760
573.582080,0.131148
573.905500,0.131050
574.228880,0.131032
574.552220,0.135214
574.875520,0.137751
575.198780,0.130828
575.522000,0.131965
575.845180,0.131447
576.168320,0.134747
576.491420,0.134448
576.814480,0.134901
577.137500,0.133838
577.460480,0.134831
577.783420,0.131833
578.106320,0.134972
578.429180,0.134677
578.752000,0.133727
579.074780,0.133850
579.397520,0.131052
579.720220,0.134170
580.042880,0.135117
580.365500,0.136334
580.688080,0.134668
581.010620,0.132298
581.333120,0.133267
581.655580,0.134865
581.978000,0.133023
582.300380,0.132425
582.622720,0.134476
582.945020,0.128414
583.267280,0.129599
583.589500,0.133226
583.911680,0.134646
584.233820,0.129053
584.555920,0.134258
584.877980,0.132852
585.200000,0.130755
585.521980,0.130985
585.843920,0.131788
586.165820,0.131018
586.487680,0.131809
586.809500,0.132013
587.131280,0.130731
587.453020,0.135417
587.774720,0.136606
588.096380,0.134189
588.418000,0.136962
588.739580,0.134234
589.061120,0.133410
589.382620,0.134957
589.704080,0.132679
590.025500,0.133276
590.346880,0.129005
590.668220,0.131896
590.989520,0.133943
591.310780,0.131455
591.632000,0.133333
591.953180,0.134791
592.274320,0.133224
592.595420,0.125808
592.916480,0.131758
593.237500,0.136082
593.558480,0.131289
593.879420,0.132722
594.200320,0.135012
594.521180,0.132005
594.842000,0.134336
595.162780,0.132479
595.483520,0.134007
595.804220,0.130505
596.124880,0.137224
596.445500,0.132041
596.766080,0.135789
597.086620,0.135085
597.407120,0.128489
597.727580,0.132326
598.048000,0.131711
598.368380,0.130984
598.688720,0.134207
599.009020,0.132962
599.329280,0.133848
599.649500,0.130745
599.969680,0.131410
600.289820,0.132212
600.609920,0.131980
600.929980,0.130412
601.250000,0.128649
601.569980,0.128274
601.889920,0.128308
602.209820,0.132576
602.529680,0.132656
602.849500,0.127932
603.169280,0.127308
603.489020,0.132023
603.808720,0.130554
604.128380,0.129139
604.448000,0.129282
604.767580,0.130168
605.087120,0.129363
605.406620,0.130143
605.726080,0.133162
606.045500,0.127055
606.364880,0.126453
606.684220,0.132210
607.003520,0.130161
607.322780,0.126208
607.642000,0.131246
607.961180,0.128072
608.280320,0.126160
608.599420,0.128911
608.918480,0.127566
609.237500,0.127934
609.556480,0.128736
609.875420,0.128766
610.194320,0.129318
610.513180,0.131104
610.832000,0.127755
611.150780,0.128868
611.469520,0.127602
611.788220,0.127872
612.106880,0.129373
612.425500,0.127284
612.744080,0.129271
613.062620,0.127217
613.381120,0.128275
613.699580,0.131821
614.018000,0.130221
614.336380,0.130167
614.654720,0.126202
614.973020,0.129590
615.291280,0.129842
615.609500,0.133122
615.927680,0.126391
616.245820,0.128942
616.563920,0.127759
616.881980,0.129093
617.200000,0.130949
617.517980,0.127878
617.835920,0.126747
618.153820,0.129313
618.471680,0.128992
618.789500,0.128383
619.107280,0.128638
619.425020,0.130352
619.742720,0.125235
620.060380,0.125353
620.378000,0.128697
620.695580,0.130268
621.013120,0.125354
621.330620,0.126451
621.648080,0.129022
621.965500,0.127980
622.282880,0.125158
622.600220,0.126974
622.917520,0.126969
623.234780,0.129540
623.552000,0.126671
623.869180,0.125118
624.186320,0.127666
624.503420,0.128527
624.820480,0.129123
625.137500,0.129460
625.454480,0.130041
625.771420,0.127995
626.088320,0.127364
626.405180,0.130056
626.722000,0.124843
627.038780,0.130952
627.355520,0.130938
627.672220,0.128771
627.988880,0.123484
628.305500,0.127454
628.622080,0.124535
628.938620,0.128746
629.255120,0.126011
629.571580,0.130555
629.888000,0.129488
630.204380,0.126112
630.520720,0.127971
630.837020,0.128276
631.153280,0.124700
631.469500,0.126137
631.785680,0.126884
632.101820,0.124849
632.417920,0.123696
632.733980,0.122149
633.050000,0.126440
633.365980,0.126852
633.681920,0.129773
633.997820,0.126420
634.313680,0.131230
634.629500,0.126511
634.945280,0.126393
635.261020,0.127091
635.576720,0.126835
635.892380,0.124020
636.208000,0.124637
636.523580,0.126279
636.839120,0.126520
637.154620,0.125797
637.470080,0.123960
637.785500,0.128077
638.100880,0.127425
638.416220,0.125683
638.731520,0.123496
639.046780,0.129042
639.362000,0.124427
639.677180,0.128498
639.992320,0.128277
640.307420,0.125597
640.622480,0.129376
640.937500,0.125381
641.252480,0.125384
641.567420,0.123615
641.882320,0.128062
642.197180,0.128860
642.512000,0.123706
642.826780,0.127046
643.141520,0.127535
643.456220,0.125899
643.770880,0.126313
644.085500,0.124092
644.400080,0.127809
644.714620,0.125418
645.029120,0.124312
645.343580,0.122052
645.658000,0.123508
645.972380,0.127432
646.286720,0.125102
646.601020,0.126764
646.915280,0.127502
647.229500,0.127473
647.543680,0.127589
647.857820,0.124690
648.171920,0.125882
648.485980,0.122499
648.800000,0.126481
649.113980,0.126109
649.427920,0.125381
649.741820,0.124760
650.055680,0.125069
650.369500,0.126121
650.683280,0.125139
650.997020,0.125963
651.310720,0.123005
651.624380,0.119780
651.938000,0.122438
652.251580,0.123295
652.565120,0.120179
652.878620,0.125845
653.192080,0.123315
653.505500,0.120337
653.818880,0.123969
654.132220,0.125036
654.445520,0.121668
654.758780,0.126346
655.072000,0.124928
655.385180,0.121255
655.698320,0.123464
656.011420,0.120665
656.324480,0.123871
656.637500,0.120800
656.950480,0.125661
657.263420,0.123263
657.576320,0.121257
657.889180,0.124447
658.202000,0.122585
658.514780,0.121762
658.827520,0.120348
659.140220,0.124663
659.452880,0.127756
659.765500,0.121915
660.078080,0.122179
660.390620,0.123434
660.703120,0.123434
661.015580,0.122699
661.328000,0.119332
661.640380,0.123952
661.952720,0.123949
662.265020,0.123819
662.577280,0.122455
662.889500,0.122359
663.201680,0.120613
663.513820,0.120939
663.825920,0.122318
664.137980,0.127343
664.450000,0.121803
664.761980,0.121768
665.073920,0.118793
665.385820,0.120419
665.697680,0.121983
666.009500,0.123046
666.321280,0.124254
666.633020,0.119681
666.944720,0.123694
667.256380,0.119448
667.568000,0.122622
667.879580,0.121429
668.191120,0.120536
668.502620,0.120164
668.814080,0.122456
669.125500,0.119056
669.436880,0.123444
669.748220,0.123918
670.059520,0.123599
670.370780,0.121086
670.682000,0.123186
670.993180,0.121564
671.304320,0.117440
671.615420,0.119673
671.926480,0.123137
672.237500,0.117899
672.548480,0.117104
672.859420,0.119371
673.170320,0.117882
673.481180,0.119841
673.792000,0.118644
674.102780,0.118133
674.413520,0.118119
674.724220,0.121234
675.034880,0.121746
675.345500,0.119256
675.656080,0.121597
675.966620,0.116406
676.277120,0.118638
676.587580,0.124448
676.898000,0.120194
677.208380,0.119409
677.518720,0.119985
677.829020,0.123429
678.139280,0.121572
678.449500,0.120312
678.759680,0.123267
679.069820,0.118959
679.379920,0.119200
679.689980,0.119941
680.000000,0.118131
680.309980,0.121010
680.619920,0.121166
680.929820,0.118328
681.239680,0.116691
681.549500,0.118148
681.859280,0.115011
682.169020,0.118612
682.478720,0.124159
682.788380,0.114433
683.098000,0.119671
683.407580,0.121201
683.717120,0.119745
684.026620,0.121988
684.336080,0.124290
684.645500,0.118967
684.954880,0.114847
685.264220,0.121178
685.573520,0.124477
685.882780,0.119294
686.192000,0.117381
686.501180,0.118426
686.810320,0.121445
687.119420,0.117066
687.428480,0.115458
687.737500,0.122794
688.046480,0.120399
688.355420,0.118823
688.664320,0.118592
688.973180,0.115620
689.282000,0.121914
689.590780,0.121166
689.899520,0.115458
690.208220,0.120031
690.516880,0.115693
690.825500,0.119245
691.134080,0.120349
691.442620,0.120046
691.751120,0.119833
692.059580,0.121131
692.368000,0.117758
692.676380,0.116794
692.984720,0.116412
693.293020,0.118921
693.601280,0.117512
693.909500,0.118426
694.217680,0.118050
694.525820,0.120716
694.833920,0.115605
695.141980,0.119167
695.450000,0.118702
695.757980,0.118029
696.065920,0.119223
696.373820,0.113934
696.681680,0.117376
696.989500,0.118487
697.297280,0.117075
697.605020,0.117063
697.912720,0.117602
698.220380,0.118064
698.528000,0.121440
698.835580,0.120111
699.143120,0.116913
699.450620,0.120127
699.758080,0.115294
700.065500,0.120112
700.372880,0.118800
700.680220,0.115277
700.987520,0.117460
701.294780,0.117194
701.602000,0.116878
701.909180,0.120827
702.216320,0.117716
702.523420,0.116022
702.830480,0.118020
703.137500,0.120421
703.444480,0.119527
703.751420,0.114793
704.058320,0.117135
704.365180,0.119874
704.672000,0.116436
704.978780,0.113149
705.285520,0.116588
705.592220,0.119608
705.898880,0.117415
706.205500,0.118153
706.512080,0.118483
706.818620,0.117647
707.125120,0.119231
707.431580,0.120750
707.738000,0.118359
708.044380,0.114242
708.350720,0.113489
708.657020,0.116843
708.963280,0.116460
709.269500,0.114677
709.575680,0.118271
709.881820,0.114780
710.187920,0.118677
710.493980,0.113654
710.800000,0.118230
711.105980,0.117093
711.411920,0.115491
711.717820,0.115789
712.023680,0.113098
712.329500,0.117902
712.635280,0.118605
712.941020,0.119830
713.246720,0.116601
713.552380,0.114207
713.858000,0.117462
714.163580,0.115627
714.469120,0.115670
714.774620,0.115278
715.080080,0.115037
715.385500,0.114309
715.690880,0.115582
715.996220,0.114501
716.301520,0.116206
716.606780,0.113601
716.912000,0.113893
717.217180,0.118117
717.522320,0.114911
717.827420,0.116762
718.132480,0.116821
718.437500,0.111292
718.742480,0.115323
719.047420,0.116505
719.352320,0.116646
719.657180,0.118152
719.962000,0.116212
720.266780,0.116327
720.571520,0.117647
720.876220,0.114157
721.180880,0.114548
721.485500,0.119515
721.790080,0.115074
722.094620,0.115780
722.399120,0.117191
722.703580,0.114445
723.008000,0.110392
723.312380,0.117090
723.616720,0.112197
723.921020,0.115201
724.225280,0.113002
724.529500,0.116462
724.833680,0.120996
725.137820,0.113216
725.441920,0.112350
725.745980,0.117226
726.050000,0.113667
726.353980,0.110861
726.657920,0.114710
726.961820,0.113699
727.265680,0.116967
727.569500,0.110603
727.873280,0.113626
728.177020,0.115615
728.480720,0.114815
728.784380,0.119775
729.088000,0.111634
729.391580,0.112269
729.695120,0.117083
729.998620,0.114723
730.302080,0.116290
730.605500,0.109656
730.908880,0.112690
731.212220,0.114594
731.515520,0.115066
731.818780,0.114563
732.122000,0.116142
732.425180,0.111878
732.728320,0.113535
733.031420,0.114286
733.334480,0.113265
733.637500,0.108871
733.940480,0.113613
734.243420,0.115698
734.546320,0.114627
734.849180,0.113636
735.152000,0.112033
735.454780,0.111570
735.757520,0.115385
736.060220,0.114271
736.362880,0.115546
736.665500,0.114883
736.968080,0.114455
737.270620,0.116494
737.573120,0.112991
737.875580,0.118747
738.178000,0.113228
738.480380,0.108649
738.782720,0.113413
739.085020,0.108480
739.387280,0.112528
739.689500,0.111552
739.991680,0.115665
740.293820,0.113322
740.595920,0.113523
740.897980,0.110672
741.200000,0.113292
741.501980,0.118625
741.803920,0.113176
742.105820,0.111675
742.407680,0.111241
742.709500,0.111364
743.011280,0.110199
743.313020,0.111884
743.614720,0.114916
743.916380,0.109302
744.218000,0.116945
744.519580,0.112923
744.821120,0.117365
745.122620,0.113241
745.424080,0.110577
745.725500,0.113458
746.026880,0.110222
746.328220,0.110974
746.629520,0.108368
746.930780,0.111520
747.232000,0.109749
747.533180,0.112264
747.834320,0.111990
748.135420,0.108763
748.436480,0.111666
748.737500,0.113650
749.038480,0.114233
749.339420,0.110765
749.640320,0.113765
749.941180,0.113679
750.242000,0.110553
750.542780,0.109181
750.843520,0.117233
751.144220,0.112179
751.444880,0.119848
751.745500,0.114286
752.046080,0.114817
752.346620,0.105026
752.647120,0.111692
752.947580,0.111902
753.248000,0.105738
753.548380,0.108003
753.848720,0.107534
754.149020,0.106383
754.449280,0.108339
754.749500,0.113470
755.049680,0.108000
755.349820,0.112075
755.649920,0.116325
755.949980,0.112807
756.250000,0.109796
756.549980,0.110231
756.849920,0.116247
757.149820,0.108450
757.449680,0.112871
757.749500,0.114519
758.049280,0.111263
758.349020,0.114047
758.648720,0.113872
758.948380,0.109966
759.248000,0.113881
759.547580,0.109617
759.847120,0.109580
760.146620,0.111637
760.446080,0.108871
760.745500,0.106993
761.044880,0.110795
761.344220,0.111190
761.643520,0.116525
761.942780,0.111966
762.242000,0.113154
762.541180,0.107042
762.840320,0.105337
763.139420,0.111814
763.438480,0.108681
763.737500,0.110269
764.036480,0.113208
764.335420,0.111503
764.634320,0.109494
764.933180,0.113014
765.232000,0.113116
765.530780,0.107368
765.829520,0.113986
766.128220,0.112735
766.426880,0.110163
766.725500,0.109664
767.024080,0.113169
767.322620,0.107884
767.621120,0.108401
767.919580,0.107850
768.218000,0.103967
768.516380,0.110886
768.814720,0.109739
769.113020,0.105445
769.411280,0.116713
769.709500,0.108254
770.007680,0.101568
770.305820,0.108181
770.603920,0.111186
770.901980,0.114071
771.200000,0.106658
771.497980,0.110590
771.795920,0.107023
772.093820,0.108289
772.391680,0.110086
772.689500,0.110811
772.987280,0.111785
773.285020,0.109364
773.582720,0.111486
773.880380,0.109815
774.178000,0.105658
774.475580,0.110516
774.773120,0.105756
775.070620,0.109533
775.368080,0.111556
775.665500,0.103425
775.962880,0.114076
776.260220,0.113055
776.557520,0.115410
776.854780,0.114943
777.152000,0.105438
777.449180,0.109238
777.746320,0.102151
778.043420,0.107776
778.340480,0.109608
778.637500,0.109533
778.934480,0.110289
779.231420,0.107191
779.528320,0.104208
779.825180,0.110672
780.122000,0.106242
780.418780,0.114227
780.715520,0.112676
781.012220,0.117123
781.308880,0.111562
781.605500,0.108219
781.902080,0.111567
782.198620,0.111415
782.495120,0.111111
782.791580,0.107290
783.088000,0.106280
783.384380,0.107978
783.680720,0.110807
783.977020,0.110117
784.273280,0.113287
784.569500,0.111810
784.865680,0.114047
785.161820,0.105556
785.457920,0.105336
785.753980,0.107467
786.050000,0.111878
786.345980,0.110417
786.641920,0.113810
786.937820,0.111823
787.233680,0.105080
787.529500,0.106103
787.825280,0.111898
788.121020,0.105524
788.416720,0.109386
788.712380,0.109309
789.008000,0.109065
789.303580,0.103180
789.599120,0.113455
789.894620,0.109747
790.190080,0.102973
790.485500,0.106551
790.780880,0.106810
791.076220,0.105339
791.371520,0.110385
791.666780,0.113455
791.962000,0.101396
792.257180,0.106881
792.552320,0.113125
792.847420,0.111354
793.142480,0.112088
793.437500,0.107091
793.732480,0.113387
794.027420,0.101632
794.322320,0.109620
794.617180,0.106984
794.912000,0.105498
795.206780,0.103654
795.501520,0.104943
795.796220,0.100741
796.090880,0.111530
796.385500,0.105697
796.680080,0.106208
796.974620,0.112275
797.269120,0.107494
797.563580,0.107634
797.858000,0.102506
798.152380,0.107502
798.446720,0.105385
798.741020,0.110169
799.035280,0.107919
799.329500,0.110855
799.623680,0.103876
