399.985280,0.094595
400.329500,0.094595
400.673680,0.088608
401.017820,0.132353
401.361920,0.045455
401.705980,0.146341
402.050000,0.051948
402.393980,0.058824
402.737920,0.134831
403.081820,0.185567
403.425680,0.186047
403.769500,0.104167
404.113280,0.080460
404.457020,0.191011
404.800720,0.097826
405.144380,0.171717
405.488000,0.150538
405.831580,0.123711
406.175120,0.138298
406.518620,0.160000
406.862080,0.154639
407.205500,0.083333
407.548880,0.102041
407.892220,0.078431
408.235520,0.170213
408.578780,0.161905
408.922000,0.076923
409.265180,0.191919
409.608320,0.101010
409.951420,0.144330
410.294480,0.156863
410.637500,0.152174
410.980480,0.176471
411.323420,0.142857
411.666320,0.165138
412.009180,0.145455
412.352000,0.099010
412.694780,0.146789
413.037520,0.146789
413.380220,0.126126
413.722880,0.160714
414.065500,0.153153
414.408080,0.106195
414.750620,0.106195
415.093120,0.157025
415.435580,0.126050
415.778000,0.121212
416.120380,0.092437
416.462720,0.119048
416.805020,0.165414
417.147280,0.141791
417.489500,0.107143
417.831680,0.095890
418.173820,0.127660
418.515920,0.146853
418.857980,0.139241
419.200000,0.153846
419.541980,0.153846
419.883920,0.146067
420.225820,0.115607
420.567680,0.139665
420.909500,0.196721
421.251280,0.145833
421.593020,0.132653
421.934720,0.131313
422.276380,0.153846
422.618000,0.147059
422.959580,0.137255
423.301120,0.146119
423.642620,0.121739
423.984080,0.120930
424.325500,0.121076
424.666880,0.150862
425.008220,0.130252
425.349520,0.122881
425.690780,0.119231
426.032000,0.105882
426.373180,0.149378
426.714320,0.132812
427.055420,0.131274
427.396480,0.149813
427.737500,0.130435
428.078480,0.130435
428.419420,0.132530
428.760320,0.137931
429.101180,0.149606
429.442000,0.126437
429.782780,0.130769
430.123520,0.129412
430.464220,0.143911
430.804880,0.145594
431.145500,0.123636
431.486080,0.146067
431.826620,0.143411
432.167120,0.128676
432.507580,0.148551
432.848000,0.129496
433.188380,0.155235
433.528720,0.132075
433.869020,0.142857
434.209280,0.136842
434.549500,0.139373
434.889680,0.134680
435.229820,0.126280
435.569920,0.114187
435.909980,0.126214
436.250000,0.142373
436.589980,0.130031
436.929920,0.146032
437.269820,0.128527
437.609680,0.150888
437.949500,0.120482
438.289280,0.130312
438.629020,0.145349
438.968720,0.145349
439.308380,0.130081
439.648000,0.120548
439.987580,0.126984
440.327120,0.136000
440.666620,0.132468
441.006080,0.125320
441.345500,0.127764
441.684880,0.126794
442.024220,0.133995
442.363520,0.121429
442.702780,0.136364
443.042000,0.138767
443.381180,0.135776
443.720320,0.129590
444.059420,0.119748
444.398480,0.123431
444.737500,0.127049
445.076480,0.123016
445.415420,0.135729
445.754320,0.120582
446.093180,0.143119
446.432000,0.137218
446.770780,0.138520
447.109520,0.132353
447.448220,0.135957
447.786880,0.130590
448.125500,0.136207
448.464080,0.133929
448.802620,0.122340
449.141120,0.129758
449.479580,0.124126
449.818000,0.123924
450.156380,0.128763
450.494720,0.135537
450.833020,0.139860
451.171280,0.126712
451.509500,0.135889
451.847680,0.133221
452.185820,0.137694
452.523920,0.137457
452.861980,0.124789
453.200000,0.126246
453.537980,0.117647
453.875920,0.136134
454.213820,0.125000
454.551680,0.129139
454.889500,0.119730
455.227280,0.119217
455.565020,0.134003
455.902720,0.143095
456.240380,0.119800
456.578000,0.128920
456.915580,0.126079
457.253120,0.131579
457.590620,0.129721
457.928080,0.134680
458.265500,0.125000
458.602880,0.121753
458.940220,0.120135
459.277520,0.136000
459.614780,0.130933
459.952000,0.122671
460.289180,0.132911
460.626320,0.122835
460.963420,0.124394
461.300480,0.145260
461.637500,0.124807
461.974480,0.134557
462.311420,0.125186
462.648320,0.115666
462.985180,0.123386
463.322000,0.125000
463.658780,0.122928
463.995520,0.122421
464.332220,0.119114
464.668880,0.123656
465.005500,0.124665
465.342080,0.129321
465.678620,0.125461
466.015120,0.124191
466.351580,0.132743
466.688000,0.132765
467.024380,0.137303
467.360720,0.132955
467.697020,0.118451
468.033280,0.130000
468.369500,0.137969
468.705680,0.130778
469.041820,0.125000
469.377920,0.117137
469.713980,0.121524
470.050000,0.137198
470.385980,0.127202
470.721920,0.131244
471.057820,0.123782
471.393680,0.120674
471.729500,0.110287
472.065280,0.121646
472.401020,0.127660
472.736720,0.130017
473.072380,0.124776
473.408000,0.119234
473.743580,0.114187
474.079120,0.130922
474.414620,0.122986
474.750080,0.117168
475.085500,0.125000
475.420880,0.123231
475.756220,0.134096
476.091520,0.127877
476.426780,0.126214
476.762000,0.122285
477.097180,0.125600
477.432320,0.123586
477.767420,0.117647
478.102480,0.118110
478.437500,0.123974
478.772480,0.128448
479.107420,0.113100
479.442320,0.123901
479.777180,0.126492
480.112000,0.120185
480.446780,0.120031
480.781520,0.119968
481.116220,0.122878
481.450880,0.120999
481.785500,0.130538
482.120080,0.124608
482.454620,0.121989
482.789120,0.125796
483.123580,0.122274
483.458000,0.121835
483.792380,0.122204
484.126720,0.119691
484.461020,0.119438
484.795280,0.122591
485.129500,0.128605
485.463680,0.122481
485.797820,0.125194
486.131920,0.117827
486.465980,0.124324
486.800000,0.122901
487.133980,0.114048
487.467920,0.122418
487.801820,0.125095
488.135680,0.121304
488.469500,0.114977
488.803280,0.116642
489.137020,0.122344
489.470720,0.126113
489.804380,0.118040
490.138000,0.126855
490.471580,0.119381
490.805120,0.121515
491.138620,0.120824
491.472080,0.121555
491.805500,0.119247
492.138880,0.122307
492.472220,0.121799
492.805520,0.122905
493.138780,0.125431
493.472000,0.121739
493.805180,0.122783
494.138320,0.123416
494.471420,0.119141
494.804480,0.119017
495.137500,0.122593
495.470480,0.125558
495.803420,0.122166
496.136320,0.120927
496.469180,0.122775
496.802000,0.125917
497.134780,0.124318
497.467520,0.126606
497.800220,0.127358
498.132880,0.115814
498.465500,0.119930
498.798080,0.124429
499.130620,0.125211
499.463120,0.120719
499.795580,0.123212
500.128000,0.122616
500.460380,0.126480
500.792720,0.117709
501.125020,0.118760
501.457280,0.119060
501.789500,0.116219
502.121680,0.121825
502.453820,0.119837
502.785920,0.120560
503.117980,0.123160
503.450000,0.123054
503.781980,0.122073
504.113920,0.119962
504.445820,0.120564
504.777680,0.116706
505.109500,0.117788
505.441280,0.120937
505.773020,0.118365
506.104720,0.123410
506.436380,0.123994
506.768000,0.122544
507.099580,0.119908
507.431120,0.119906
507.762620,0.117011
508.094080,0.120784
508.425500,0.116246
508.756880,0.116598
509.088220,0.119595
509.419520,0.118250
509.750780,0.122774
510.082000,0.119403
510.413180,0.121142
510.744320,0.121031
511.075420,0.118698
511.406480,0.117066
511.737500,0.116204
512.068480,0.119361
512.399420,0.115493
512.730320,0.116859
513.061180,0.117507
513.392000,0.118315
513.722780,0.121037
514.053520,0.118352
514.384220,0.118934
514.714880,0.117760
515.045500,0.115421
515.376080,0.119613
515.706620,0.113980
516.037120,0.117157
516.367580,0.113849
516.698000,0.115196
517.028380,0.118173
517.358720,0.120988
517.689020,0.123640
518.019280,0.115906
518.349500,0.118094
518.679680,0.116608
519.009820,0.118421
519.339920,0.119739
519.669980,0.114515
520.000000,0.118186
520.329980,0.113530
520.659920,0.116564
520.989820,0.120227
521.319680,0.118827
521.649500,0.116195
521.979280,0.121086
522.309020,0.117739
522.638720,0.115207
522.968380,0.118925
523.298000,0.116910
523.627580,0.114847
523.957120,0.115844
524.286620,0.115685
524.616080,0.119959
524.945500,0.120930
525.274880,0.121601
525.604220,0.120083
525.933520,0.116876
526.262780,0.112519
526.592000,0.117199
526.921180,0.119350
527.250320,0.117199
527.579420,0.116220
527.908480,0.115214
528.237500,0.119662
528.566480,0.113772
528.895420,0.115328
529.224320,0.117385
529.553180,0.118554
529.882000,0.119221
530.210780,0.112934
530.539520,0.116012
530.868220,0.116802
531.196880,0.118012
531.525500,0.118644
531.854080,0.119606
532.182620,0.120037
532.511120,0.116937
532.839580,0.122051
533.168000,0.112124
533.496380,0.115068
533.824720,0.117990
534.153020,0.114579
534.481280,0.118062
534.809500,0.116974
535.137680,0.115017
535.465820,0.115120
535.793920,0.116328
536.121980,0.116240
536.450000,0.116702
536.777980,0.120235
537.105920,0.115816
537.433820,0.116203
537.761680,0.115102
538.089500,0.119790
538.417280,0.116196
538.745020,0.118463
539.072720,0.116361
539.400380,0.114219
539.728000,0.115870
540.055580,0.119476
540.383120,0.117275
540.710620,0.115699
541.038080,0.116931
541.365500,0.114706
541.692880,0.114462
542.020220,0.116949
542.347520,0.119167
542.674780,0.116443
543.002000,0.115815
543.329180,0.116450
543.656320,0.115682
543.983420,0.116581
544.310480,0.117227
544.637500,0.118390
544.964480,0.116083
545.291420,0.112994
545.618320,0.118526
545.945180,0.113711
546.272000,0.111075
546.598780,0.116355
546.925520,0.114078
547.252220,0.112909
547.578880,0.113718
547.905500,0.117320
548.232080,0.114360
548.558620,0.115522
548.885120,0.115146
549.211580,0.113147
549.538000,0.116083
549.864380,0.115113
550.190720,0.115273
550.517020,0.112451
550.843280,0.114658
551.169500,0.112913
551.495680,0.116294
551.821820,0.120183
552.147920,0.115810
552.473980,0.117879
552.800000,0.117397
553.125980,0.113621
553.451920,0.113470
553.777820,0.116256
554.103680,0.114931
554.429500,0.113492
554.755280,0.115487
555.081020,0.111965
555.406720,0.114121
555.732380,0.114199
556.058000,0.114053
556.383580,0.112633
556.709120,0.113370
557.034620,0.115053
557.360080,0.113644
557.685500,0.118257
558.010880,0.112305
558.336220,0.109666
558.661520,0.114498
558.986780,0.110560
559.312000,0.112179
559.637180,0.114542
559.962320,0.112852
560.287420,0.113188
560.612480,0.115536
560.937500,0.113069
561.262480,0.113270
561.587420,0.113892
561.912320,0.116433
562.237180,0.111029
562.562000,0.110363
562.886780,0.112598
563.211520,0.113264
563.536220,0.115028
563.860880,0.109770
564.185500,0.109568
564.510080,0.113995
564.834620,0.114626
565.159120,0.114286
565.483580,0.117066
565.808000,0.109724
566.132380,0.112272
566.456720,0.113379
566.781020,0.109152
567.105280,0.115312
567.429500,0.113050
567.753680,0.115458
568.077820,0.115964
568.401920,0.113827
568.725980,0.111195
569.050000,0.111407
569.373980,0.109631
569.697920,0.119075
570.021820,0.113109
570.345680,0.112132
570.669500,0.114842
570.993280,0.114064
571.317020,0.111436
571.640720,0.113746
571.964380,0.112472
572.288000,0.113501
572.611580,0.111194
572.935120,0.116349
573.258620,0.110322
573.582080,0.112519
573.905500,0.113179
574.228880,0.112101
574.552220,0.112862
574.875520,0.111690
575.198780,0.110228
575.522000,0.115103
575.845180,0.109957
576.168320,0.112469
576.491420,0.113009
576.814480,0.109584
577.137500,0.110750
577.460480,0.111635
577.783420,0.114327
578.106320,0.113248
578.429180,0.112761
578.752000,0.111497
579.074780,0.110924
579.397520,0.110394
579.720220,0.114543
580.042880,0.110671
580.365500,0.116479
580.688080,0.113976
581.010620,0.112724
581.333120,0.111890
581.655580,0.113220
581.978000,0.112737
582.300380,0.109380
582.622720,0.114700
582.945020,0.116060
583.267280,0.111039
583.589500,0.113323
583.911680,0.111464
584.233820,0.110482
584.555920,0.116609
584.877980,0.111809
585.200000,0.115101
585.521980,0.112141
585.843920,0.109823
586.165820,0.111517
586.487680,0.112850
586.809500,0.111911
587.131280,0.108548
587.453020,0.114583
587.774720,0.113247
588.096380,0.112894
588.418000,0.112965
588.739580,0.112676
589.061120,0.111846
589.382620,0.110315
589.704080,0.113604
590.025500,0.112158
590.346880,0.110174
590.668220,0.113414
590.989520,0.110649
591.310780,0.110467
591.632000,0.111475
591.953180,0.109604
592.274320,0.107289
592.595420,0.111530
592.916480,0.110568
593.237500,0.116411
593.558480,0.111649
593.879420,0.112760
594.200320,0.111974
594.521180,0.109429
594.842000,0.114723
595.162780,0.112179
595.483520,0.112736
595.804220,0.111708
596.124880,0.114309
596.445500,0.106890
596.766080,0.111589
597.086620,0.109342
597.407120,0.111374
597.727580,0.113233
598.048000,0.110553
598.368380,0.112572
598.688720,0.111402
599.009020,0.111730
599.329280,0.112560
599.649500,0.108822
599.969680,0.114049
600.289820,0.111378
600.609920,0.106599
600.929980,0.109300
601.250000,0.109730
601.569980,0.111531
601.889920,0.110933
602.209820,0.107955
602.529680,0.109311
602.849500,0.109384
603.169280,0.110499
603.489020,0.107667
603.808720,0.109435
604.128380,0.107616
604.448000,0.110221
604.767580,0.106704
605.087120,0.108864
605.406620,0.112510
605.726080,0.113772
606.045500,0.108944
606.364880,0.109441
606.684220,0.110794
607.003520,0.110378
607.322780,0.110858
607.642000,0.111143
607.961180,0.109858
608.280320,0.110209
608.599420,0.107474
608.918480,0.107038
609.237500,0.109155
609.556480,0.108316
609.875420,0.110455
610.194320,0.109832
610.513180,0.111276
610.832000,0.108100
611.150780,0.107840
611.469520,0.110407
611.788220,0.106106
612.106880,0.109168
612.425500,0.106577
612.744080,0.108957
613.062620,0.108869
613.381120,0.106033
613.699580,0.111588
614.018000,0.111179
614.336380,0.108267
614.654720,0.108217
614.973020,0.105832
615.291280,0.106910
615.609500,0.113154
615.927680,0.108467
616.245820,0.105442
616.563920,0.110351
616.881980,0.111007
617.200000,0.106065
617.517980,0.107965
617.835920,0.109040
618.153820,0.106310
618.471680,0.106357
618.789500,0.106986
619.107280,0.107668
619.425020,0.109737
619.742720,0.108600
620.060380,0.104983
620.378000,0.106986
620.695580,0.108876
621.013120,0.110236
621.330620,0.108252
621.648080,0.111041
621.965500,0.107277
622.282880,0.107188
622.600220,0.106443
622.917520,0.105230
623.234780,0.112825
623.552000,0.109803
623.869180,0.108415
624.186320,0.109201
624.503420,0.107837
624.820480,0.108388
625.137500,0.107673
625.454480,0.106283
625.771420,0.107188
626.088320,0.108134
626.405180,0.105476
626.722000,0.108218
627.038780,0.106516
627.355520,0.108438
627.672220,0.111042
627.988880,0.105443
628.305500,0.107822
628.622080,0.108736
628.938620,0.109480
629.255120,0.107654
629.571580,0.106037
629.888000,0.103099
630.204380,0.106168
630.520720,0.112127
630.837020,0.108541
631.153280,0.110911
631.469500,0.105518
631.785680,0.111212
632.101820,0.107961
632.417920,0.111475
632.733980,0.104442
633.050000,0.109157
633.365980,0.107587
633.681920,0.107100
633.997820,0.106097
634.313680,0.104689
634.629500,0.106163
634.945280,0.107038
635.261020,0.108893
635.576720,0.110100
635.892380,0.110078
636.208000,0.110401
636.523580,0.109032
636.839120,0.103358
637.154620,0.107826
637.470080,0.105595
637.785500,0.108148
638.100880,0.108312
638.416220,0.109290
638.731520,0.108309
639.046780,0.106030
639.362000,0.104931
639.677180,0.106796
639.992320,0.108542
640.307420,0.106491
640.622480,0.107253
640.937500,0.105409
641.252480,0.108629
641.567420,0.106849
641.882320,0.107739
642.197180,0.108928
642.512000,0.106633
642.826780,0.104854
643.141520,0.107808
643.456220,0.108190
643.770880,0.106689
644.085500,0.107602
644.400080,0.104494
644.714620,0.109810
645.029120,0.106436
645.343580,0.103675
645.658000,0.104913
645.972380,0.106331
646.286720,0.107659
646.601020,0.107667
646.915280,0.109953
647.229500,0.106044
647.543680,0.106877
647.857820,0.107900
648.171920,0.106891
648.485980,0.103316
648.800000,0.105263
649.113980,0.106707
649.427920,0.107074
649.741820,0.106897
650.055680,0.106418
650.369500,0.109025
650.683280,0.105993
650.997020,0.106436
651.310720,0.105669
651.624380,0.106044
651.938000,0.106371
652.251580,0.105205
652.565120,0.105087
652.878620,0.110360
653.192080,0.106180
653.505500,0.105470
653.818880,0.107762
654.132220,0.105953
654.445520,0.105786
654.758780,0.104533
655.072000,0.104298
655.385180,0.103281
655.698320,0.106602
656.011420,0.104615
656.324480,0.108132
656.637500,0.104287
656.950480,0.103934
657.263420,0.105232
657.576320,0.106137
657.889180,0.105279
658.202000,0.109300
658.514780,0.102709
658.827520,0.107143
659.140220,0.104585
659.452880,0.103594
659.765500,0.103853
660.078080,0.104725
660.390620,0.102658
660.703120,0.105102
661.015580,0.106748
661.328000,0.105479
661.640380,0.104070
661.952720,0.108066
662.265020,0.102710
662.577280,0.102735
662.889500,0.104699
663.201680,0.105616
663.513820,0.104857
663.825920,0.104707
664.137980,0.105688
664.450000,0.104859
664.761980,0.105728
665.073920,0.104187
665.385820,0.103403
665.697680,0.103140
666.009500,0.107083
666.321280,0.104374
666.633020,0.107713
666.944720,0.104820
667.256380,0.102961
667.568000,0.103601
667.879580,0.103741
668.191120,0.108516
668.502620,0.103047
668.814080,0.102456
669.125500,0.106055
669.436880,0.103734
669.748220,0.105919
670.059520,0.106443
670.370780,0.105080
670.682000,0.102655
670.993180,0.103946
671.304320,0.103727
671.615420,0.105114
671.926480,0.102200
672.237500,0.100750
672.548480,0.103265
672.859420,0.104360
673.170320,0.101560
673.481180,0.102824
673.792000,0.101334
674.102780,0.105566
674.413520,0.101349
674.724220,0.099819
675.034880,0.104144
675.345500,0.101021
675.656080,0.104537
675.966620,0.103310
676.277120,0.102893
676.587580,0.106038
676.898000,0.103770
677.208380,0.102403
677.518720,0.101386
677.829020,0.102365
678.139280,0.102298
678.449500,0.103231
678.759680,0.105658
679.069820,0.104089
679.379920,0.104489
679.689980,0.095804
680.000000,0.100561
680.309980,0.100965
680.619920,0.101855
680.929820,0.101530
681.239680,0.098597
681.549500,0.102222
681.859280,0.102689
682.169020,0.103320
682.478720,0.102094
682.788380,0.101144
683.098000,0.105086
683.407580,0.103189
683.717120,0.105856
684.026620,0.100904
684.336080,0.103448
684.645500,0.101758
684.954880,0.099736
685.264220,0.101925
685.573520,0.104301
685.882780,0.102033
686.192000,0.104214
686.501180,0.101778
686.810320,0.107994
687.119420,0.103763
687.428480,0.103304
687.737500,0.102456
688.046480,0.098160
688.355420,0.101094
688.664320,0.104820
688.973180,0.105283
689.282000,0.104552
689.590780,0.105445
689.899520,0.100646
690.208220,0.102064
690.516880,0.103475
690.825500,0.103774
691.134080,0.100987
691.442620,0.097942
691.751120,0.102389
692.059580,0.103554
692.368000,0.101477
692.676380,0.101145
692.984720,0.100763
693.293020,0.100684
693.601280,0.101870
693.909500,0.102913
694.217680,0.101676
694.525820,0.104722
694.833920,0.101870
695.141980,0.102584
695.450000,0.101145
695.757980,0.103514
696.065920,0.102136
696.373820,0.101232
696.681680,0.098964
696.989500,0.103049
697.297280,0.100739
697.605020,0.101984
697.912720,0.105688
698.220380,0.101141
698.528000,0.104430
698.835580,0.101936
699.143120,0.104443
699.450620,0.102625
699.758080,0.100784
700.065500,0.103751
700.372880,0.099200
700.680220,0.102912
700.987520,0.100794
701.294780,0.101379
701.602000,0.102615
701.909180,0.103339
702.216320,0.101682
702.523420,0.100631
702.830480,0.102178
703.137500,0.105222
703.444480,0.098225
703.751420,0.098225
704.058320,0.104076
704.365180,0.100946
704.672000,0.102178
704.978780,0.100273
705.285520,0.097027
705.592220,0.098824
705.898880,0.101655
706.205500,0.105243
706.512080,0.104265
706.818620,0.100619
707.125120,0.100769
707.431580,0.097304
707.738000,0.101953
708.044380,0.095330
708.350720,0.100115
708.657020,0.098476
708.963280,0.102096
709.269500,0.100978
709.575680,0.098232
709.881820,0.101415
710.187920,0.100389
710.493980,0.101241
710.800000,0.100686
711.105980,0.097139
711.411920,0.100512
711.717820,0.098246
712.023680,0.097551
712.329500,0.101735
712.635280,0.103101
712.941020,0.102049
713.246720,0.102767
713.552380,0.098116
713.858000,0.099330
714.163580,0.099053
714.469120,0.098476
714.774620,0.100671
715.080080,0.100510
715.385500,0.103118
715.690880,0.097436
715.996220,0.096276
716.301520,0.100791
716.606780,0.098664
716.912000,0.100969
717.217180,0.101756
717.522320,0.098608
717.827420,0.098861
718.132480,0.099157
718.437500,0.101508
718.742480,0.099597
719.047420,0.098301
719.352320,0.102947
719.657180,0.101799
719.962000,0.102978
720.266780,0.100125
720.571520,0.094863
720.876220,0.100245
721.180880,0.099080
721.485500,0.098203
721.790080,0.097665
722.094620,0.101201
722.399120,0.104265
722.703580,0.099871
723.008000,0.103062
723.312380,0.101162
723.616720,0.098173
723.921020,0.100909
724.225280,0.099476
724.529500,0.098074
724.833680,0.102313
725.137820,0.100881
725.441920,0.094962
725.745980,0.101566
726.050000,0.101037
726.353980,0.096440
726.657920,0.101215
726.961820,0.097260
727.265680,0.098937
727.569500,0.098263
727.873280,0.091455
728.177020,0.102718
728.480720,0.096296
728.784380,0.103335
729.088000,0.094677
729.391580,0.096637
729.695120,0.100288
729.998620,0.099426
730.302080,0.100913
730.605500,0.099466
730.908880,0.096521
731.212220,0.099412
731.515520,0.096538
731.818780,0.098544
732.122000,0.097933
732.425180,0.099064
732.728320,0.098166
733.031420,0.092732
733.334480,0.098469
733.637500,0.094254
733.940480,0.099795
734.243420,0.103466
734.546320,0.102178
734.849180,0.101240
735.152000,0.096992
735.454780,0.097107
735.757520,0.100105
736.060220,0.095840
736.362880,0.097689
736.665500,0.096084
736.968080,0.099409
737.270620,0.097441
737.573120,0.100437
737.875580,0.100605
738.178000,0.101252
738.480380,0.101622
738.782720,0.098691
739.085020,0.099670
739.387280,0.097007
739.689500,0.100227
739.991680,0.097136
740.293820,0.099502
740.595920,0.101280
740.897980,0.095991
741.200000,0.100953
741.501980,0.100287
741.803920,0.095721
742.105820,0.097011
742.407680,0.096098
742.709500,0.097727
743.011280,0.096717
743.313020,0.099130
743.614720,0.093442
743.916380,0.098256
744.218000,0.099642
744.519580,0.099638
744.821120,0.101796
745.122620,0.100060
745.424080,0.099159
745.725500,0.098974
746.026880,0.096059
746.328220,0.098027
746.629520,0.101144
746.930780,0.102328
747.232000,0.096873
747.533180,0.098231
747.834320,0.098600
748.135420,0.100062
748.436480,0.102932
748.737500,0.103768
749.038480,0.099572
749.339420,0.098320
749.640320,0.093652
749.941180,0.094941
750.242000,0.096106
750.542780,0.101737
750.843520,0.098014
751.144220,0.098718
751.444880,0.103361
751.745500,0.089610
752.046080,0.103913
752.346620,0.094716
752.647120,0.094056
752.947580,0.096378
753.248000,0.098001
753.548380,0.094990
753.848720,0.100451
754.149020,0.092199
754.449280,0.105712
754.749500,0.098872
755.049680,0.092000
755.349820,0.097398
755.649920,0.098480
755.949980,0.097545
756.250000,0.099277
756.549980,0.095710
756.849920,0.096533
757.149820,0.095143
757.449680,0.096370
757.749500,0.096796
758.049280,0.099659
758.349020,0.098053
758.648720,0.095928
758.948380,0.097595
759.248000,0.095687
759.547580,0.096167
759.847120,0.099242
760.146620,0.099459
760.446080,0.099462
760.745500,0.093007
761.044880,0.098011
761.344220,0.092659
761.643520,0.095339
761.942780,0.096571
762.242000,0.096888
762.541180,0.095070
762.840320,0.094101
763.139420,0.099156
763.438480,0.092960
763.737500,0.096485
764.036480,0.099231
764.335420,0.096683
764.634320,0.092862
764.933180,0.102055
765.232000,0.098543
765.530780,0.101053
765.829520,0.096503
766.128220,0.099513
766.426880,0.098081
766.725500,0.100754
767.024080,0.098080
767.322620,0.098202
767.621120,0.097561
767.919580,0.092150
768.218000,0.092339
768.516380,0.097363
768.814720,0.094650
769.113020,0.095796
769.411280,0.096685
769.709500,0.095399
770.007680,0.094070
770.305820,0.100744
770.603920,0.097035
770.901980,0.099727
771.200000,0.093750
771.497980,0.097855
771.795920,0.094314
772.093820,0.094920
772.391680,0.097561
772.689500,0.093243
772.987280,0.093603
773.285020,0.099111
773.582720,0.096622
773.880380,0.096088
774.178000,0.096796
774.475580,0.099799
774.773120,0.099063
775.070620,0.100744
775.368080,0.097528
775.665500,0.092680
775.962880,0.092061
776.260220,0.094213
776.557520,0.099400
776.854780,0.100744
777.152000,0.092175
777.449180,0.101146
777.746320,0.096102
778.043420,0.103001
778.340480,0.094723
778.637500,0.095335
778.934480,0.090787
779.231420,0.094980
779.528320,0.095524
779.825180,0.090909
780.122000,0.095618
780.418780,0.101915
780.715520,0.094567
781.012220,0.099315
781.308880,0.097363
781.605500,0.098630
781.902080,0.095140
782.198620,0.097061
782.495120,0.092593
782.791580,0.101100
783.088000,0.098689
783.384380,0.095598
783.680720,0.095759
783.977020,0.097729
784.273280,0.097203
784.569500,0.098532
784.865680,0.095967
785.161820,0.102083
785.457920,0.092169
785.753980,0.092812
786.050000,0.091851
786.345980,0.095833
786.641920,0.099237
786.937820,0.099003
787.233680,0.096729
787.529500,0.094313
787.825280,0.101275
788.121020,0.095609
788.416720,0.096683
788.712380,0.088152
789.008000,0.092068
789.303580,0.093993
789.599120,0.090909
789.894620,0.089531
790.190080,0.092821
790.485500,0.095032
790.780880,0.093190
791.076220,0.092352
791.371520,0.097313
791.666780,0.104000
791.962000,0.091109
792.257180,0.094436
792.552320,0.095722
792.847420,0.095342
793.142480,0.095971
793.437500,0.093343
793.732480,0.098756
794.027420,0.089021
794.322320,0.092468
794.617180,0.096582
794.912000,0.099554
795.206780,0.097688
795.501520,0.092776
795.796220,0.096296
796.090880,0.096458
796.385500,0.090705
796.680080,0.093493
796.974620,0.098054
797.269120,0.093111
797.563580,0.093130
797.858000,0.097950
798.152380,0.096674
798.446720,0.095385
798.741020,0.092450
799.035280,0.098602
799.329500,0.096998
799.623680,0.097674
