399.985280,0.094595
400.329500,0.054054
400.673680,0.088608
401.017820,0.176471
401.361920,0.015152
401.705980,0.036585
402.050000,0.077922
402.393980,0.105882
402.737920,0.044944
403.081820,0.113402
403.425680,0.081395
403.769500,0.041667
404.113280,0.114943
404.457020,0.101124
404.800720,0.065217
405.144380,0.161616
405.488000,0.043011
405.831580,0.123711
406.175120,0.074468
406.518620,0.050000
406.862080,0.123711
407.205500,0.052083
407.548880,0.163265
407.892220,0.117647
408.235520,0.159574
408.578780,0.104762
408.922000,0.096154
409.265180,0.111111
409.608320,0.080808
409.951420,0.113402
410.294480,0.107843
410.637500,0.076087
410.980480,0.098039
411.323420,0.061224
411.666320,0.110092
412.009180,0.127273
412.352000,0.039604
412.694780,0.091743
413.037520,0.018349
413.380220,0.108108
413.722880,0.080357
414.065500,0.081081
414.408080,0.070796
414.750620,0.079646
415.093120,0.057851
415.435580,0.100840
415.778000,0.128788
416.120380,0.084034
416.462720,0.079365
416.805020,0.097744
417.147280,0.082090
417.489500,0.114286
417.831680,0.102740
418.173820,0.078014
418.515920,0.104895
418.857980,0.075949
419.200000,0.089744
419.541980,0.100592
419.883920,0.106742
420.225820,0.057803
420.567680,0.078212
420.909500,0.103825
421.251280,0.109375
421.593020,0.112245
421.934720,0.090909
422.276380,0.061538
422.618000,0.122549
422.959580,0.112745
423.301120,0.109589
423.642620,0.104348
423.984080,0.083721
424.325500,0.098655
424.666880,0.107759
425.008220,0.075630
425.349520,0.088983
425.690780,0.076923
426.032000,0.090196
426.373180,0.091286
426.714320,0.093750
427.055420,0.092664
427.396480,0.104869
427.737500,0.083004
428.078480,0.098814
428.419420,0.104418
428.760320,0.099617
429.101180,0.094488
429.442000,0.088123
429.782780,0.088462
430.123520,0.117647
430.464220,0.099631
430.804880,0.118774
431.145500,0.065455
431.486080,0.082397
431.826620,0.093023
432.167120,0.088235
432.507580,0.112319
432.848000,0.089928
433.188380,0.104693
433.528720,0.086792
433.869020,0.114286
434.209280,0.070175
434.549500,0.104530
434.889680,0.097643
435.229820,0.088737
435.569920,0.083045
435.909980,0.100324
436.250000,0.077966
436.589980,0.080495
436.929920,0.101587
437.269820,0.081505
437.609680,0.097633
437.949500,0.090361
438.289280,0.096317
438.629020,0.107558
438.968720,0.101744
439.308380,0.097561
439.648000,0.087671
439.987580,0.084656
440.327120,0.088000
440.666620,0.098701
441.006080,0.084399
441.345500,0.088452
441.684880,0.100478
442.024220,0.094293
442.363520,0.083333
442.702780,0.093182
443.042000,0.079295
443.381180,0.096983
443.720320,0.107991
444.059420,0.079832
444.398480,0.075314
444.737500,0.098361
445.076480,0.097222
445.415420,0.103792
445.754320,0.091476
446.093180,0.091743
446.432000,0.095865
446.770780,0.092979
447.109520,0.097426
447.448220,0.089445
447.786880,0.103757
448.125500,0.096552
448.464080,0.089286
448.802620,0.093972
449.141120,0.102076
449.479580,0.096154
449.818000,0.098107
450.156380,0.093645
450.494720,0.090909
450.833020,0.089161
451.171280,0.090753
451.509500,0.106272
451.847680,0.086003
452.185820,0.087780
452.523920,0.097938
452.861980,0.099494
453.200000,0.088040
453.537980,0.094118
453.875920,0.094118
454.213820,0.092466
454.551680,0.087748
454.889500,0.089376
455.227280,0.087189
455.565020,0.102178
455.902720,0.106489
456.240380,0.076539
456.578000,0.090592
456.915580,0.082902
457.253120,0.078947
457.590620,0.093596
457.928080,0.102694
458.265500,0.092905
458.602880,0.110390
458.940220,0.093063
459.277520,0.089600
459.614780,0.093290
459.952000,0.091615
460.289180,0.104430
460.626320,0.089764
460.963420,0.092084
461.300480,0.093272
461.637500,0.090909
461.974480,0.091743
462.311420,0.086438
462.648320,0.089312
462.985180,0.087518
463.322000,0.090774
463.658780,0.089779
463.995520,0.090784
464.332220,0.088643
464.668880,0.098118
465.005500,0.079088
465.342080,0.096031
465.678620,0.097171
466.015120,0.094437
466.351580,0.103666
466.688000,0.090134
467.024380,0.087485
467.360720,0.098864
467.697020,0.092255
468.033280,0.098889
468.369500,0.092715
468.705680,0.092446
469.041820,0.086458
469.377920,0.090022
469.713980,0.096807
470.050000,0.096618
470.385980,0.090998
470.721920,0.092067
471.057820,0.097466
471.393680,0.092610
471.729500,0.086191
472.065280,0.086762
472.401020,0.093972
472.736720,0.093368
473.072380,0.088869
473.408000,0.087903
473.743580,0.093426
474.079120,0.093885
474.414620,0.083121
474.750080,0.085435
475.085500,0.095395
475.420880,0.089925
475.756220,0.094031
476.091520,0.092072
476.426780,0.093851
476.762000,0.088496
477.097180,0.092000
477.432320,0.088853
477.767420,0.089052
478.102480,0.092126
478.437500,0.091133
478.772480,0.082742
479.107420,0.087063
479.442320,0.088729
479.777180,0.090692
480.112000,0.087827
480.446780,0.084957
480.781520,0.089372
481.116220,0.089733
481.450880,0.087432
481.785500,0.096519
482.120080,0.091693
482.454620,0.086247
482.789120,0.092357
483.123580,0.089564
483.458000,0.090981
483.792380,0.094249
484.126720,0.093436
484.461020,0.088993
484.795280,0.090208
485.129500,0.089634
485.463680,0.089922
485.797820,0.087869
486.131920,0.090283
486.465980,0.089575
486.800000,0.093130
487.133980,0.086858
487.467920,0.085692
487.801820,0.086957
488.135680,0.091736
488.469500,0.087746
488.803280,0.091382
489.137020,0.090842
489.470720,0.092730
489.804380,0.089087
490.138000,0.094955
490.471580,0.091378
490.805120,0.088635
491.138620,0.086709
491.472080,0.091873
491.805500,0.091353
492.138880,0.086866
492.472220,0.091349
492.805520,0.090084
493.138780,0.093728
493.472000,0.090301
493.805180,0.094134
494.138320,0.092061
494.471420,0.091146
494.804480,0.090556
495.137500,0.091142
495.470480,0.092416
495.803420,0.090050
496.136320,0.094612
496.469180,0.089012
496.802000,0.084963
497.134780,0.087326
497.467520,0.091131
497.800220,0.087264
498.132880,0.095826
498.465500,0.093279
498.798080,0.095320
499.130620,0.094329
499.463120,0.089276
499.795580,0.092409
500.128000,0.091553
500.460380,0.087191
500.792720,0.086426
501.125020,0.085129
501.457280,0.087728
501.789500,0.088326
502.121680,0.095386
502.453820,0.088220
502.785920,0.089045
503.117980,0.093719
503.450000,0.089402
503.781980,0.088690
504.113920,0.090090
504.445820,0.086534
504.777680,0.088000
505.109500,0.087981
505.441280,0.087476
505.773020,0.088304
506.104720,0.088554
506.436380,0.088973
506.768000,0.091207
507.099580,0.086499
507.431120,0.088525
507.762620,0.086466
508.094080,0.090246
508.425500,0.090103
508.756880,0.085963
509.088220,0.086937
509.419520,0.087523
509.750780,0.090909
510.082000,0.088619
510.413180,0.089820
510.744320,0.088357
511.075420,0.091201
511.406480,0.087447
511.737500,0.088889
512.068480,0.088346
512.399420,0.088732
512.730320,0.086374
513.061180,0.088963
513.392000,0.088973
513.722780,0.093180
514.053520,0.090561
514.384220,0.088963
514.714880,0.089517
515.045500,0.086686
515.376080,0.092494
515.706620,0.086702
516.037120,0.086765
516.367580,0.086249
516.698000,0.085784
517.028380,0.085402
517.358720,0.085432
517.689020,0.091494
518.019280,0.091320
518.349500,0.085656
518.679680,0.088844
519.009820,0.086032
519.339920,0.092184
519.669980,0.086389
520.000000,0.087112
520.329980,0.089165
520.659920,0.085378
520.989820,0.090815
521.319680,0.086934
521.649500,0.080720
521.979280,0.088205
522.309020,0.087656
522.638720,0.087046
522.968380,0.094105
523.298000,0.086639
523.627580,0.090533
523.957120,0.090390
524.286620,0.087546
524.616080,0.089452
524.945500,0.089406
525.274880,0.093894
525.604220,0.091097
525.933520,0.090671
526.262780,0.085150
526.592000,0.087265
526.921180,0.086846
527.250320,0.088280
527.579420,0.090955
527.908480,0.081733
528.237500,0.090864
528.566480,0.089820
528.895420,0.090685
529.224320,0.088162
529.553180,0.090120
529.882000,0.095864
530.210780,0.087838
530.539520,0.086290
530.868220,0.083772
531.196880,0.087912
531.525500,0.087167
531.854080,0.084897
532.182620,0.089211
532.511120,0.088167
532.839580,0.091652
533.168000,0.088879
533.496380,0.091324
533.824720,0.089278
534.153020,0.085154
534.481280,0.088546
534.809500,0.087951
535.137680,0.090712
535.465820,0.089347
535.793920,0.089679
536.121980,0.088544
536.450000,0.090063
536.777980,0.089652
537.105920,0.090079
537.433820,0.088380
537.761680,0.088571
538.089500,0.086200
538.417280,0.087545
538.745020,0.086767
539.072720,0.086294
539.400380,0.089744
539.728000,0.091013
540.055580,0.088390
540.383120,0.085257
540.710620,0.091518
541.038080,0.087053
541.365500,0.089338
541.692880,0.083212
542.020220,0.087082
542.347520,0.088658
542.674780,0.089626
543.002000,0.086074
543.329180,0.090845
543.656320,0.091069
543.983420,0.085470
544.310480,0.087666
544.637500,0.088366
544.964480,0.088493
545.291420,0.089398
545.618320,0.088313
545.945180,0.085366
546.272000,0.086173
546.598780,0.088496
546.925520,0.087702
547.252220,0.087157
547.578880,0.087977
547.905500,0.086928
548.232080,0.089019
548.558620,0.086560
548.885120,0.086359
549.211580,0.090646
549.538000,0.087224
549.864380,0.088424
550.190720,0.083306
550.517020,0.088331
550.843280,0.088599
551.169500,0.083333
551.495680,0.085085
551.821820,0.086871
552.147920,0.090761
552.473980,0.086599
552.800000,0.086658
553.125980,0.086771
553.451920,0.088587
553.777820,0.084610
554.103680,0.087294
554.429500,0.083026
554.755280,0.086115
555.081020,0.088570
555.406720,0.089401
555.732380,0.086750
556.058000,0.085879
556.383580,0.090038
556.709120,0.084425
557.034620,0.087151
557.360080,0.084974
557.685500,0.089212
558.010880,0.088042
558.336220,0.082601
558.661520,0.088267
558.986780,0.089653
559.312000,0.085114
559.637180,0.087612
559.962320,0.087220
560.287420,0.088858
560.612480,0.090779
560.937500,0.084435
561.262480,0.087610
561.587420,0.088502
561.912320,0.088430
562.237180,0.085862
562.562000,0.087916
562.886780,0.088443
563.211520,0.087183
563.536220,0.089054
563.860880,0.086382
564.185500,0.088180
564.510080,0.086907
564.834620,0.085225
565.159120,0.083835
565.483580,0.089700
565.808000,0.087401
566.132380,0.087281
566.456720,0.085412
566.781020,0.085896
567.105280,0.083176
567.429500,0.086115
567.753680,0.088991
568.077820,0.088133
568.401920,0.086707
568.725980,0.087287
569.050000,0.087072
569.373980,0.089456
569.697920,0.087220
570.021820,0.088015
570.345680,0.084577
570.669500,0.087753
570.993280,0.088224
571.317020,0.086226
571.640720,0.087440
571.964380,0.087973
572.288000,0.089392
572.611580,0.087233
572.935120,0.087168
573.258620,0.087135
573.582080,0.087183
573.905500,0.087491
574.228880,0.087973
574.552220,0.084646
574.875520,0.084512
575.198780,0.088544
575.522000,0.088710
575.845180,0.085960
576.168320,0.088753
576.491420,0.087209
576.814480,0.085353
577.137500,0.092352
577.460480,0.087350
577.783420,0.087889
578.106320,0.090456
578.429180,0.089784
578.752000,0.086141
579.074780,0.086649
579.397520,0.085539
579.720220,0.087838
580.042880,0.088537
580.365500,0.089676
580.688080,0.088195
581.010620,0.088424
581.333120,0.086840
581.655580,0.086580
581.978000,0.084802
582.300380,0.087958
582.622720,0.089321
582.945020,0.088752
583.267280,0.087268
583.589500,0.086677
583.911680,0.088282
584.233820,0.084986
584.555920,0.089505
584.877980,0.090138
585.200000,0.087477
585.521980,0.086809
585.843920,0.087248
586.165820,0.089580
586.487680,0.089678
586.809500,0.087309
587.131280,0.085478
587.453020,0.090476
587.774720,0.087522
588.096380,0.088973
588.418000,0.086040
588.739580,0.088819
589.061120,0.088557
589.382620,0.085673
589.704080,0.087798
590.025500,0.087614
590.346880,0.087128
590.668220,0.089611
590.989520,0.086245
591.310780,0.084783
591.632000,0.089891
591.953180,0.087185
592.274320,0.086814
592.595420,0.087554
592.916480,0.088020
593.237500,0.085961
593.558480,0.088512
593.879420,0.086323
594.200320,0.085454
594.521180,0.087915
594.842000,0.086244
595.162780,0.086004
595.483520,0.084818
595.804220,0.087272
596.124880,0.084732
596.445500,0.082788
596.766080,0.088734
597.086620,0.085191
597.407120,0.085571
597.727580,0.085919
598.048000,0.088601
598.368380,0.085481
598.688720,0.085714
599.009020,0.086253
599.329280,0.085684
599.649500,0.088484
599.969680,0.085737
600.289820,0.086004
600.609920,0.086294
600.929980,0.087119
601.250000,0.084324
601.569980,0.085606
601.889920,0.086875
602.209820,0.084686
602.529680,0.088163
602.849500,0.087016
603.169280,0.086250
603.489020,0.086355
603.808720,0.085848
604.128380,0.084989
604.448000,0.084254
604.767580,0.086592
605.087120,0.082271
605.406620,0.086202
605.726080,0.087254
606.045500,0.084703
606.364880,0.089311
606.684220,0.089377
607.003520,0.085436
607.322780,0.083286
607.642000,0.084147
607.961180,0.084707
608.280320,0.086717
608.599420,0.084589
608.918480,0.086804
609.237500,0.085974
609.556480,0.084344
609.875420,0.082989
610.194320,0.085917
610.513180,0.089967
610.832000,0.084276
611.150780,0.086512
611.469520,0.086275
611.788220,0.085248
612.106880,0.083233
612.425500,0.085566
612.744080,0.086796
613.062620,0.087768
613.381120,0.083486
613.699580,0.085224
614.018000,0.085074
614.336380,0.084516
614.654720,0.085891
614.973020,0.089787
615.291280,0.084289
615.609500,0.085895
615.927680,0.084981
616.245820,0.088745
616.563920,0.092322
616.881980,0.087621
617.200000,0.085848
617.517980,0.083385
617.835920,0.084809
618.153820,0.084551
618.471680,0.085271
618.789500,0.087162
619.107280,0.085759
619.425020,0.084681
619.742720,0.085060
620.060380,0.082419
620.378000,0.085588
620.695580,0.087803
621.013120,0.082835
621.330620,0.087543
621.648080,0.081073
621.965500,0.088143
622.282880,0.086066
622.600220,0.082754
622.917520,0.084121
623.234780,0.084217
623.552000,0.082432
623.869180,0.086354
624.186320,0.086278
624.503420,0.086207
624.820480,0.085768
625.137500,0.083991
625.454480,0.082213
625.771420,0.087011
626.088320,0.083228
626.405180,0.082763
626.722000,0.085634
627.038780,0.085526
627.355520,0.085937
627.672220,0.083670
627.988880,0.082115
628.305500,0.084450
628.622080,0.083643
628.938620,0.086850
629.255120,0.087741
629.571580,0.083359
629.888000,0.084382
630.204380,0.083154
630.520720,0.081658
630.837020,0.086340
631.153280,0.080635
631.469500,0.086113
631.785680,0.084087
632.101820,0.088359
632.417920,0.085842
632.733980,0.084034
633.050000,0.088235
633.365980,0.090694
633.681920,0.085621
633.997820,0.083981
634.313680,0.085815
634.629500,0.082572
634.945280,0.084457
635.261020,0.085706
635.576720,0.085144
635.892380,0.085100
636.208000,0.085125
636.523580,0.085063
636.839120,0.083671
637.154620,0.087246
637.470080,0.084648
637.785500,0.087339
638.100880,0.084275
638.416220,0.087719
638.731520,0.086246
639.046780,0.083018
639.362000,0.086869
639.677180,0.085094
639.992320,0.084579
640.307420,0.088227
640.622480,0.084570
640.937500,0.085992
641.252480,0.084613
641.567420,0.084967
641.882320,0.081849
642.197180,0.087310
642.512000,0.087042
642.826780,0.082663
643.141520,0.079189
643.456220,0.083564
643.770880,0.084024
644.085500,0.086641
644.400080,0.086517
644.714620,0.082497
645.029120,0.084433
645.343580,0.083653
645.658000,0.084652
645.972380,0.083859
646.286720,0.085854
646.601020,0.086632
646.915280,0.087469
647.229500,0.084890
647.543680,0.086716
647.857820,0.083953
648.171920,0.087358
648.485980,0.081666
648.800000,0.084872
649.113980,0.083980
649.427920,0.086546
649.741820,0.083814
650.055680,0.086122
650.369500,0.084922
650.683280,0.086016
650.997020,0.085534
651.310720,0.083654
651.624380,0.084066
651.938000,0.084765
652.251580,0.086557
652.565120,0.081051
652.878620,0.084741
653.192080,0.084551
653.505500,0.083310
653.818880,0.084731
654.132220,0.082313
654.445520,0.081963
654.758780,0.081870
655.072000,0.085100
655.385180,0.083595
655.698320,0.083738
656.011420,0.085125
656.324480,0.083649
656.637500,0.081692
656.950480,0.083969
657.263420,0.081289
657.576320,0.080047
657.889180,0.081982
658.202000,0.085145
658.514780,0.085144
658.827520,0.084934
659.140220,0.081810
659.452880,0.082452
659.765500,0.082480
660.078080,0.084261
660.390620,0.084326
660.703120,0.085548
661.015580,0.082515
661.328000,0.086272
661.640380,0.086362
661.952720,0.087200
662.265020,0.085066
662.577280,0.084606
662.889500,0.080732
663.201680,0.087428
663.513820,0.080090
663.825920,0.083573
664.137980,0.086942
664.450000,0.083440
664.761980,0.083470
665.073920,0.081792
665.385820,0.086387
665.697680,0.082314
666.009500,0.083139
666.321280,0.084162
666.633020,0.085771
666.944720,0.083249
667.256380,0.083445
667.568000,0.081861
667.879580,0.084014
668.191120,0.080357
668.502620,0.080794
668.814080,0.082807
669.125500,0.083476
669.436880,0.085062
669.748220,0.083766
670.059520,0.081933
670.370780,0.084203
670.682000,0.082832
670.993180,0.081043
671.304320,0.083333
671.615420,0.084162
671.926480,0.081973
672.237500,0.082529
672.548480,0.078779
672.859420,0.080057
673.170320,0.079797
673.481180,0.082911
673.792000,0.078255
674.102780,0.082226
674.413520,0.079475
674.724220,0.082033
675.034880,0.084342
675.345500,0.081692
675.656080,0.087477
675.966620,0.082575
676.277120,0.081655
676.587580,0.082474
676.898000,0.081747
677.208380,0.084288
677.518720,0.081692
677.829020,0.081301
678.139280,0.083395
678.449500,0.082807
678.759680,0.083927
679.069820,0.084015
679.379920,0.081101
679.689980,0.082436
680.000000,0.080748
680.309980,0.081663
680.619920,0.083680
680.929820,0.080627
681.239680,0.082718
681.549500,0.081111
681.859280,0.084391
682.169020,0.082805
682.478720,0.086761
682.788380,0.082318
683.098000,0.083770
683.407580,0.081801
683.717120,0.083709
684.026620,0.084714
684.336080,0.080333
684.645500,0.081182
684.954880,0.080468
685.264220,0.081918
685.573520,0.087552
685.882780,0.085923
686.192000,0.081264
686.501180,0.084374
686.810320,0.083397
687.119420,0.083998
687.428480,0.081656
687.737500,0.082886
688.046480,0.075920
688.355420,0.082610
688.664320,0.082249
688.973180,0.083461
689.282000,0.082176
689.590780,0.080905
689.899520,0.081276
690.208220,0.081804
690.516880,0.083238
690.825500,0.082642
691.134080,0.086181
691.442620,0.082317
691.751120,0.082670
692.059580,0.084830
692.368000,0.081030
692.676380,0.081679
692.984720,0.077099
693.293020,0.082827
693.601280,0.080504
693.909500,0.080969
694.217680,0.081874
694.525820,0.082635
694.833920,0.081648
695.141980,0.082144
695.450000,0.082443
695.757980,0.080596
696.065920,0.083107
696.373820,0.080831
696.681680,0.082087
696.989500,0.081822
697.297280,0.081680
697.605020,0.082143
697.912720,0.084550
698.220380,0.080283
698.528000,0.084652
698.835580,0.081786
699.143120,0.081839
699.450620,0.081146
699.758080,0.080392
700.065500,0.083799
700.372880,0.084400
700.680220,0.080176
700.987520,0.082937
701.294780,0.085158
701.602000,0.082013
701.909180,0.082671
702.216320,0.078608
702.523420,0.084846
702.830480,0.080396
703.137500,0.080281
703.444480,0.086785
703.751420,0.078501
704.058320,0.080728
704.365180,0.080836
704.672000,0.082376
704.978780,0.081155
705.285520,0.084507
705.592220,0.080784
705.898880,0.084712
706.205500,0.079812
706.512080,0.082148
706.818620,0.079721
707.125120,0.081923
707.431580,0.083626
707.738000,0.082031
708.044380,0.083365
708.350720,0.082537
708.657020,0.082454
708.963280,0.078804
709.269500,0.076712
709.575680,0.081336
709.881820,0.083333
710.187920,0.079767
710.493980,0.083398
710.800000,0.083143
711.105980,0.080572
711.411920,0.080016
711.717820,0.080312
712.023680,0.080839
712.329500,0.079653
712.635280,0.084109
712.941020,0.082721
713.246720,0.082213
713.552380,0.083987
713.858000,0.079622
714.163580,0.078927
714.469120,0.081673
714.774620,0.082116
715.080080,0.081665
715.385500,0.083933
715.690880,0.082446
715.996220,0.082805
716.301520,0.081818
716.606780,0.086085
716.912000,0.082795
717.217180,0.083001
717.522320,0.081909
717.827420,0.084215
718.132480,0.081493
718.437500,0.081940
718.742480,0.081452
719.047420,0.079288
719.352320,0.082192
719.657180,0.083401
719.962000,0.078991
720.266780,0.079352
720.571520,0.080779
720.876220,0.081015
721.180880,0.082358
721.485500,0.083995
721.790080,0.082803
722.094620,0.082762
722.399120,0.077553
722.703580,0.082297
723.008000,0.081501
723.312380,0.080499
723.616720,0.077348
723.921020,0.083586
724.225280,0.081152
724.529500,0.080560
724.833680,0.080071
725.137820,0.079295
725.441920,0.078466
725.745980,0.080984
726.050000,0.080289
726.353980,0.084723
726.657920,0.081871
726.961820,0.079909
727.265680,0.085067
727.569500,0.080439
727.873280,0.082217
728.177020,0.081069
728.480720,0.079630
728.784380,0.086426
729.088000,0.080546
729.391580,0.078162
729.695120,0.079655
729.998620,0.080784
730.302080,0.079769
730.605500,0.082484
730.908880,0.080353
731.212220,0.078355
731.515520,0.081911
731.818780,0.079612
732.122000,0.082185
732.425180,0.075407
732.728320,0.083292
733.031420,0.079699
733.334480,0.073980
733.637500,0.077621
733.940480,0.081372
734.243420,0.084608
734.546320,0.081950
734.849180,0.079545
735.152000,0.079357
735.454780,0.074897
735.757520,0.076923
736.060220,0.076883
736.362880,0.084559
736.665500,0.079373
736.968080,0.075766
737.270620,0.081111
737.573120,0.084607
737.875580,0.080814
738.178000,0.080566
738.480380,0.082162
738.782720,0.075245
739.085020,0.081498
739.387280,0.078160
739.689500,0.079275
739.991680,0.083099
740.293820,0.082366
740.595920,0.082916
740.897980,0.079616
741.200000,0.084128
741.501980,0.084814
741.803920,0.077140
742.105820,0.077834
742.407680,0.079208
742.709500,0.082386
743.011280,0.077374
743.313020,0.082319
743.614720,0.078352
743.916380,0.080233
744.218000,0.084129
744.519580,0.085145
744.821120,0.080838
745.122620,0.082085
745.424080,0.079928
745.725500,0.079662
746.026880,0.078818
746.328220,0.083231
746.629520,0.076460
746.930780,0.083333
747.232000,0.080932
747.533180,0.080537
747.834320,0.081558
748.135420,0.081417
748.436480,0.083593
748.737500,0.081532
749.038480,0.077581
749.339420,0.084630
749.640320,0.077938
749.941180,0.081824
750.242000,0.076633
750.542780,0.083747
750.843520,0.079436
751.144220,0.075641
751.444880,0.082435
751.745500,0.075325
752.046080,0.079538
752.346620,0.076675
752.647120,0.081646
752.947580,0.080207
753.248000,0.081883
753.548380,0.083279
753.848720,0.086285
754.149020,0.075435
754.449280,0.080762
754.749500,0.082946
755.049680,0.080000
755.349820,0.077385
755.649920,0.081295
755.949980,0.078301
756.250000,0.080868
756.549980,0.077888
756.849920,0.075459
757.149820,0.080506
757.449680,0.079208
757.749500,0.087253
758.049280,0.080546
758.349020,0.082058
758.648720,0.080055
758.948380,0.080412
759.248000,0.081536
759.547580,0.074647
759.847120,0.081323
760.146620,0.081867
760.446080,0.079973
760.745500,0.082517
761.044880,0.078125
761.344220,0.079116
761.643520,0.078390
761.942780,0.078376
762.242000,0.079915
762.541180,0.076056
762.840320,0.081461
763.139420,0.079466
763.438480,0.075871
763.737500,0.078567
764.036480,0.081062
764.335420,0.075512
764.634320,0.081081
764.933180,0.085616
765.232000,0.082582
765.530780,0.074386
765.829520,0.084615
766.128220,0.082116
766.426880,0.078891
766.725500,0.086361
767.024080,0.079561
767.322620,0.081604
767.621120,0.078591
767.919580,0.077816
768.218000,0.085499
768.516380,0.079108
768.814720,0.077503
769.113020,0.082012
769.411280,0.079420
769.709500,0.080514
770.007680,0.076346
770.305820,0.084517
770.603920,0.077493
770.901980,0.077186
771.200000,0.080163
771.497980,0.082440
771.795920,0.079599
772.093820,0.082888
772.391680,0.083059
772.689500,0.073649
772.987280,0.083502
773.285020,0.077922
773.582720,0.083108
773.880380,0.074125
774.178000,0.080436
774.475580,0.081715
774.773120,0.080991
775.070620,0.085193
775.368080,0.080828
775.665500,0.077233
775.962880,0.081388
776.260220,0.079408
776.557520,0.083389
776.854780,0.079784
777.152000,0.074934
777.449180,0.078220
777.746320,0.071909
778.043420,0.083220
778.340480,0.080514
778.637500,0.079108
778.934480,0.079354
779.231420,0.075984
779.528320,0.078156
779.825180,0.077734
780.122000,0.075033
780.418780,0.082079
780.715520,0.085178
781.012220,0.082877
781.308880,0.077755
781.605500,0.080822
781.902080,0.079398
782.198620,0.077922
782.495120,0.080247
782.791580,0.076341
783.088000,0.080055
783.384380,0.079780
783.680720,0.079343
783.977020,0.078458
784.273280,0.081119
784.569500,0.077568
784.865680,0.078581
785.161820,0.079861
785.457920,0.079695
785.753980,0.082345
786.050000,0.072514
786.345980,0.084722
786.641920,0.080500
786.937820,0.081197
787.233680,0.077940
787.529500,0.072816
787.825280,0.080028
788.121020,0.077904
788.416720,0.077629
788.712380,0.076869
789.008000,0.074363
789.303580,0.081272
789.599120,0.080000
789.894620,0.077978
790.190080,0.073967
790.485500,0.077034
790.780880,0.075986
791.076220,0.077922
791.371520,0.080610
791.666780,0.088727
791.962000,0.080088
792.257180,0.075403
792.552320,0.087020
792.847420,0.081514
793.142480,0.080586
793.437500,0.074530
793.732480,0.079005
794.027420,0.079377
794.322320,0.081283
794.617180,0.078009
794.912000,0.078752
795.206780,0.077554
795.501520,0.076046
795.796220,0.077778
796.090880,0.080633
796.385500,0.076462
796.680080,0.075542
796.974620,0.081587
797.269120,0.080999
797.563580,0.077863
797.858000,0.078208
798.152380,0.078886
798.446720,0.084615
798.741020,0.083975
799.035280,0.078416
799.329500,0.079292
799.623680,0.086047
