399.985280,0.148649
400.329500,0.108108
400.673680,0.101266
401.017820,0.029412
401.361920,0.015152
401.705980,0.048780
402.050000,0.012987
402.393980,0.152941
402.737920,0.044944
403.081820,0.113402
403.425680,0.127907
403.769500,0.041667
404.113280,0.068966
404.457020,0.101124
404.800720,0.032609
405.144380,0.080808
405.488000,-0.010753
405.831580,0.144330
406.175120,0.053191
406.518620,0.110000
406.862080,0.134021
407.205500,0.072917
407.548880,0.112245
407.892220,0.107843
408.235520,0.042553
408.578780,0.104762
408.922000,0.067308
409.265180,0.090909
409.608320,0.060606
409.951420,0.113402
410.294480,0.098039
410.637500,0.065217
410.980480,0.098039
411.323420,0.061224
411.666320,0.091743
412.009180,0.081818
412.352000,0.079208
412.694780,0.100917
413.037520,0.009174
413.380220,0.090090
413.722880,0.125000
414.065500,0.108108
414.408080,0.053097
414.750620,0.088496
415.093120,0.074380
415.435580,0.109244
415.778000,0.098485
416.120380,0.033613
416.462720,0.087302
416.805020,0.082707
417.147280,0.052239
417.489500,0.100000
417.831680,0.075342
418.173820,0.092199
418.515920,0.069930
418.857980,0.069620
419.200000,0.070513
419.541980,0.112426
419.883920,0.101124
420.225820,0.092486
420.567680,0.089385
420.909500,0.076503
421.251280,0.088542
421.593020,0.061224
421.934720,0.055556
422.276380,0.076923
422.618000,0.098039
422.959580,0.107843
423.301120,0.082192
423.642620,0.052174
423.984080,0.074419
424.325500,0.085202
424.666880,0.068966
425.008220,0.063025
425.349520,0.067797
425.690780,0.088462
426.032000,0.066667
426.373180,0.078838
426.714320,0.070312
427.055420,0.065637
427.396480,0.086142
427.737500,0.071146
428.078480,0.067194
428.419420,0.068273
428.760320,0.095785
429.101180,0.086614
429.442000,0.084291
429.782780,0.080769
430.123520,0.082353
430.464220,0.088561
430.804880,0.118774
431.145500,0.080000
431.486080,0.082397
431.826620,0.073643
432.167120,0.084559
432.507580,0.097826
432.848000,0.079137
433.188380,0.079422
433.528720,0.083019
433.869020,0.089286
434.209280,0.070175
434.549500,0.076655
434.889680,0.077441
435.229820,0.095563
435.569920,0.089965
435.909980,0.071197
436.250000,0.088136
436.589980,0.080495
436.929920,0.079365
437.269820,0.087774
437.609680,0.097633
437.949500,0.084337
438.289280,0.093484
438.629020,0.087209
438.968720,0.104651
439.308380,0.081301
439.648000,0.084932
439.987580,0.089947
440.327120,0.104000
440.666620,0.090909
441.006080,0.097187
441.345500,0.085995
441.684880,0.078947
442.024220,0.076923
442.363520,0.080952
442.702780,0.072727
443.042000,0.070485
443.381180,0.094828
443.720320,0.092873
444.059420,0.088235
444.398480,0.069038
444.737500,0.086066
445.076480,0.083333
445.415420,0.083832
445.754320,0.076923
446.093180,0.082569
446.432000,0.080827
446.770780,0.089184
447.109520,0.080882
447.448220,0.082290
447.786880,0.082290
448.125500,0.087931
448.464080,0.091071
448.802620,0.081560
449.141120,0.083045
449.479580,0.089161
449.818000,0.080895
450.156380,0.080268
450.494720,0.077686
450.833020,0.078671
451.171280,0.073630
451.509500,0.090592
451.847680,0.082631
452.185820,0.087780
452.523920,0.094502
452.861980,0.084317
453.200000,0.078073
453.537980,0.090756
453.875920,0.087395
454.213820,0.068493
454.551680,0.084437
454.889500,0.084317
455.227280,0.076512
455.565020,0.092127
455.902720,0.086522
456.240380,0.076539
456.578000,0.081882
456.915580,0.082902
457.253120,0.078947
457.590620,0.096880
457.928080,0.082492
458.265500,0.084459
458.602880,0.092532
458.940220,0.076142
459.277520,0.091200
459.614780,0.093290
459.952000,0.080745
460.289180,0.085443
460.626320,0.089764
460.963420,0.072698
461.300480,0.085627
461.637500,0.077042
461.974480,0.085627
462.311420,0.078987
462.648320,0.086384
462.985180,0.076040
463.322000,0.083333
463.658780,0.074586
463.995520,0.086657
464.332220,0.078947
464.668880,0.083333
465.005500,0.073727
465.342080,0.078105
465.678620,0.079951
466.015120,0.084088
466.351580,0.084703
466.688000,0.084044
467.024380,0.081409
467.360720,0.079545
467.697020,0.080866
468.033280,0.080000
468.369500,0.087196
468.705680,0.083427
469.041820,0.084375
469.377920,0.082430
469.713980,0.084449
470.050000,0.085990
470.385980,0.085127
470.721920,0.086190
471.057820,0.081871
471.393680,0.083255
471.729500,0.079703
472.065280,0.078712
472.401020,0.074468
472.736720,0.083770
473.072380,0.078995
473.408000,0.076588
473.743580,0.082180
474.079120,0.083549
474.414620,0.082273
474.750080,0.079740
475.085500,0.082237
475.420880,0.076603
475.756220,0.080948
476.091520,0.083546
476.426780,0.083333
476.762000,0.077233
477.097180,0.084800
477.432320,0.087237
477.767420,0.082516
478.102480,0.080315
478.437500,0.079639
478.772480,0.085894
479.107420,0.079740
479.442320,0.077538
479.777180,0.080350
480.112000,0.074730
480.446780,0.073266
480.781520,0.078905
481.116220,0.076799
481.450880,0.078845
481.785500,0.087025
482.120080,0.084639
482.454620,0.087801
482.789120,0.085987
483.123580,0.078660
483.458000,0.082278
483.792380,0.079872
484.126720,0.086486
484.461020,0.086651
484.795280,0.083269
485.129500,0.084178
485.463680,0.069767
485.797820,0.083981
486.131920,0.077276
486.465980,0.080309
486.800000,0.086260
487.133980,0.080060
487.467920,0.075746
487.801820,0.079329
488.135680,0.087187
488.469500,0.077156
488.803280,0.083952
489.137020,0.076923
489.470720,0.080861
489.804380,0.078693
490.138000,0.081602
490.471580,0.084746
490.805120,0.083631
491.138620,0.078891
491.472080,0.084806
491.805500,0.080893
492.138880,0.082001
492.472220,0.083045
492.805520,0.082402
493.138780,0.084769
493.472000,0.085619
493.805180,0.084584
494.138320,0.083389
494.471420,0.080729
494.804480,0.079560
495.137500,0.085366
495.470480,0.082855
495.803420,0.082494
496.136320,0.082080
496.469180,0.077348
496.802000,0.081296
497.134780,0.086113
497.467520,0.084404
497.800220,0.080189
498.132880,0.078777
498.465500,0.082851
498.798080,0.079909
499.130620,0.083661
499.463120,0.085345
499.795580,0.084708
500.128000,0.079019
500.460380,0.085038
500.792720,0.081124
501.125020,0.081450
501.457280,0.076762
501.789500,0.076963
502.121680,0.087092
502.453820,0.080571
502.785920,0.083542
503.117980,0.082924
503.450000,0.084882
503.781980,0.082711
504.113920,0.080133
504.445820,0.079242
504.777680,0.078588
505.109500,0.079808
505.441280,0.084130
505.773020,0.077501
506.104720,0.078191
506.436380,0.081874
506.768000,0.081384
507.099580,0.076888
507.431120,0.079625
507.762620,0.079417
508.094080,0.082498
508.425500,0.085901
508.756880,0.080476
509.088220,0.082797
509.419520,0.079609
509.750780,0.081537
510.082000,0.084422
510.413180,0.083372
510.744320,0.077773
511.075420,0.083410
511.406480,0.076164
511.737500,0.082870
512.068480,0.085056
512.399420,0.079343
512.730320,0.075289
513.061180,0.077545
513.392000,0.078088
513.722780,0.082613
514.053520,0.076186
514.384220,0.080875
514.714880,0.082336
515.045500,0.077107
515.376080,0.083777
515.706620,0.079883
516.037120,0.075490
516.367580,0.076392
516.698000,0.081863
517.028380,0.082920
517.358720,0.082469
517.689020,0.085064
518.019280,0.081786
518.349500,0.080588
518.679680,0.079758
519.009820,0.077935
519.339920,0.084168
519.669980,0.078855
520.000000,0.079980
520.329980,0.080353
520.659920,0.083845
520.989820,0.082043
521.319680,0.087449
521.649500,0.078149
521.979280,0.084551
522.309020,0.075726
522.638720,0.078853
522.968380,0.083247
523.298000,0.077244
523.627580,0.079152
523.957120,0.083117
524.286620,0.082856
524.616080,0.081179
524.945500,0.079070
525.274880,0.085172
525.604220,0.082298
525.933520,0.079140
526.262780,0.080081
526.592000,0.080162
526.921180,0.085830
527.250320,0.082699
527.579420,0.082365
527.908480,0.081733
528.237500,0.078451
528.566480,0.081836
528.895420,0.083785
529.224320,0.079247
529.553180,0.081928
529.882000,0.082238
530.210780,0.081564
530.539520,0.076222
530.868220,0.083772
531.196880,0.082179
531.525500,0.082809
531.854080,0.080675
532.182620,0.085474
532.511120,0.082135
532.839580,0.082123
533.168000,0.082954
533.496380,0.082192
533.824720,0.082100
534.153020,0.081141
534.481280,0.084141
534.809500,0.082674
535.137680,0.079861
535.465820,0.082045
535.793920,0.082910
536.121980,0.079312
536.450000,0.086258
536.777980,0.084625
537.105920,0.080531
537.433820,0.083061
537.761680,0.081224
538.089500,0.080534
538.417280,0.078790
538.745020,0.079635
539.072720,0.079266
539.400380,0.085470
539.728000,0.084512
540.055580,0.080524
540.383120,0.082278
540.710620,0.085193
541.038080,0.082257
541.365500,0.080147
541.692880,0.079215
542.020220,0.081684
542.347520,0.080402
542.674780,0.079040
543.002000,0.080476
543.329180,0.081024
543.656320,0.083685
543.983420,0.081368
544.310480,0.080870
544.637500,0.079495
544.964480,0.083109
545.291420,0.082419
545.618320,0.080677
545.945180,0.079763
546.272000,0.080603
546.598780,0.079974
546.925520,0.078140
547.252220,0.078904
547.578880,0.081134
547.905500,0.080719
548.232080,0.080247
548.558620,0.083632
548.885120,0.081452
549.211580,0.082289
549.538000,0.084630
549.864380,0.081029
550.190720,0.079755
550.517020,0.082464
550.843280,0.081759
551.169500,0.077926
551.495680,0.079501
551.821820,0.082952
552.147920,0.080677
552.473980,0.081330
552.800000,0.080445
553.125980,0.082842
553.451920,0.080292
553.777820,0.080280
554.103680,0.080216
554.429500,0.079009
554.755280,0.081442
555.081020,0.083556
555.406720,0.079919
555.732380,0.081328
556.058000,0.082145
556.383580,0.079425
556.709120,0.075810
557.034620,0.078539
557.360080,0.079793
557.685500,0.081604
558.010880,0.080069
558.336220,0.080492
558.661520,0.081531
558.986780,0.084692
559.312000,0.080484
559.637180,0.080072
559.962320,0.082236
560.287420,0.081805
560.612480,0.075709
560.937500,0.081498
561.262480,0.080279
561.587420,0.076532
561.912320,0.082903
562.237180,0.082531
562.562000,0.080434
562.886780,0.081754
563.211520,0.082340
563.536220,0.082004
563.860880,0.079970
564.185500,0.080300
564.510080,0.079759
564.834620,0.078898
565.159120,0.079323
565.483580,0.077537
565.808000,0.076807
566.132380,0.081686
566.456720,0.082011
566.781020,0.079520
567.105280,0.082042
567.429500,0.083460
567.753680,0.082087
568.077820,0.081175
568.401920,0.079832
568.725980,0.080076
569.050000,0.078707
569.373980,0.082984
569.697920,0.080394
570.021820,0.081273
570.345680,0.079985
570.669500,0.079741
570.993280,0.083426
571.317020,0.081111
571.640720,0.077807
571.964380,0.080178
572.288000,0.080119
572.611580,0.082366
572.935120,0.084175
573.258620,0.081152
573.582080,0.077496
573.905500,0.082651
574.228880,0.081292
574.552220,0.083914
574.875520,0.083395
575.198780,0.080954
575.522000,0.083578
575.845180,0.080587
576.168320,0.079051
576.491420,0.083939
576.814480,0.083183
577.137500,0.080087
577.460480,0.080464
577.783420,0.079671
578.106320,0.080128
578.429180,0.081301
578.752000,0.079194
579.074780,0.079568
579.397520,0.078760
579.720220,0.080438
580.042880,0.084572
580.365500,0.083719
580.688080,0.082090
581.010620,0.081674
581.333120,0.080828
581.655580,0.080586
581.978000,0.081477
582.300380,0.080493
582.622720,0.080751
582.945020,0.080624
583.267280,0.080430
583.589500,0.082504
583.911680,0.082566
584.233820,0.077117
584.555920,0.084778
584.877980,0.082601
585.200000,0.081645
585.521980,0.079703
585.843920,0.080232
586.165820,0.079829
586.487680,0.080349
586.809500,0.077708
587.131280,0.075421
587.453020,0.079762
587.774720,0.083383
588.096380,0.079638
588.418000,0.077846
588.739580,0.081920
589.061120,0.080506
589.382620,0.081089
589.704080,0.081346
590.025500,0.083333
590.346880,0.079820
590.668220,0.079810
590.989520,0.080976
591.310780,0.081745
591.632000,0.081694
591.953180,0.083310
592.274320,0.078078
592.595420,0.080550
592.916480,0.081228
593.237500,0.081110
593.558480,0.081786
593.879420,0.081467
594.200320,0.084383
594.521180,0.081541
594.842000,0.083020
595.162780,0.078259
595.483520,0.082957
595.804220,0.079216
596.124880,0.081801
596.445500,0.078596
596.766080,0.081474
597.086620,0.082272
597.407120,0.080832
597.727580,0.080615
598.048000,0.081195
598.368380,0.079695
598.688720,0.081520
599.009020,0.080679
599.329280,0.078233
599.649500,0.078975
599.969680,0.081998
600.289820,0.079060
600.609920,0.080684
600.929980,0.080438
601.250000,0.077027
601.569980,0.080475
601.889920,0.080994
602.209820,0.077110
602.529680,0.081022
602.849500,0.079651
603.169280,0.080187
603.489020,0.079989
603.808720,0.080911
604.128380,0.083333
604.448000,0.078729
604.767580,0.079609
605.087120,0.078116
605.406620,0.080605
605.726080,0.081836
606.045500,0.079409
606.364880,0.080238
606.684220,0.080811
607.003520,0.076548
607.322780,0.077317
607.642000,0.078690
607.961180,0.078925
608.280320,0.078886
608.599420,0.075898
608.918480,0.081525
609.237500,0.078052
609.556480,0.081681
609.875420,0.080035
610.194320,0.082669
610.513180,0.080793
610.832000,0.077725
611.150780,0.077801
611.469520,0.081750
611.788220,0.079504
612.106880,0.079916
612.425500,0.077345
612.744080,0.080025
613.062620,0.081957
613.381120,0.078915
613.699580,0.076947
614.018000,0.080467
614.336380,0.079272
614.654720,0.080930
614.973020,0.078988
615.291280,0.080570
615.609500,0.081775
615.927680,0.080346
616.245820,0.080087
616.563920,0.080199
616.881980,0.081696
617.200000,0.078072
617.517980,0.076540
617.835920,0.078596
618.153820,0.078023
618.471680,0.079380
618.789500,0.080554
619.107280,0.080125
619.425020,0.078972
619.742720,0.077841
620.060380,0.075838
620.378000,0.079295
620.695580,0.079821
621.013120,0.077480
621.330620,0.077502
621.648080,0.079495
621.965500,0.079360
622.282880,0.075977
622.600220,0.079280
622.917520,0.078450
623.234780,0.081967
623.552000,0.079249
623.869180,0.078790
624.186320,0.082458
624.503420,0.078056
624.820480,0.078542
625.137500,0.080202
625.454480,0.080338
625.771420,0.077869
626.088320,0.077869
626.405180,0.077785
626.722000,0.077792
627.038780,0.080827
627.355520,0.078125
627.672220,0.076827
627.988880,0.080560
628.305500,0.082580
628.622080,0.081165
628.938620,0.081346
629.255120,0.079029
629.571580,0.079988
629.888000,0.078859
630.204380,0.078245
630.520720,0.082572
630.837020,0.079248
631.153280,0.079736
631.469500,0.078229
631.785680,0.081073
632.101820,0.077805
632.417920,0.078689
632.733980,0.078932
633.050000,0.078532
633.365980,0.078838
633.681920,0.077864
633.997820,0.078302
634.313680,0.080212
634.629500,0.079917
634.945280,0.079472
635.261020,0.081303
635.576720,0.080446
635.892380,0.077258
636.208000,0.079895
636.523580,0.078632
636.839120,0.077302
637.154620,0.079710
637.470080,0.080918
637.785500,0.080891
638.100880,0.077034
638.416220,0.080817
638.731520,0.079083
639.046780,0.082726
639.362000,0.077408
639.677180,0.077099
639.992320,0.078658
640.307420,0.080922
640.622480,0.081770
640.937500,0.082663
641.252480,0.080983
641.567420,0.078147
641.882320,0.081849
642.197180,0.080853
642.512000,0.078366
642.826780,0.077670
643.141520,0.078355
643.456220,0.080520
643.770880,0.078496
644.085500,0.076859
644.400080,0.078652
644.714620,0.079710
645.029120,0.078933
645.343580,0.078168
645.658000,0.078268
645.972380,0.082488
646.286720,0.079858
646.601020,0.081096
646.915280,0.078969
647.229500,0.079945
647.543680,0.080365
647.857820,0.080650
648.171920,0.081118
648.485980,0.077830
648.800000,0.077432
649.113980,0.078160
649.427920,0.080721
649.741820,0.079143
650.055680,0.080362
650.369500,0.079036
650.683280,0.077969
650.997020,0.077833
651.310720,0.079252
651.624380,0.080220
651.938000,0.083102
652.251580,0.080712
652.565120,0.076859
652.878620,0.076858
653.192080,0.077247
653.505500,0.075736
653.818880,0.078760
654.132220,0.077471
654.445520,0.078559
654.758780,0.078187
655.072000,0.077650
655.385180,0.079601
655.698320,0.078308
656.011420,0.079392
656.324480,0.079860
656.637500,0.078216
656.950480,0.074574
657.263420,0.077742
657.576320,0.077972
657.889180,0.078148
658.202000,0.075483
658.514780,0.080679
658.827520,0.079232
659.140220,0.079712
659.452880,0.080640
659.765500,0.079470
660.078080,0.077039
660.390620,0.077910
660.703120,0.077910
661.015580,0.076687
661.328000,0.079345
661.640380,0.077975
661.952720,0.079415
662.265020,0.078765
662.577280,0.079835
662.889500,0.076947
663.201680,0.080089
663.513820,0.077839
663.825920,0.076529
664.137980,0.076923
664.450000,0.072890
664.761980,0.080196
665.073920,0.076599
665.385820,0.078207
665.697680,0.077355
666.009500,0.081477
666.321280,0.079192
666.633020,0.077128
666.944720,0.078868
667.256380,0.074361
667.568000,0.076427
667.879580,0.078912
668.191120,0.078297
668.502620,0.080794
668.814080,0.081404
669.125500,0.075265
669.436880,0.077109
669.748220,0.077882
670.059520,0.081583
670.370780,0.079332
670.682000,0.076106
670.993180,0.079281
671.304320,0.078762
671.615420,0.074574
671.926480,0.077715
672.237500,0.075384
672.548480,0.079134
672.859420,0.080415
673.170320,0.078709
673.481180,0.080014
673.792000,0.077533
674.102780,0.077199
674.413520,0.073642
674.724220,0.078040
675.034880,0.080308
675.345500,0.078045
675.656080,0.080218
675.966620,0.080393
676.277120,0.077993
676.587580,0.076215
676.898000,0.080254
677.208380,0.077634
677.518720,0.076951
677.829020,0.077975
678.139280,0.077465
678.449500,0.079465
678.759680,0.078306
679.069820,0.074721
679.379920,0.078461
679.689980,0.079837
680.000000,0.074766
680.309980,0.075353
680.619920,0.081787
680.929820,0.077268
681.239680,0.077548
681.549500,0.077037
681.859280,0.079910
682.169020,0.079075
682.478720,0.081526
682.788380,0.078996
683.098000,0.079282
683.407580,0.078424
683.717120,0.076577
684.026620,0.077560
684.336080,0.077681
684.645500,0.076693
684.954880,0.077068
685.264220,0.078143
685.573520,0.081081
685.882780,0.082470
686.192000,0.079383
686.501180,0.077563
686.810320,0.079170
687.119420,0.080578
687.428480,0.082795
687.737500,0.080200
688.046480,0.078604
688.355420,0.080347
688.664320,0.075363
688.973180,0.077718
689.282000,0.074846
689.590780,0.074003
689.899520,0.077478
690.208220,0.077599
690.516880,0.079420
690.825500,0.078868
691.134080,0.074791
691.442620,0.076601
691.751120,0.076223
692.059580,0.077570
692.368000,0.074972
692.676380,0.078244
692.984720,0.077481
693.293020,0.076368
693.601280,0.074399
693.909500,0.073780
694.217680,0.076161
694.525820,0.078827
694.833920,0.076307
695.141980,0.075974
695.450000,0.079771
695.757980,0.079068
696.065920,0.076505
696.373820,0.079292
696.681680,0.079018
696.989500,0.077576
697.297280,0.078180
697.605020,0.075397
697.912720,0.080707
698.220380,0.076348
698.528000,0.081092
698.835580,0.077440
699.143120,0.077942
699.450620,0.078361
699.758080,0.076863
700.065500,0.079808
700.372880,0.078000
700.680220,0.074192
700.987520,0.078968
701.294780,0.082725
701.602000,0.078051
701.909180,0.077504
702.216320,0.077826
702.523420,0.078927
702.830480,0.076436
703.137500,0.077553
703.444480,0.080473
703.751420,0.079290
704.058320,0.076771
704.365180,0.082019
704.672000,0.077228
704.978780,0.075302
705.285520,0.071596
705.592220,0.076078
705.898880,0.076438
706.205500,0.077856
706.512080,0.077014
706.818620,0.075464
707.125120,0.075769
707.431580,0.077374
707.738000,0.077734
708.044380,0.074875
708.350720,0.071838
708.657020,0.078156
708.963280,0.077252
709.269500,0.079061
709.575680,0.078978
709.881820,0.075472
710.187920,0.075486
710.493980,0.078355
710.800000,0.078185
711.105980,0.076431
711.411920,0.076074
711.717820,0.074074
712.023680,0.074621
712.329500,0.077681
712.635280,0.077907
712.941020,0.075377
713.246720,0.074308
713.552380,0.078493
713.858000,0.076074
714.163580,0.075770
714.469120,0.072294
714.774620,0.077773
715.080080,0.078916
715.385500,0.074341
715.690880,0.074556
715.996220,0.076070
716.301520,0.075889
716.606780,0.077437
716.912000,0.078352
717.217180,0.073025
717.522320,0.075944
717.827420,0.078112
718.132480,0.078683
718.437500,0.075418
718.742480,0.075000
719.047420,0.072816
719.352320,0.078041
719.657180,0.076043
719.962000,0.076096
720.266780,0.075197
720.571520,0.075808
720.876220,0.076514
721.180880,0.074833
721.485500,0.074802
721.790080,0.078556
722.094620,0.078902
722.399120,0.077553
722.703580,0.073296
723.008000,0.076326
723.312380,0.076625
723.616720,0.073098
723.921020,0.071893
724.225280,0.078534
724.529500,0.075306
724.833680,0.080516
725.137820,0.075771
725.441920,0.076683
725.745980,0.076510
726.050000,0.074876
726.353980,0.079315
726.657920,0.076923
726.961820,0.073059
727.265680,0.078595
727.569500,0.077239
727.873280,0.074827
728.177020,0.081990
728.480720,0.077315
728.784380,0.078441
729.088000,0.074423
729.391580,0.077215
729.695120,0.076296
729.998620,0.075526
730.302080,0.076406
730.605500,0.074721
730.908880,0.073983
731.212220,0.074437
731.515520,0.073623
731.818780,0.074757
732.122000,0.073819
732.425180,0.076885
732.728320,0.075359
733.031420,0.072180
733.334480,0.073980
733.637500,0.074597
733.940480,0.071136
734.243420,0.074414
734.546320,0.074689
734.849180,0.075930
735.152000,0.073651
735.454780,0.077996
735.757520,0.076396
736.060220,0.076883
736.362880,0.079832
736.665500,0.071540
736.968080,0.078452
737.270620,0.076211
737.573120,0.073690
737.875580,0.077515
738.178000,0.074034
738.480380,0.073514
738.782720,0.074155
739.085020,0.073789
739.387280,0.075942
739.689500,0.075311
739.991680,0.079730
740.293820,0.077944
740.595920,0.080690
740.897980,0.079051
741.200000,0.081884
741.501980,0.077937
741.803920,0.073761
742.105820,0.076142
742.407680,0.077461
742.709500,0.076136
743.011280,0.073271
743.313020,0.075942
743.614720,0.078932
743.916380,0.075581
744.218000,0.079356
744.519580,0.074275
744.821120,0.077246
745.122620,0.075494
745.424080,0.073918
745.725500,0.074231
746.026880,0.072660
746.328220,0.077682
746.629520,0.076460
746.930780,0.074755
747.232000,0.076027
747.533180,0.078707
747.834320,0.073037
748.135420,0.073959
748.436480,0.076731
748.737500,0.075355
749.038480,0.078192
749.339420,0.074051
749.640320,0.076053
749.941180,0.078076
750.242000,0.069724
750.542780,0.076303
750.843520,0.076874
751.144220,0.076923
751.444880,0.076728
751.745500,0.072727
752.046080,0.076331
752.346620,0.068299
752.647120,0.070542
752.947580,0.077620
753.248000,0.076080
753.548380,0.072869
753.848720,0.077914
754.149020,0.071567
754.449280,0.076822
754.749500,0.074983
755.049680,0.074000
755.349820,0.072715
755.649920,0.079974
755.949980,0.076311
756.250000,0.081525
756.549980,0.075248
756.849920,0.073419
757.149820,0.072522
757.449680,0.077888
757.749500,0.070893
758.049280,0.074403
758.349020,0.075800
758.648720,0.071084
758.948380,0.079038
759.248000,0.073450
759.547580,0.075992
759.847120,0.079945
760.146620,0.079161
760.446080,0.077285
760.745500,0.078322
761.044880,0.077415
761.344220,0.081967
761.643520,0.078390
761.942780,0.078376
762.242000,0.080622
762.541180,0.073944
762.840320,0.075140
763.139420,0.071027
763.438480,0.071087
763.737500,0.072364
764.036480,0.078267
764.335420,0.072689
764.634320,0.076230
764.933180,0.081507
765.232000,0.077724
765.530780,0.074386
765.829520,0.074126
766.128220,0.077244
766.426880,0.075338
766.725500,0.077450
767.024080,0.080247
767.322620,0.075380
767.621120,0.073848
767.919580,0.065529
768.218000,0.076607
768.516380,0.077079
768.814720,0.069273
769.113020,0.073053
769.411280,0.077348
769.709500,0.079161
770.007680,0.066121
770.305820,0.072346
770.603920,0.074124
770.901980,0.074454
771.200000,0.071332
771.497980,0.076408
771.795920,0.070234
772.093820,0.080882
772.391680,0.075148
772.689500,0.066892
772.987280,0.070707
773.285020,0.074504
773.582720,0.075000
773.880380,0.078243
774.178000,0.073620
774.475580,0.076356
774.773120,0.072289
775.070620,0.079108
775.368080,0.078824
775.665500,0.071189
775.962880,0.075384
776.260220,0.076043
776.557520,0.075384
776.854780,0.076403
777.152000,0.068302
777.449180,0.078894
777.746320,0.074597
778.043420,0.077763
778.340480,0.071719
778.637500,0.070994
778.934480,0.072629
779.231420,0.069878
779.528320,0.074816
779.825180,0.076416
780.122000,0.074369
780.418780,0.080027
780.715520,0.079812
781.012220,0.076027
781.308880,0.077755
781.605500,0.072603
781.902080,0.073238
782.198620,0.079289
782.495120,0.074760
782.791580,0.077029
783.088000,0.074534
783.384380,0.081155
783.680720,0.073187
783.977020,0.072264
784.273280,0.075524
784.569500,0.074074
784.865680,0.079277
785.161820,0.070833
785.457920,0.069993
785.753980,0.071877
786.050000,0.073204
786.345980,0.079167
786.641920,0.074254
786.937820,0.079772
787.233680,0.077940
787.529500,0.079057
787.825280,0.075071
788.121020,0.075071
788.416720,0.072689
788.712380,0.073343
789.008000,0.077195
789.303580,0.074912
789.599120,0.074182
789.894620,0.079422
790.190080,0.071791
790.485500,0.069834
790.780880,0.075269
791.076220,0.075758
791.371520,0.074800
791.666780,0.077818
791.962000,0.077149
792.257180,0.075403
792.552320,0.079768
792.847420,0.070597
793.142480,0.076190
793.437500,0.070912
793.732480,0.073884
794.027420,0.070475
794.322320,0.072334
794.617180,0.075780
794.912000,0.075037
795.206780,0.074571
795.501520,0.075285
795.796220,0.078519
796.090880,0.074604
796.385500,0.068216
796.680080,0.073298
796.974620,0.076347
797.269120,0.074943
797.563580,0.070992
797.858000,0.074412
798.152380,0.073473
798.446720,0.080000
798.741020,0.071649
799.035280,0.075311
799.329500,0.076212
799.623680,0.073643
