399.985280,0.081081
400.329500,0.081081
400.673680,0.075949
401.017820,0.073529
401.361920,0.015152
401.705980,0.024390
402.050000,0.038961
402.393980,0.070588
402.737920,0.044944
403.081820,0.051546
403.425680,0.127907
403.769500,0.010417
404.113280,0.022989
404.457020,0.112360
404.800720,0.021739
405.144380,0.090909
405.488000,0.032258
405.831580,0.041237
406.175120,0.063830
406.518620,0.100000
406.862080,0.072165
407.205500,0.010417
407.548880,0.030612
407.892220,0.088235
408.235520,0.106383
408.578780,0.142857
408.922000,0.067308
409.265180,0.080808
409.608320,0.040404
409.951420,0.103093
410.294480,0.058824
410.637500,0.021739
410.980480,0.127451
411.323420,0.061224
411.666320,0.073394
412.009180,0.127273
412.352000,0.000000
412.694780,0.128440
413.037520,0.073394
413.380220,0.081081
413.722880,0.125000
414.065500,0.099099
414.408080,0.070796
414.750620,0.035398
415.093120,0.066116
415.435580,0.075630
415.778000,0.083333
416.120380,0.025210
416.462720,0.079365
416.805020,0.090226
417.147280,0.104478
417.489500,0.085714
417.831680,0.082192
418.173820,0.035461
418.515920,0.048951
418.857980,0.044304
419.200000,0.044872
419.541980,0.094675
419.883920,0.078652
420.225820,0.075145
420.567680,0.072626
420.909500,0.081967
421.251280,0.104167
421.593020,0.102041
421.934720,0.080808
422.276380,0.071795
422.618000,0.093137
422.959580,0.102941
423.301120,0.086758
423.642620,0.069565
423.984080,0.060465
424.325500,0.076233
424.666880,0.068966
425.008220,0.075630
425.349520,0.076271
425.690780,0.069231
426.032000,0.050980
426.373180,0.091286
426.714320,0.070312
427.055420,0.069498
427.396480,0.108614
427.737500,0.047431
428.078480,0.079051
428.419420,0.080321
428.760320,0.072797
429.101180,0.102362
429.442000,0.091954
429.782780,0.076923
430.123520,0.078431
430.464220,0.084871
430.804880,0.095785
431.145500,0.083636
431.486080,0.093633
431.826620,0.081395
432.167120,0.080882
432.507580,0.076087
432.848000,0.068345
433.188380,0.086643
433.528720,0.064151
433.869020,0.085714
434.209280,0.070175
434.549500,0.073171
434.889680,0.101010
435.229820,0.085324
435.569920,0.051903
435.909980,0.067961
436.250000,0.074576
436.589980,0.068111
436.929920,0.085714
437.269820,0.081505
437.609680,0.079882
437.949500,0.096386
438.289280,0.093484
438.629020,0.093023
438.968720,0.078488
439.308380,0.067751
439.648000,0.084932
439.987580,0.074074
440.327120,0.074667
440.666620,0.080519
441.006080,0.076726
441.345500,0.068796
441.684880,0.074163
442.024220,0.069479
442.363520,0.064286
442.702780,0.070455
443.042000,0.083700
443.381180,0.081897
443.720320,0.079914
444.059420,0.084034
444.398480,0.071130
444.737500,0.077869
445.076480,0.071429
445.415420,0.073852
445.754320,0.085239
446.093180,0.086239
446.432000,0.088346
446.770780,0.083491
447.109520,0.082721
447.448220,0.084079
447.786880,0.073345
448.125500,0.077586
448.464080,0.087500
448.802620,0.078014
449.141120,0.074394
449.479580,0.085664
449.818000,0.091222
450.156380,0.075251
450.494720,0.071074
450.833020,0.080420
451.171280,0.068493
451.509500,0.080139
451.847680,0.079258
452.185820,0.082616
452.523920,0.091065
452.861980,0.067454
453.200000,0.079734
453.537980,0.070588
453.875920,0.077311
454.213820,0.071918
454.551680,0.074503
454.889500,0.079258
455.227280,0.064057
455.565020,0.087102
455.902720,0.084859
456.240380,0.069884
456.578000,0.080139
456.915580,0.081174
457.253120,0.070724
457.590620,0.082102
457.928080,0.077441
458.265500,0.079392
458.602880,0.082792
458.940220,0.077834
459.277520,0.072000
459.614780,0.078560
459.952000,0.085404
460.289180,0.083861
460.626320,0.067717
460.963420,0.075929
461.300480,0.082569
461.637500,0.070878
461.974480,0.085627
462.311420,0.078987
462.648320,0.087848
462.985180,0.071736
463.322000,0.080357
463.658780,0.075967
463.995520,0.070151
464.332220,0.063712
464.668880,0.086022
465.005500,0.081769
465.342080,0.080666
465.678620,0.079951
466.015120,0.075032
466.351580,0.082174
466.688000,0.081608
467.024380,0.072904
467.360720,0.075000
467.697020,0.083144
468.033280,0.080000
468.369500,0.079470
468.705680,0.084555
469.041820,0.073958
469.377920,0.078091
469.713980,0.076210
470.050000,0.085990
470.385980,0.082192
470.721920,0.079334
471.057820,0.077973
471.393680,0.079514
471.729500,0.075070
472.065280,0.077818
472.401020,0.073582
472.736720,0.082897
473.072380,0.075404
473.408000,0.075718
473.743580,0.076125
474.079120,0.080103
474.414620,0.077184
474.750080,0.074858
475.085500,0.080592
475.420880,0.077435
475.756220,0.077678
476.091520,0.077579
476.426780,0.071197
476.762000,0.071601
477.097180,0.084800
477.432320,0.074313
477.767420,0.080065
478.102480,0.074016
478.437500,0.077997
478.772480,0.078014
479.107420,0.074858
479.442320,0.074341
479.777180,0.078759
480.112000,0.075501
480.446780,0.070928
480.781520,0.076490
481.116220,0.075990
481.450880,0.076503
481.785500,0.083070
482.120080,0.077586
482.454620,0.078477
482.789120,0.075637
483.123580,0.078660
483.458000,0.074367
483.792380,0.075080
484.126720,0.077220
484.461020,0.074161
484.795280,0.077872
485.129500,0.076383
485.463680,0.075194
485.797820,0.075428
486.131920,0.076511
486.465980,0.074903
486.800000,0.078626
487.133980,0.074018
487.467920,0.074216
487.801820,0.079329
488.135680,0.073541
488.469500,0.071861
488.803280,0.075780
489.137020,0.073993
489.470720,0.080119
489.804380,0.072012
490.138000,0.076409
490.471580,0.075903
490.805120,0.077913
491.138620,0.076759
491.472080,0.080565
491.805500,0.082287
492.138880,0.079222
492.472220,0.078201
492.805520,0.078212
493.138780,0.077877
493.472000,0.079599
493.805180,0.081855
494.138320,0.074716
494.471420,0.080078
494.804480,0.077620
495.137500,0.081515
495.470480,0.084130
495.803420,0.079345
496.136320,0.078321
496.469180,0.076734
496.802000,0.079462
497.134780,0.077016
497.467520,0.079511
497.800220,0.079009
498.132880,0.075250
498.465500,0.080533
498.798080,0.076484
499.130620,0.083099
499.463120,0.075800
499.795580,0.078658
500.128000,0.080654
500.460380,0.079656
500.792720,0.075292
501.125020,0.074094
501.457280,0.075718
501.789500,0.081095
502.121680,0.081389
502.453820,0.080571
502.785920,0.078039
503.117980,0.074583
503.450000,0.081868
503.781980,0.074240
504.113920,0.075391
504.445820,0.075352
504.777680,0.075294
505.109500,0.072115
505.441280,0.076482
505.773020,0.077501
506.104720,0.074423
506.436380,0.078561
506.768000,0.074369
507.099580,0.079176
507.431120,0.074473
507.762620,0.077538
508.094080,0.075661
508.425500,0.077498
508.756880,0.073617
509.088220,0.076357
509.419520,0.076816
509.750780,0.076382
510.082000,0.073694
510.413180,0.076923
510.744320,0.081914
511.075420,0.076994
511.406480,0.076634
511.737500,0.077315
512.068480,0.076598
512.399420,0.077934
512.730320,0.073903
513.061180,0.078972
513.392000,0.077142
513.722780,0.075889
514.053520,0.075228
514.384220,0.073739
514.714880,0.078985
515.045500,0.069923
515.376080,0.074576
515.706620,0.077448
516.037120,0.074020
516.367580,0.073435
516.698000,0.073039
517.028380,0.074975
517.358720,0.073086
517.689020,0.080119
518.019280,0.073758
518.349500,0.076533
518.679680,0.074710
519.009820,0.072874
519.339920,0.079158
519.669980,0.074837
520.000000,0.076414
520.329980,0.074132
520.659920,0.076176
520.989820,0.079979
521.319680,0.077675
521.649500,0.074036
521.979280,0.077766
522.309020,0.073651
522.638720,0.073221
522.968380,0.079628
523.298000,0.074635
523.627580,0.079152
523.957120,0.079481
524.286620,0.077645
524.616080,0.079111
524.945500,0.079070
525.274880,0.081580
525.604220,0.076605
525.933520,0.074423
526.262780,0.075520
526.592000,0.074581
526.921180,0.078720
527.250320,0.078133
527.579420,0.080849
527.908480,0.078287
528.237500,0.078947
528.566480,0.076846
528.895420,0.076885
529.224320,0.078257
529.553180,0.079036
529.882000,0.079805
530.210780,0.078185
530.539520,0.074784
530.868220,0.078028
531.196880,0.076923
531.525500,0.079903
531.854080,0.075516
532.182620,0.075199
532.511120,0.074246
532.839580,0.081670
533.168000,0.077028
533.496380,0.078539
533.824720,0.076716
534.153020,0.075791
534.481280,0.075771
534.809500,0.079595
535.137680,0.078993
535.465820,0.077320
535.793920,0.077411
536.121980,0.078473
536.450000,0.076533
536.777980,0.077084
537.105920,0.076795
537.433820,0.079787
537.761680,0.080000
538.089500,0.075678
538.417280,0.074413
538.745020,0.076862
539.072720,0.074190
539.400380,0.074204
539.728000,0.076864
540.055580,0.077528
540.383120,0.081162
540.710620,0.076637
541.038080,0.077462
541.365500,0.075735
541.692880,0.079215
542.020220,0.077006
542.347520,0.075736
542.674780,0.078335
543.002000,0.074878
543.329180,0.077166
543.656320,0.081224
543.983420,0.076239
544.310480,0.076453
544.637500,0.077789
544.964480,0.079071
545.291420,0.076770
545.618320,0.075697
545.945180,0.076467
546.272000,0.074050
546.598780,0.075713
546.925520,0.076162
547.252220,0.073292
547.578880,0.081134
547.905500,0.075490
548.232080,0.075374
548.558620,0.078100
548.885120,0.075891
549.211580,0.078753
549.538000,0.077821
549.864380,0.074920
550.190720,0.076203
550.517020,0.076923
550.843280,0.076221
551.169500,0.073155
551.495680,0.076216
551.821820,0.080340
552.147920,0.077098
552.473980,0.077379
552.800000,0.075867
553.125980,0.077603
553.451920,0.077306
553.777820,0.074617
554.103680,0.074823
554.429500,0.075996
554.755280,0.076769
555.081020,0.075535
555.406720,0.078226
555.732380,0.076245
556.058000,0.075356
556.383580,0.073947
556.709120,0.077877
557.034620,0.077506
557.360080,0.074957
557.685500,0.079184
558.010880,0.073830
558.336220,0.073462
558.661520,0.077632
558.986780,0.074770
559.312000,0.075142
559.637180,0.076840
559.962320,0.077608
560.287420,0.079337
560.612480,0.076426
560.937500,0.075991
561.262480,0.075513
561.587420,0.077621
561.912320,0.077377
562.237180,0.075870
562.562000,0.074822
562.886780,0.075065
563.211520,0.075261
563.536220,0.076438
563.860880,0.075820
564.185500,0.075797
564.510080,0.077126
564.834620,0.077410
565.159120,0.074812
565.483580,0.074876
565.808000,0.075293
566.132380,0.077956
566.456720,0.075586
566.781020,0.078770
567.105280,0.075614
567.429500,0.076631
567.753680,0.079402
568.077820,0.074217
568.401920,0.076776
568.725980,0.078178
569.050000,0.076806
569.373980,0.077655
569.697920,0.077361
570.021820,0.076030
570.345680,0.074627
570.669500,0.077833
570.993280,0.077889
571.317020,0.078919
571.640720,0.074843
571.964380,0.078322
572.288000,0.077151
572.611580,0.076750
572.935120,0.077067
573.258620,0.077786
573.582080,0.076751
573.905500,0.071854
574.228880,0.078322
574.552220,0.077318
574.875520,0.077066
575.198780,0.077701
575.522000,0.074780
575.845180,0.076289
576.168320,0.077255
576.491420,0.078852
576.814480,0.077758
577.137500,0.077561
577.460480,0.075390
577.783420,0.076813
578.106320,0.080128
578.429180,0.076352
578.752000,0.074679
579.074780,0.077208
579.397520,0.074241
579.720220,0.074003
580.042880,0.074661
580.365500,0.077101
580.688080,0.077341
581.010620,0.077287
581.333120,0.077154
581.655580,0.076590
581.978000,0.075491
582.300380,0.076923
582.622720,0.079103
582.945020,0.079649
583.267280,0.079453
583.589500,0.074478
583.911680,0.074627
584.233820,0.073969
584.555920,0.078159
584.877980,0.075691
585.200000,0.075813
585.521980,0.074143
585.843920,0.077181
586.165820,0.073736
586.487680,0.077942
586.809500,0.076208
587.131280,0.076013
587.453020,0.080060
587.774720,0.078060
588.096380,0.076429
588.418000,0.077261
588.739580,0.078471
589.061120,0.075906
589.382620,0.076504
589.704080,0.077139
590.025500,0.077911
590.346880,0.077853
590.668220,0.080370
590.989520,0.076816
591.310780,0.073184
591.632000,0.080328
591.953180,0.076114
592.274320,0.076713
592.595420,0.078664
592.916480,0.075251
593.237500,0.077338
593.558480,0.076137
593.879420,0.077421
594.200320,0.075810
594.521180,0.077556
594.842000,0.077378
595.162780,0.077457
595.483520,0.073917
595.804220,0.077336
596.124880,0.078870
596.445500,0.074142
596.766080,0.080398
597.086620,0.076964
597.407120,0.075303
597.727580,0.077168
598.048000,0.076699
598.368380,0.076013
598.688720,0.077851
599.009020,0.078291
599.329280,0.077701
599.649500,0.075806
599.969680,0.078526
600.289820,0.078259
600.609920,0.074005
600.929980,0.073490
601.250000,0.073514
601.569980,0.075344
601.889920,0.078321
602.209820,0.075758
602.529680,0.078275
602.849500,0.075832
603.169280,0.078534
603.489020,0.073069
603.808720,0.072134
604.128380,0.076159
604.448000,0.074862
604.767580,0.075419
605.087120,0.073407
605.406620,0.076406
605.726080,0.076419
606.045500,0.075230
606.364880,0.072016
606.684220,0.078527
607.003520,0.077695
607.322780,0.076748
607.642000,0.074957
607.961180,0.076034
608.280320,0.078306
608.599420,0.075898
608.918480,0.073900
609.237500,0.075704
609.556480,0.075170
609.875420,0.072357
610.194320,0.077059
610.513180,0.077834
610.832000,0.075640
611.150780,0.075999
611.469520,0.076018
611.788220,0.074365
612.106880,0.077503
612.425500,0.075213
612.744080,0.076639
613.062620,0.074618
613.381120,0.077087
613.699580,0.077560
614.018000,0.079853
614.336380,0.077113
614.654720,0.075349
614.973020,0.075902
615.291280,0.081190
615.609500,0.074485
615.927680,0.075402
616.245820,0.076685
616.563920,0.077090
616.881980,0.077331
617.200000,0.077138
617.517980,0.076229
617.835920,0.075489
618.153820,0.076158
618.471680,0.073798
618.789500,0.073002
619.107280,0.076369
619.425020,0.076118
619.742720,0.075643
620.060380,0.077405
620.378000,0.073317
620.695580,0.075670
621.013120,0.076535
621.330620,0.079385
621.648080,0.078233
621.965500,0.075910
622.282880,0.075977
622.600220,0.077385
622.917520,0.077190
623.234780,0.077788
623.552000,0.076703
623.869180,0.075008
624.186320,0.076409
624.503420,0.072727
624.820480,0.075715
625.137500,0.078308
625.454480,0.076586
625.771420,0.075662
626.088320,0.072509
626.405180,0.077474
626.722000,0.078105
627.038780,0.077694
627.355520,0.075625
627.672220,0.075272
627.988880,0.074028
628.305500,0.076348
628.622080,0.078067
628.938620,0.077982
629.255120,0.076540
629.571580,0.075697
629.888000,0.074563
630.204380,0.076711
630.520720,0.074954
630.837020,0.077706
631.153280,0.077338
631.469500,0.076410
631.785680,0.077758
632.101820,0.079011
632.417920,0.076304
632.733980,0.078631
633.050000,0.079442
633.365980,0.074096
633.681920,0.076074
633.997820,0.075613
634.313680,0.077853
634.629500,0.076968
634.945280,0.077419
635.261020,0.076900
635.576720,0.076336
635.892380,0.073773
636.208000,0.075828
636.523580,0.073955
636.839120,0.075275
637.154620,0.075652
637.470080,0.076040
637.785500,0.076495
638.100880,0.073270
638.416220,0.077941
638.731520,0.076504
639.046780,0.076027
639.362000,0.073968
639.677180,0.079954
639.992320,0.076966
640.307420,0.076426
640.622480,0.076729
640.937500,0.077670
641.252480,0.077911
641.567420,0.077863
641.882320,0.072105
642.197180,0.076642
642.512000,0.074727
642.826780,0.075451
643.141520,0.076966
643.456220,0.075540
643.770880,0.077944
644.085500,0.074343
644.400080,0.073596
644.714620,0.076087
645.029120,0.074532
645.343580,0.072682
645.658000,0.076325
645.972380,0.078926
646.286720,0.076043
646.601020,0.076114
646.915280,0.077324
647.229500,0.075549
647.543680,0.074013
647.857820,0.078998
648.171920,0.075421
648.485980,0.075089
648.800000,0.077156
649.113980,0.075665
649.427920,0.078502
649.741820,0.077494
650.055680,0.078168
650.369500,0.078756
650.683280,0.076027
650.997020,0.076733
651.310720,0.073198
651.624380,0.073901
651.938000,0.076177
652.251580,0.075424
652.565120,0.074623
652.878620,0.080236
653.192080,0.076685
653.505500,0.073773
653.818880,0.075348
654.132220,0.076616
654.445520,0.073454
654.758780,0.078754
655.072000,0.073639
655.385180,0.074465
655.698320,0.075736
656.011420,0.072800
656.324480,0.074031
656.637500,0.071553
656.950480,0.072225
657.263420,0.074195
657.576320,0.073229
657.889180,0.077853
658.202000,0.073671
658.514780,0.075320
658.827520,0.077431
659.140220,0.075517
659.452880,0.073996
659.765500,0.075557
660.078080,0.074029
660.390620,0.075466
660.703120,0.076383
661.015580,0.076994
661.328000,0.078715
661.640380,0.075179
661.952720,0.078792
662.265020,0.078765
662.577280,0.075700
662.889500,0.076947
663.201680,0.074984
663.513820,0.074622
663.825920,0.073327
664.137980,0.075630
664.450000,0.076087
664.761980,0.073977
665.073920,0.076923
665.385820,0.073953
665.697680,0.074050
666.009500,0.073495
666.321280,0.077203
666.633020,0.077128
666.944720,0.071453
667.256380,0.074024
667.568000,0.072011
667.879580,0.074490
668.191120,0.074863
668.502620,0.071893
668.814080,0.074035
669.125500,0.073555
669.436880,0.073997
669.748220,0.077189
670.059520,0.075630
670.370780,0.075157
670.682000,0.074336
670.993180,0.073996
671.304320,0.074543
671.615420,0.074574
671.926480,0.075940
672.237500,0.072526
672.548480,0.074876
672.859420,0.076126
673.170320,0.076170
673.481180,0.076032
673.792000,0.072124
674.102780,0.077199
674.413520,0.074371
674.724220,0.073321
675.034880,0.075174
675.345500,0.076586
675.656080,0.071869
675.966620,0.071299
676.277120,0.074698
676.587580,0.074374
676.898000,0.075028
677.208380,0.076525
677.518720,0.072939
677.829020,0.076866
678.139280,0.075612
678.449500,0.076123
678.759680,0.079805
679.069820,0.076208
679.379920,0.077707
679.689980,0.076123
680.000000,0.074019
680.309980,0.076095
680.619920,0.072700
680.929820,0.072042
681.239680,0.073486
681.549500,0.073704
681.859280,0.075056
682.169020,0.073853
682.478720,0.076290
682.788380,0.074197
683.098000,0.078160
683.407580,0.073546
683.717120,0.071697
684.026620,0.074925
684.336080,0.074649
684.645500,0.074822
684.954880,0.074424
685.264220,0.077010
685.573520,0.078036
685.882780,0.079018
686.192000,0.075621
686.501180,0.071131
686.810320,0.074558
687.119420,0.073736
687.428480,0.077858
687.737500,0.075595
688.046480,0.073236
688.355420,0.075820
688.664320,0.072686
688.973180,0.075038
689.282000,0.075231
689.590780,0.072469
689.899520,0.076339
690.208220,0.074924
690.516880,0.075220
690.825500,0.075094
691.134080,0.074412
691.442620,0.076601
691.751120,0.074706
692.059580,0.074513
692.368000,0.075350
692.676380,0.072519
692.984720,0.074046
693.293020,0.073328
693.601280,0.070965
693.909500,0.073023
694.217680,0.075781
694.525820,0.077685
694.833920,0.074781
695.141980,0.074817
695.450000,0.074809
695.757980,0.074484
696.065920,0.074563
696.373820,0.075058
696.681680,0.072881
696.989500,0.076032
697.297280,0.076235
697.605020,0.076190
697.912720,0.074174
698.220380,0.076348
698.528000,0.072785
698.835580,0.075464
699.143120,0.075994
699.450620,0.075179
699.758080,0.075294
700.065500,0.075020
700.372880,0.074400
700.680220,0.071799
700.987520,0.076190
701.294780,0.075020
701.602000,0.074881
701.909180,0.079889
702.216320,0.073133
702.523420,0.074980
702.830480,0.074455
703.137500,0.076773
703.444480,0.077318
703.751420,0.076134
704.058320,0.072022
704.365180,0.073344
704.672000,0.075644
704.978780,0.075693
705.285520,0.070031
705.592220,0.074510
705.898880,0.075650
706.205500,0.074335
706.512080,0.073065
706.818620,0.075464
707.125120,0.073462
707.431580,0.069558
707.738000,0.072656
708.044380,0.072945
708.350720,0.071074
708.657020,0.076983
708.963280,0.074922
709.269500,0.075538
709.575680,0.075442
709.881820,0.073899
710.187920,0.073930
710.493980,0.075252
710.800000,0.073227
711.105980,0.073042
711.411920,0.076074
711.717820,0.072904
712.023680,0.071512
712.329500,0.075710
712.635280,0.076357
712.941020,0.073058
713.246720,0.071937
713.552380,0.074176
713.858000,0.074103
714.163580,0.070245
714.469120,0.074639
714.774620,0.073826
715.080080,0.072634
715.385500,0.075540
715.690880,0.072189
715.996220,0.073693
716.301520,0.075889
716.606780,0.075079
716.912000,0.075525
717.217180,0.073025
717.522320,0.073559
717.827420,0.072417
718.132480,0.073464
718.437500,0.072564
718.742480,0.073387
719.047420,0.074029
719.352320,0.075135
719.657180,0.077269
719.962000,0.074028
720.266780,0.076444
720.571520,0.073322
720.876220,0.074059
721.180880,0.076087
721.485500,0.069787
721.790080,0.076433
722.094620,0.074614
722.399120,0.071090
722.703580,0.073725
723.008000,0.074601
723.312380,0.072751
723.616720,0.070548
723.921020,0.071026
724.225280,0.073298
724.529500,0.075744
724.833680,0.073399
725.137820,0.072247
725.441920,0.073562
725.745980,0.072036
726.050000,0.070816
726.353980,0.070302
726.657920,0.071525
726.961820,0.074886
727.265680,0.074896
727.569500,0.076782
727.873280,0.072979
728.177020,0.076923
728.480720,0.071296
728.784380,0.072334
729.088000,0.072068
729.391580,0.071530
729.695120,0.073417
729.998620,0.078394
730.302080,0.080250
730.605500,0.073265
730.908880,0.073983
731.212220,0.075416
731.515520,0.074110
731.818780,0.070874
732.122000,0.073819
732.425180,0.074914
732.728320,0.070897
733.031420,0.072180
733.334480,0.077041
733.637500,0.069556
733.940480,0.072671
734.243420,0.075433
734.546320,0.073133
734.849180,0.073864
735.152000,0.071577
735.454780,0.070248
735.757520,0.071128
736.060220,0.075829
736.362880,0.075630
736.665500,0.072063
736.968080,0.073616
737.270620,0.078389
737.573120,0.076419
737.875580,0.072018
738.178000,0.070768
738.480380,0.070811
738.782720,0.074155
739.085020,0.068833
739.387280,0.073171
739.689500,0.075878
739.991680,0.080853
740.293820,0.076285
740.595920,0.071230
740.897980,0.077357
741.200000,0.075715
741.501980,0.077364
741.803920,0.070946
742.105820,0.071630
742.407680,0.075131
742.709500,0.068182
743.011280,0.069754
743.313020,0.075362
743.614720,0.070807
743.916380,0.071512
744.218000,0.076372
744.519580,0.071860
744.821120,0.072455
745.122620,0.070701
745.424080,0.069712
745.725500,0.074231
746.026880,0.070197
746.328220,0.074599
746.629520,0.071644
746.930780,0.074142
747.232000,0.072961
747.533180,0.078096
747.834320,0.075472
748.135420,0.073959
748.436480,0.071740
748.737500,0.072267
749.038480,0.069640
749.339420,0.074673
749.640320,0.072282
749.941180,0.074953
750.242000,0.069724
750.542780,0.072581
750.843520,0.080077
751.144220,0.079487
751.444880,0.076094
751.745500,0.069481
752.046080,0.078255
752.346620,0.070876
752.647120,0.066623
752.947580,0.073092
753.248000,0.076080
753.548380,0.076122
753.848720,0.079202
754.149020,0.067054
754.449280,0.078135
754.749500,0.070338
755.049680,0.073333
755.349820,0.069380
755.649920,0.074686
755.949980,0.074320
756.250000,0.078238
756.549980,0.065347
756.849920,0.069341
757.149820,0.075848
757.449680,0.075908
757.749500,0.077028
758.049280,0.076451
758.349020,0.073018
758.648720,0.075224
758.948380,0.070790
759.248000,0.075472
759.547580,0.069267
759.847120,0.069607
760.146620,0.073072
760.446080,0.077957
760.745500,0.072028
761.044880,0.075284
761.344220,0.075552
761.643520,0.074859
761.942780,0.076277
762.242000,0.070721
762.541180,0.071831
762.840320,0.077949
763.139420,0.070323
763.438480,0.070403
763.737500,0.073053
764.036480,0.074074
764.335420,0.076217
764.634320,0.069993
764.933180,0.078767
765.232000,0.069396
765.530780,0.070175
765.829520,0.078322
766.128220,0.078636
766.426880,0.074627
766.725500,0.077450
767.024080,0.068587
767.322620,0.066390
767.621120,0.074526
767.919580,0.076451
768.218000,0.072503
768.516380,0.079784
768.814720,0.069959
769.113020,0.070986
769.411280,0.075276
769.709500,0.071719
770.007680,0.068166
770.305820,0.070318
770.603920,0.072776
770.901980,0.073087
771.200000,0.074049
771.497980,0.073727
771.795920,0.072910
772.093820,0.077540
772.391680,0.073171
772.689500,0.070270
772.987280,0.070034
773.285020,0.073137
773.582720,0.068919
773.880380,0.068634
774.178000,0.068166
774.475580,0.077026
774.773120,0.065596
775.070620,0.077079
775.368080,0.076820
775.665500,0.062458
775.962880,0.077385
776.260220,0.072678
776.557520,0.070714
776.854780,0.074375
777.152000,0.070955
777.449180,0.076871
777.746320,0.067876
778.043420,0.072988
778.340480,0.068336
778.637500,0.074375
778.934480,0.079354
779.231420,0.071235
779.528320,0.072144
779.825180,0.074440
780.122000,0.072377
780.418780,0.074555
780.715520,0.072435
781.012220,0.078767
781.308880,0.074375
781.605500,0.072603
781.902080,0.074606
782.198620,0.065619
782.495120,0.074074
782.791580,0.073590
783.088000,0.067633
783.384380,0.076341
783.680720,0.070451
783.977020,0.073641
784.273280,0.072727
784.569500,0.070580
784.865680,0.077191
785.161820,0.077083
785.457920,0.072072
785.753980,0.076762
786.050000,0.071823
786.345980,0.076389
786.641920,0.073560
786.937820,0.073362
787.233680,0.075157
787.529500,0.075589
787.825280,0.077904
788.121020,0.072946
788.416720,0.071277
788.712380,0.071227
789.008000,0.070822
789.303580,0.066431
789.599120,0.073455
789.894620,0.079422
790.190080,0.068891
790.485500,0.069834
790.780880,0.073118
791.076220,0.067821
791.371520,0.071169
791.666780,0.080000
791.962000,0.068332
792.257180,0.071010
792.552320,0.081218
792.847420,0.077875
793.142480,0.078388
793.437500,0.067294
793.732480,0.072421
794.027420,0.066766
794.322320,0.069351
794.617180,0.071322
794.912000,0.071322
795.206780,0.070097
795.501520,0.072243
795.796220,0.071111
796.090880,0.072344
796.385500,0.068966
796.680080,0.074794
796.974620,0.080838
797.269120,0.070401
797.563580,0.074046
797.858000,0.081245
798.152380,0.073473
798.446720,0.076154
798.741020,0.072419
799.035280,0.080745
799.329500,0.076212
799.623680,0.077519
