399.985280,0.067568
400.329500,0.054054
400.673680,0.088608
401.017820,-0.029412
401.361920,-0.045455
401.705980,0.000000
402.050000,0.064935
402.393980,0.082353
402.737920,0.101124
403.081820,0.113402
403.425680,0.093023
403.769500,0.020833
404.113280,0.057471
404.457020,0.134831
404.800720,0.086957
405.144380,0.101010
405.488000,0.064516
405.831580,0.123711
406.175120,0.074468
406.518620,0.110000
406.862080,0.113402
407.205500,0.010417
407.548880,0.061224
407.892220,0.039216
408.235520,0.074468
408.578780,0.133333
408.922000,0.048077
409.265180,0.080808
409.608320,0.010101
409.951420,0.082474
410.294480,0.078431
410.637500,0.054348
410.980480,0.107843
411.323420,0.061224
411.666320,0.091743
412.009180,0.127273
412.352000,0.000000
412.694780,0.100917
413.037520,0.064220
413.380220,0.072072
413.722880,0.125000
414.065500,0.117117
414.408080,0.026549
414.750620,0.053097
415.093120,0.057851
415.435580,0.134454
415.778000,0.121212
416.120380,0.092437
416.462720,0.055556
416.805020,0.097744
417.147280,0.074627
417.489500,0.078571
417.831680,0.089041
418.173820,0.078014
418.515920,0.083916
418.857980,0.088608
419.200000,0.070513
419.541980,0.071006
419.883920,0.078652
420.225820,0.080925
420.567680,0.083799
420.909500,0.109290
421.251280,0.104167
421.593020,0.096939
421.934720,0.075758
422.276380,0.061538
422.618000,0.098039
422.959580,0.078431
423.301120,0.091324
423.642620,0.069565
423.984080,0.083721
424.325500,0.058296
424.666880,0.064655
425.008220,0.050420
425.349520,0.072034
425.690780,0.092308
426.032000,0.066667
426.373180,0.062241
426.714320,0.093750
427.055420,0.069498
427.396480,0.097378
427.737500,0.071146
428.078480,0.071146
428.419420,0.060241
428.760320,0.065134
429.101180,0.110236
429.442000,0.091954
429.782780,0.080769
430.123520,0.058824
430.464220,0.081181
430.804880,0.103448
431.145500,0.058182
431.486080,0.074906
431.826620,0.062016
432.167120,0.069853
432.507580,0.065217
432.848000,0.086331
433.188380,0.086643
433.528720,0.064151
433.869020,0.089286
434.209280,0.063158
434.549500,0.083624
434.889680,0.084175
435.229820,0.064846
435.569920,0.069204
435.909980,0.084142
436.250000,0.081356
436.589980,0.068111
436.929920,0.104762
437.269820,0.090909
437.609680,0.085799
437.949500,0.081325
438.289280,0.076487
438.629020,0.084302
438.968720,0.069767
439.308380,0.059621
439.648000,0.060274
439.987580,0.074074
440.327120,0.074667
440.666620,0.072727
441.006080,0.076726
441.345500,0.081081
441.684880,0.064593
442.024220,0.054591
442.363520,0.069048
442.702780,0.075000
443.042000,0.070485
443.381180,0.073276
443.720320,0.079914
444.059420,0.069328
444.398480,0.079498
444.737500,0.094262
445.076480,0.073413
445.415420,0.083832
445.754320,0.070686
446.093180,0.078899
446.432000,0.073308
446.770780,0.074004
447.109520,0.082721
447.448220,0.069767
447.786880,0.082290
448.125500,0.084483
448.464080,0.080357
448.802620,0.067376
449.141120,0.069204
449.479580,0.066434
449.818000,0.087780
450.156380,0.080268
450.494720,0.082645
450.833020,0.080420
451.171280,0.068493
451.509500,0.073171
451.847680,0.072513
452.185820,0.082616
452.523920,0.087629
452.861980,0.079258
453.200000,0.076412
453.537980,0.077311
453.875920,0.075630
454.213820,0.070205
454.551680,0.071192
454.889500,0.072513
455.227280,0.065836
455.565020,0.082077
455.902720,0.083195
456.240380,0.073211
456.578000,0.076655
456.915580,0.075993
457.253120,0.077303
457.590620,0.078818
457.928080,0.087542
458.265500,0.074324
458.602880,0.071429
458.940220,0.072758
459.277520,0.084800
459.614780,0.076923
459.952000,0.074534
460.289180,0.079114
460.626320,0.077165
460.963420,0.075929
461.300480,0.076453
461.637500,0.072419
461.974480,0.077982
462.311420,0.077496
462.648320,0.074671
462.985180,0.074605
463.322000,0.072917
463.658780,0.069061
463.995520,0.067400
464.332220,0.070637
464.668880,0.075269
465.005500,0.076408
465.342080,0.078105
465.678620,0.079951
466.015120,0.063389
466.351580,0.070796
466.688000,0.075518
467.024380,0.072904
467.360720,0.077273
467.697020,0.075171
468.033280,0.075556
468.369500,0.080574
468.705680,0.078918
469.041820,0.081250
469.377920,0.071584
469.713980,0.074150
470.050000,0.083092
470.385980,0.080235
470.721920,0.075416
471.057820,0.070175
471.393680,0.066417
471.729500,0.067655
472.065280,0.076923
472.401020,0.072695
472.736720,0.070681
473.072380,0.070018
473.408000,0.067015
473.743580,0.068339
474.079120,0.082687
474.414620,0.072095
474.750080,0.069976
475.085500,0.077303
475.420880,0.067444
475.756220,0.069501
476.091520,0.069906
476.426780,0.076052
476.762000,0.070796
477.097180,0.076800
477.432320,0.068659
477.767420,0.070261
478.102480,0.073228
478.437500,0.072250
478.772480,0.074862
479.107420,0.072417
479.442320,0.072742
479.777180,0.071599
480.112000,0.074730
480.446780,0.073266
480.781520,0.074074
481.116220,0.072757
481.450880,0.079625
481.785500,0.076741
482.120080,0.074451
482.454620,0.076146
482.789120,0.074841
483.123580,0.071651
483.458000,0.068038
483.792380,0.073482
484.126720,0.074903
484.461020,0.076503
484.795280,0.078643
485.129500,0.076383
485.463680,0.074419
485.797820,0.077760
486.131920,0.074981
486.465980,0.070270
486.800000,0.073282
487.133980,0.070997
487.467920,0.078806
487.801820,0.075515
488.135680,0.072782
488.469500,0.066566
488.803280,0.076523
489.137020,0.074725
489.470720,0.072700
489.804380,0.074239
490.138000,0.071958
490.471580,0.077377
490.805120,0.070765
491.138620,0.075338
491.472080,0.076325
491.805500,0.076011
492.138880,0.079222
492.472220,0.072664
492.805520,0.074721
493.138780,0.079945
493.472000,0.076254
493.805180,0.069577
494.138320,0.076718
494.471420,0.070964
494.804480,0.071151
495.137500,0.071887
495.470480,0.077119
495.803420,0.075567
496.136320,0.077694
496.469180,0.076120
496.802000,0.074572
497.134780,0.072771
497.467520,0.079511
497.800220,0.071934
498.132880,0.074074
498.465500,0.074739
498.798080,0.073059
499.130620,0.076362
499.463120,0.077485
499.795580,0.077008
500.128000,0.074114
500.460380,0.074812
500.792720,0.073171
501.125020,0.070941
501.457280,0.071540
501.789500,0.070248
502.121680,0.076724
502.453820,0.072412
502.785920,0.075038
503.117980,0.074583
503.450000,0.075841
503.781980,0.076731
504.113920,0.073020
504.445820,0.075352
504.777680,0.072471
505.109500,0.070673
505.441280,0.071224
505.773020,0.071395
506.104720,0.069713
506.436380,0.074302
506.768000,0.077643
507.099580,0.071854
507.431120,0.072600
507.762620,0.077068
508.094080,0.070191
508.425500,0.076564
508.756880,0.071788
509.088220,0.072677
509.419520,0.075419
509.750780,0.072165
510.082000,0.073694
510.413180,0.073699
510.744320,0.075012
511.075420,0.075160
511.406480,0.072873
511.737500,0.075463
512.068480,0.076598
512.399420,0.073709
512.730320,0.071132
513.061180,0.075642
513.392000,0.072409
513.722780,0.073967
514.053520,0.074748
514.384220,0.068506
514.714880,0.073719
515.045500,0.071839
515.376080,0.074576
515.706620,0.069654
516.037120,0.072549
516.367580,0.067521
516.698000,0.070588
517.028380,0.077458
517.358720,0.073086
517.689020,0.073195
518.019280,0.073758
518.349500,0.073492
518.679680,0.071681
519.009820,0.069332
519.339920,0.076653
519.669980,0.070819
520.000000,0.077433
520.329980,0.072576
520.659920,0.074131
520.989820,0.076367
521.319680,0.077675
521.649500,0.073008
521.979280,0.075678
522.309020,0.073651
522.638720,0.067588
522.968380,0.078077
523.298000,0.071503
523.627580,0.071392
523.957120,0.073766
524.286620,0.073997
524.616080,0.071872
524.945500,0.075452
525.274880,0.076449
525.604220,0.072981
525.933520,0.072327
526.262780,0.069437
526.592000,0.076104
526.921180,0.074657
527.250320,0.074581
527.579420,0.071753
527.908480,0.071393
528.237500,0.072493
528.566480,0.075848
528.895420,0.076885
529.224320,0.070827
529.553180,0.074699
529.882000,0.077372
530.210780,0.074807
530.539520,0.070949
530.868220,0.072283
531.196880,0.075968
531.525500,0.074576
531.854080,0.071764
532.182620,0.076133
532.511120,0.072854
532.839580,0.073956
533.168000,0.072470
533.496380,0.076256
533.824720,0.073576
534.153020,0.074008
534.481280,0.077974
534.809500,0.075638
535.137680,0.076823
535.465820,0.071735
535.793920,0.072758
536.121980,0.077214
536.450000,0.074419
536.777980,0.075827
537.105920,0.076795
537.433820,0.073650
537.761680,0.075918
538.089500,0.076083
538.417280,0.072423
538.745020,0.076070
539.072720,0.073409
539.400380,0.077700
539.728000,0.077629
540.055580,0.074157
540.383120,0.078183
540.710620,0.073289
541.038080,0.074511
541.365500,0.074632
541.692880,0.072674
542.020220,0.076286
542.347520,0.078248
542.674780,0.074100
543.002000,0.077327
543.329180,0.078569
543.656320,0.078059
543.983420,0.076239
544.310480,0.075773
544.637500,0.075401
544.964480,0.078398
545.291420,0.077434
545.618320,0.078353
545.945180,0.075148
546.272000,0.071101
546.598780,0.072763
546.925520,0.076822
547.252220,0.074942
547.578880,0.078527
547.905500,0.075163
548.232080,0.075049
548.558620,0.073869
548.885120,0.073274
549.211580,0.073610
549.538000,0.075551
549.864380,0.077814
550.190720,0.073943
550.517020,0.075293
550.843280,0.076547
551.169500,0.072837
551.495680,0.073259
551.821820,0.076747
552.147920,0.076122
552.473980,0.073098
552.800000,0.073578
553.125980,0.074001
553.451920,0.074320
553.777820,0.073618
554.103680,0.072464
554.429500,0.073987
554.755280,0.073097
555.081020,0.072527
555.406720,0.075178
555.732380,0.069468
556.058000,0.075017
556.383580,0.075659
556.709120,0.073053
557.034620,0.072339
557.360080,0.073921
557.685500,0.075726
558.010880,0.072790
558.336220,0.072056
558.661520,0.074087
558.986780,0.076541
559.312000,0.075142
559.637180,0.074686
559.962320,0.075472
560.287420,0.074048
560.612480,0.073556
560.937500,0.074156
561.262480,0.072947
561.587420,0.075807
561.912320,0.072955
562.237180,0.077720
562.562000,0.080434
562.886780,0.073207
563.211520,0.076379
563.536220,0.073840
563.860880,0.070917
564.185500,0.073171
564.510080,0.074868
564.834620,0.077410
565.159120,0.072556
565.483580,0.075257
565.808000,0.074158
566.132380,0.072734
566.456720,0.074452
566.781020,0.076519
567.105280,0.072968
567.429500,0.073976
567.753680,0.070963
568.077820,0.075377
568.401920,0.072956
568.725980,0.074763
569.050000,0.072624
569.373980,0.073848
569.697920,0.074706
570.021820,0.070412
570.345680,0.075010
570.669500,0.074781
570.993280,0.076412
571.317020,0.074169
571.640720,0.072249
571.964380,0.073868
572.288000,0.071588
572.611580,0.074504
572.935120,0.072204
573.258620,0.074420
573.582080,0.073025
573.905500,0.075577
574.228880,0.072754
574.552220,0.074753
574.875520,0.076694
575.198780,0.074810
575.522000,0.075147
575.845180,0.071991
576.168320,0.076895
576.491420,0.075581
576.814480,0.075226
577.137500,0.077561
577.460480,0.072852
577.783420,0.077170
578.106320,0.073718
578.429180,0.074585
578.752000,0.072247
579.074780,0.074174
579.397520,0.074887
579.720220,0.075933
580.042880,0.074992
580.365500,0.077101
580.688080,0.075984
581.010620,0.077962
581.333120,0.073146
581.655580,0.077256
581.978000,0.076821
582.300380,0.074327
582.622720,0.075478
582.945020,0.074447
583.267280,0.074894
583.589500,0.076404
583.911680,0.073992
584.233820,0.073969
584.555920,0.081311
584.877980,0.074749
585.200000,0.074586
585.521980,0.076923
585.843920,0.073826
586.165820,0.074040
586.487680,0.077340
586.809500,0.073807
587.131280,0.076013
587.453020,0.076786
587.774720,0.072738
588.096380,0.073512
588.418000,0.071993
588.739580,0.077609
589.061120,0.077631
589.382620,0.071920
589.704080,0.075736
590.025500,0.074201
590.346880,0.075885
590.668220,0.078129
590.989520,0.071547
591.310780,0.074565
591.632000,0.077322
591.953180,0.078882
592.274320,0.075621
592.595420,0.072198
592.916480,0.075523
593.237500,0.078146
593.558480,0.073715
593.879420,0.074454
594.200320,0.074739
594.521180,0.077822
594.842000,0.076572
595.162780,0.076122
595.483520,0.078171
595.804220,0.075456
596.124880,0.077005
596.445500,0.075190
596.766080,0.076634
597.086620,0.073514
597.407120,0.072670
597.727580,0.074516
598.048000,0.075112
598.368380,0.076276
598.688720,0.075491
599.009020,0.075372
599.329280,0.075306
599.649500,0.074485
599.969680,0.076656
600.289820,0.076122
600.609920,0.075073
600.929980,0.075094
601.250000,0.074595
601.569980,0.074534
601.889920,0.073510
602.209820,0.073864
602.529680,0.078001
602.849500,0.074741
603.169280,0.073298
603.489020,0.076391
603.808720,0.074877
604.128380,0.075883
604.448000,0.074033
604.767580,0.072626
605.087120,0.074792
605.406620,0.074167
605.726080,0.076419
606.045500,0.073558
606.364880,0.074001
606.684220,0.075100
607.003520,0.071961
607.322780,0.073621
607.642000,0.075244
607.961180,0.073432
608.280320,0.073086
608.599420,0.071842
608.918480,0.072434
609.237500,0.073063
609.556480,0.077242
609.875420,0.075015
610.194320,0.075878
610.513180,0.076650
610.832000,0.074151
611.150780,0.071193
611.469520,0.075415
611.788220,0.073458
612.106880,0.074186
612.425500,0.074909
612.744080,0.073253
613.062620,0.073700
613.381120,0.073431
613.699580,0.072961
614.018000,0.074939
614.336380,0.073720
614.654720,0.072868
614.973020,0.073434
615.291280,0.075302
615.609500,0.074168
615.927680,0.076947
616.245820,0.075448
616.563920,0.075536
616.881980,0.073277
617.200000,0.077138
617.517980,0.071873
617.835920,0.071451
618.153820,0.075225
618.471680,0.076279
618.789500,0.074890
619.107280,0.073239
619.425020,0.076118
619.742720,0.072819
620.060380,0.075525
620.378000,0.077722
620.695580,0.074074
621.013120,0.074331
621.330620,0.074051
621.648080,0.070662
621.965500,0.074028
622.282880,0.074086
622.600220,0.074226
622.917520,0.075299
623.234780,0.075217
623.552000,0.074157
623.869180,0.077214
624.186320,0.075135
624.503420,0.073041
624.820480,0.074144
625.137500,0.076413
625.454480,0.072210
625.771420,0.072825
626.088320,0.077238
626.405180,0.073118
626.722000,0.072773
627.038780,0.073622
627.355520,0.073438
627.672220,0.075272
627.988880,0.074339
628.305500,0.072608
628.622080,0.076208
628.938620,0.075535
629.255120,0.076851
629.571580,0.074778
629.888000,0.074870
630.204380,0.074563
630.520720,0.074650
630.837020,0.075547
631.153280,0.073741
631.469500,0.073681
631.785680,0.073538
632.101820,0.075694
632.417920,0.073920
632.733980,0.073529
633.050000,0.075197
633.365980,0.075282
633.681920,0.071897
633.997820,0.071130
634.313680,0.074019
634.629500,0.072545
634.945280,0.074487
635.261020,0.076313
635.576720,0.073400
635.892380,0.074644
636.208000,0.074956
636.523580,0.076293
636.839120,0.074696
637.154620,0.075942
637.470080,0.074605
637.785500,0.073857
638.100880,0.075297
638.416220,0.074777
638.731520,0.075358
639.046780,0.073696
639.362000,0.074828
639.677180,0.078527
639.992320,0.074711
640.307420,0.075021
640.622480,0.075889
640.937500,0.075728
641.252480,0.075956
641.567420,0.076158
641.882320,0.074889
642.197180,0.071028
642.512000,0.075847
642.826780,0.076283
643.141520,0.075021
643.456220,0.076370
643.770880,0.074074
644.085500,0.075741
644.400080,0.073596
644.714620,0.076366
645.029120,0.074532
645.343580,0.073231
645.658000,0.072995
645.972380,0.076733
646.286720,0.074407
646.601020,0.076391
646.915280,0.077050
647.229500,0.076648
647.543680,0.076222
647.857820,0.072942
648.171920,0.075963
648.485980,0.074815
648.800000,0.076054
649.113980,0.076497
649.427920,0.075173
649.741820,0.074471
650.055680,0.073779
650.369500,0.073150
650.683280,0.073252
650.997020,0.073982
651.310720,0.074023
651.624380,0.071429
651.938000,0.074792
652.251580,0.073476
652.565120,0.074064
652.878620,0.073198
653.192080,0.072753
653.505500,0.073212
653.818880,0.074211
654.132220,0.074338
654.445520,0.075440
654.758780,0.072805
655.072000,0.076218
655.385180,0.071612
655.698320,0.073164
656.011420,0.075666
656.324480,0.071991
656.637500,0.073001
656.950480,0.073106
657.263420,0.074490
657.576320,0.073229
657.889180,0.076674
658.202000,0.073068
658.514780,0.073831
658.827520,0.072929
659.140220,0.076116
659.452880,0.071278
659.765500,0.071945
660.078080,0.071020
660.390620,0.072411
660.703120,0.075466
661.015580,0.072699
661.328000,0.077456
661.640380,0.077353
661.952720,0.075677
662.265020,0.074669
662.577280,0.074746
662.889500,0.072532
663.201680,0.074346
663.513820,0.074622
663.825920,0.073647
664.137980,0.074014
664.450000,0.071292
664.761980,0.073650
665.073920,0.072055
665.385820,0.073298
665.697680,0.072066
666.009500,0.076488
666.321280,0.073227
666.633020,0.075798
666.944720,0.070779
667.256380,0.074697
667.568000,0.071671
667.879580,0.075850
668.191120,0.074863
668.502620,0.070866
668.814080,0.072632
669.125500,0.073212
669.436880,0.074343
669.748220,0.071997
670.059520,0.073179
670.370780,0.072721
670.682000,0.074336
670.993180,0.075053
671.304320,0.072082
671.615420,0.072443
671.926480,0.073101
672.237500,0.072169
672.548480,0.074166
672.859420,0.073624
673.170320,0.071454
673.481180,0.073860
673.792000,0.073206
674.102780,0.073609
674.413520,0.072184
674.724220,0.073321
675.034880,0.074807
675.345500,0.072210
675.656080,0.074047
675.966620,0.071299
676.277120,0.074332
676.587580,0.073270
676.898000,0.072415
677.208380,0.069871
677.518720,0.073304
677.829020,0.073540
678.139280,0.073388
678.449500,0.072039
678.759680,0.073810
679.069820,0.075093
679.379920,0.072048
679.689980,0.073524
680.000000,0.069907
680.309980,0.072754
680.619920,0.070049
680.929820,0.074281
681.239680,0.072009
681.549500,0.077407
681.859280,0.072442
682.169020,0.070496
682.478720,0.073298
682.788380,0.073090
683.098000,0.074794
683.407580,0.071670
683.717120,0.073574
684.026620,0.074925
684.336080,0.073134
684.645500,0.071081
684.954880,0.072535
685.264220,0.077388
685.573520,0.078036
685.882780,0.077100
686.192000,0.075245
686.501180,0.071888
686.810320,0.076095
687.119420,0.071456
687.428480,0.074060
687.737500,0.075595
688.046480,0.072469
688.355420,0.077707
688.664320,0.071920
688.973180,0.074655
689.282000,0.071759
689.590780,0.070936
689.899520,0.069502
690.208220,0.074159
690.516880,0.073310
690.825500,0.073585
691.134080,0.072893
691.442620,0.073171
691.751120,0.075085
692.059580,0.076806
692.368000,0.075350
692.676380,0.075573
692.984720,0.072137
693.293020,0.074848
693.601280,0.072873
693.909500,0.071510
694.217680,0.074257
694.525820,0.077685
694.833920,0.072491
695.141980,0.072889
695.450000,0.072901
695.757980,0.072956
696.065920,0.074175
696.373820,0.072363
696.681680,0.073264
696.989500,0.074489
697.297280,0.071179
697.605020,0.070635
697.912720,0.074558
698.220380,0.070445
698.528000,0.077532
698.835580,0.073884
699.143120,0.071707
699.450620,0.073190
699.758080,0.072941
700.065500,0.075419
700.372880,0.074800
700.680220,0.071400
700.987520,0.073413
701.294780,0.073804
701.602000,0.070919
701.909180,0.071940
702.216320,0.070395
702.523420,0.072612
702.830480,0.072079
703.137500,0.073266
703.444480,0.074951
703.751420,0.072584
704.058320,0.072814
704.365180,0.072161
704.672000,0.071287
704.978780,0.071011
705.285520,0.068075
705.592220,0.074510
705.898880,0.074074
706.205500,0.072770
706.512080,0.075039
706.818620,0.072368
707.125120,0.074231
707.431580,0.071122
707.738000,0.073828
708.044380,0.070629
708.350720,0.073749
708.657020,0.073466
708.963280,0.072205
709.269500,0.070841
709.575680,0.073477
709.881820,0.073506
710.187920,0.071595
710.493980,0.075640
710.800000,0.073608
711.105980,0.073042
711.411920,0.070556
711.717820,0.073684
712.023680,0.073455
712.329500,0.071372
712.635280,0.078682
712.941020,0.074604
713.246720,0.069565
713.552380,0.072214
713.858000,0.077257
714.163580,0.071034
714.469120,0.069558
714.774620,0.073036
715.080080,0.072242
715.385500,0.071543
715.690880,0.071006
715.996220,0.070919
716.301520,0.077075
716.606780,0.069182
716.912000,0.071890
717.217180,0.072227
717.522320,0.075149
717.827420,0.072010
718.132480,0.070654
718.437500,0.069303
718.742480,0.070968
719.047420,0.075243
719.352320,0.071399
719.657180,0.070728
719.962000,0.070306
720.266780,0.074782
720.571520,0.072908
720.876220,0.076514
721.180880,0.071070
721.485500,0.072294
721.790080,0.074310
722.094620,0.073756
722.399120,0.073675
722.703580,0.070724
723.008000,0.072445
723.312380,0.071890
723.616720,0.071823
723.921020,0.074058
724.225280,0.073298
724.529500,0.075306
724.833680,0.074288
725.137820,0.073128
725.441920,0.074454
725.745980,0.073378
726.050000,0.075327
726.353980,0.071203
726.657920,0.071075
726.961820,0.072146
727.265680,0.073509
727.569500,0.073126
727.873280,0.071594
728.177020,0.073238
728.480720,0.073611
728.784380,0.076092
729.088000,0.073010
729.391580,0.071530
729.695120,0.071977
729.998620,0.076004
730.302080,0.075444
730.605500,0.072780
730.908880,0.072513
731.212220,0.072968
731.515520,0.068747
731.818780,0.073786
732.122000,0.076772
732.425180,0.072942
732.728320,0.072385
733.031420,0.070677
733.334480,0.070408
733.637500,0.070060
733.940480,0.067042
734.243420,0.074924
734.546320,0.070539
734.849180,0.071281
735.152000,0.071058
735.454780,0.068182
735.757520,0.075869
736.060220,0.076356
736.362880,0.073529
736.665500,0.072063
736.968080,0.074691
737.270620,0.074034
737.573120,0.076965
737.875580,0.073117
738.178000,0.071312
738.480380,0.071892
738.782720,0.071974
739.085020,0.070485
739.387280,0.070399
739.689500,0.068516
739.991680,0.074677
740.293820,0.072968
740.595920,0.069560
740.897980,0.071711
741.200000,0.072350
741.501980,0.076218
741.803920,0.071509
742.105820,0.073322
742.407680,0.075131
742.709500,0.072159
743.011280,0.068581
743.313020,0.073623
743.614720,0.070226
743.916380,0.068605
744.218000,0.071002
744.519580,0.074275
744.821120,0.075449
745.122620,0.076693
745.424080,0.069111
745.725500,0.068799
746.026880,0.068966
746.328220,0.069667
746.629520,0.069837
746.930780,0.071691
747.232000,0.072348
747.533180,0.070165
747.834320,0.072428
748.135420,0.070851
748.436480,0.072988
748.737500,0.074737
749.038480,0.072694
749.339420,0.074051
749.640320,0.071025
749.941180,0.073704
750.242000,0.069095
750.542780,0.073201
750.843520,0.072389
751.144220,0.075000
751.444880,0.076094
751.745500,0.070779
752.046080,0.071199
752.346620,0.068943
752.647120,0.069236
752.947580,0.068564
753.248000,0.075435
753.548380,0.071568
753.848720,0.069543
754.149020,0.067698
754.449280,0.074196
754.749500,0.069675
755.049680,0.070667
755.349820,0.075384
755.649920,0.067416
755.949980,0.073656
756.250000,0.072321
756.549980,0.066007
756.849920,0.074099
757.149820,0.069860
757.449680,0.069307
757.749500,0.072256
758.049280,0.066894
758.349020,0.069541
758.648720,0.072464
758.948380,0.070103
759.248000,0.071429
759.547580,0.069267
759.847120,0.071675
760.146620,0.071042
760.446080,0.070565
760.745500,0.070629
761.044880,0.073153
761.344220,0.070563
761.643520,0.069209
761.942780,0.068579
762.242000,0.072843
762.541180,0.070423
762.840320,0.073736
763.139420,0.068917
763.438480,0.067669
763.737500,0.072364
764.036480,0.072676
764.335420,0.070572
764.634320,0.075537
764.933180,0.073288
765.232000,0.076336
765.530780,0.070877
765.829520,0.079720
766.128220,0.077244
766.426880,0.076048
766.725500,0.074023
767.024080,0.072702
767.322620,0.069156
767.621120,0.067073
767.919580,0.070307
768.218000,0.075923
768.516380,0.073698
768.814720,0.068587
769.113020,0.075121
769.411280,0.073895
769.709500,0.074425
770.007680,0.069530
770.305820,0.075051
770.603920,0.068059
770.901980,0.074454
771.200000,0.069973
771.497980,0.073727
771.795920,0.072910
772.093820,0.071524
772.391680,0.071852
772.689500,0.066216
772.987280,0.068687
773.285020,0.072454
773.582720,0.070946
773.880380,0.072066
774.178000,0.070211
774.475580,0.073007
774.773120,0.068273
775.070620,0.075051
775.368080,0.073480
775.665500,0.067159
775.962880,0.073382
776.260220,0.070659
776.557520,0.072715
776.854780,0.071670
777.152000,0.068966
777.449180,0.070128
777.746320,0.071237
778.043420,0.072306
778.340480,0.069689
778.637500,0.072346
778.934480,0.069939
779.231420,0.069199
779.528320,0.070140
779.825180,0.072464
780.122000,0.071049
780.418780,0.080027
780.715520,0.073105
781.012220,0.070548
781.308880,0.077755
781.605500,0.068493
781.902080,0.069815
782.198620,0.075871
782.495120,0.072702
782.791580,0.070151
783.088000,0.071084
783.384380,0.075653
783.680720,0.073871
783.977020,0.072953
784.273280,0.069231
784.569500,0.071279
784.865680,0.075800
785.161820,0.068056
785.457920,0.063756
785.753980,0.071877
786.050000,0.070442
786.345980,0.070833
786.641920,0.072866
786.937820,0.078348
787.233680,0.072373
787.529500,0.072122
787.825280,0.075779
788.121020,0.075779
788.416720,0.070572
788.712380,0.068406
789.008000,0.074363
789.303580,0.063604
789.599120,0.071273
789.894620,0.070758
790.190080,0.072516
790.485500,0.068395
790.780880,0.070968
791.076220,0.071429
791.371520,0.074800
791.666780,0.081455
791.962000,0.071271
792.257180,0.071010
792.552320,0.070341
792.847420,0.072780
793.142480,0.072527
793.437500,0.070912
793.732480,0.068764
794.027420,0.068991
794.322320,0.069351
794.617180,0.072065
794.912000,0.066865
795.206780,0.070843
795.501520,0.074525
795.796220,0.071111
796.090880,0.066315
796.385500,0.066717
796.680080,0.071055
796.974620,0.071108
797.269120,0.068130
797.563580,0.070992
797.858000,0.073652
798.152380,0.064192
798.446720,0.073846
798.741020,0.072419
799.035280,0.079193
799.329500,0.073903
799.623680,0.071318
