399.985280,0.081081
400.329500,0.094595
400.673680,0.088608
401.017820,-0.044118
401.361920,-0.106061
401.705980,0.097561
402.050000,0.025974
402.393980,0.094118
402.737920,0.067416
403.081820,0.020619
403.425680,0.023256
403.769500,0.010417
404.113280,-0.011494
404.457020,0.033708
404.800720,0.021739
405.144380,0.131313
405.488000,0.021505
405.831580,0.103093
406.175120,0.053191
406.518620,0.120000
406.862080,0.082474
407.205500,0.062500
407.548880,0.040816
407.892220,0.088235
408.235520,0.031915
408.578780,0.114286
408.922000,0.009615
409.265180,0.101010
409.608320,0.050505
409.951420,0.082474
410.294480,0.098039
410.637500,0.010870
410.980480,0.068627
411.323420,0.061224
411.666320,0.119266
412.009180,0.081818
412.352000,-0.039604
412.694780,0.091743
413.037520,0.045872
413.380220,0.135135
413.722880,0.089286
414.065500,0.081081
414.408080,0.017699
414.750620,0.026549
415.093120,0.074380
415.435580,0.100840
415.778000,0.098485
416.120380,0.058824
416.462720,0.023810
416.805020,0.082707
417.147280,0.082090
417.489500,0.114286
417.831680,0.041096
418.173820,0.028369
418.515920,0.020979
418.857980,0.069620
419.200000,0.044872
419.541980,0.059172
419.883920,0.033708
420.225820,0.121387
420.567680,0.055866
420.909500,0.060109
421.251280,0.078125
421.593020,0.102041
421.934720,0.075758
422.276380,0.056410
422.618000,0.078431
422.959580,0.088235
423.301120,0.063927
423.642620,0.021739
423.984080,0.041860
424.325500,0.058296
424.666880,0.051724
425.008220,0.042017
425.349520,0.059322
425.690780,0.065385
426.032000,0.050980
426.373180,0.053942
426.714320,0.082031
427.055420,0.054054
427.396480,0.071161
427.737500,0.055336
428.078480,0.051383
428.419420,0.056225
428.760320,0.061303
429.101180,0.070866
429.442000,0.065134
429.782780,0.053846
430.123520,0.066667
430.464220,0.070111
430.804880,0.072797
431.145500,0.061818
431.486080,0.059925
431.826620,0.046512
432.167120,0.055147
432.507580,0.072464
432.848000,0.071942
433.188380,0.061372
433.528720,0.041509
433.869020,0.064286
434.209280,0.049123
434.549500,0.083624
434.889680,0.077441
435.229820,0.047782
435.569920,0.048443
435.909980,0.048544
436.250000,0.057627
436.589980,0.061920
436.929920,0.069841
437.269820,0.056426
437.609680,0.082840
437.949500,0.063253
438.289280,0.073654
438.629020,0.075581
438.968720,0.061047
439.308380,0.065041
439.648000,0.063014
439.987580,0.082011
440.327120,0.061333
440.666620,0.057143
441.006080,0.061381
441.345500,0.056511
441.684880,0.059809
442.024220,0.057072
442.363520,0.052381
442.702780,0.072727
443.042000,0.050661
443.381180,0.068966
443.720320,0.071274
444.059420,0.056723
444.398480,0.058577
444.737500,0.067623
445.076480,0.067460
445.415420,0.059880
445.754320,0.054054
446.093180,0.064220
446.432000,0.052632
446.770780,0.060721
447.109520,0.071691
447.448220,0.069767
447.786880,0.071556
448.125500,0.074138
448.464080,0.064286
448.802620,0.060284
449.141120,0.058824
449.479580,0.066434
449.818000,0.060241
450.156380,0.061873
450.494720,0.069421
450.833020,0.066434
451.171280,0.061644
451.509500,0.069686
451.847680,0.062395
452.185820,0.061962
452.523920,0.073883
452.861980,0.064081
453.200000,0.071429
453.537980,0.067227
453.875920,0.075630
454.213820,0.054795
454.551680,0.054636
454.889500,0.062395
455.227280,0.053381
455.565020,0.068677
455.902720,0.074875
456.240380,0.051581
456.578000,0.069686
456.915580,0.058722
457.253120,0.060855
457.590620,0.065681
457.928080,0.075758
458.265500,0.065878
458.602880,0.069805
458.940220,0.060914
459.277520,0.068800
459.614780,0.070376
459.952000,0.066770
460.289180,0.074367
460.626320,0.062992
460.963420,0.059774
461.300480,0.061162
461.637500,0.057011
461.974480,0.068807
462.311420,0.058122
462.648320,0.061493
462.985180,0.061693
463.322000,0.061012
463.658780,0.063536
463.995520,0.057772
464.332220,0.063712
464.668880,0.069892
465.005500,0.063003
465.342080,0.061460
465.678620,0.060271
466.015120,0.063389
466.351580,0.065740
466.688000,0.063337
467.024380,0.064399
467.360720,0.061364
467.697020,0.062642
468.033280,0.068889
468.369500,0.064018
468.705680,0.060879
469.041820,0.060417
469.377920,0.065076
469.713980,0.066941
470.050000,0.071498
470.385980,0.064579
470.721920,0.064643
471.057820,0.061404
471.393680,0.062675
471.729500,0.060241
472.065280,0.071556
472.401020,0.059397
472.736720,0.063700
473.072380,0.061939
473.408000,0.059182
473.743580,0.062284
474.079120,0.069767
474.414620,0.059372
474.750080,0.058584
475.085500,0.065789
475.420880,0.065779
475.756220,0.064595
476.091520,0.064791
476.426780,0.063916
476.762000,0.060338
477.097180,0.064800
477.432320,0.059774
477.767420,0.063725
478.102480,0.061417
478.437500,0.059113
478.772480,0.063830
479.107420,0.063466
479.442320,0.063149
479.777180,0.066826
480.112000,0.063945
480.446780,0.063913
480.781520,0.065217
481.116220,0.061439
481.450880,0.061671
481.785500,0.071994
482.120080,0.061129
482.454620,0.065268
482.789120,0.068471
483.123580,0.065421
483.458000,0.060127
483.792380,0.063898
484.126720,0.060232
484.461020,0.064793
484.795280,0.063994
485.129500,0.067810
485.463680,0.057364
485.797820,0.065319
486.131920,0.061974
486.465980,0.060232
486.800000,0.067939
487.133980,0.063444
487.467920,0.064269
487.801820,0.068650
488.135680,0.063685
488.469500,0.059758
488.803280,0.066122
489.137020,0.064469
489.470720,0.065282
489.804380,0.065330
490.138000,0.061573
490.471580,0.062638
490.805120,0.066476
491.138620,0.065387
491.472080,0.067138
491.805500,0.069735
492.138880,0.066713
492.472220,0.062976
492.805520,0.063547
493.138780,0.067540
493.472000,0.065552
493.805180,0.070941
494.138320,0.063376
494.471420,0.065755
494.804480,0.064036
495.137500,0.068036
495.470480,0.065647
495.803420,0.066751
496.136320,0.070802
496.469180,0.066298
496.802000,0.065403
497.134780,0.068526
497.467520,0.068502
497.800220,0.066038
498.132880,0.068195
498.465500,0.065469
498.798080,0.062215
499.130620,0.067378
499.463120,0.069062
499.795580,0.066007
500.128000,0.068120
500.460380,0.066200
500.792720,0.066278
501.125020,0.060431
501.457280,0.065796
501.789500,0.069731
502.121680,0.065319
502.453820,0.067313
502.785920,0.061531
503.117980,0.061825
503.450000,0.066298
503.781980,0.064275
504.113920,0.061641
504.445820,0.064171
504.777680,0.059294
505.109500,0.064904
505.441280,0.065488
505.773020,0.066228
506.104720,0.064060
506.436380,0.064363
506.768000,0.062208
507.099580,0.064073
507.431120,0.063232
507.762620,0.067199
508.094080,0.068368
508.425500,0.069561
508.756880,0.063100
509.088220,0.065777
509.419520,0.064246
509.750780,0.063730
510.082000,0.064832
510.413180,0.064026
510.744320,0.068109
511.075420,0.062328
511.406480,0.062529
511.737500,0.064352
512.068480,0.067669
512.399420,0.066667
512.730320,0.062356
513.061180,0.060894
513.392000,0.064837
513.722780,0.066282
514.053520,0.067082
514.384220,0.067079
514.714880,0.066539
515.045500,0.063697
515.376080,0.066344
515.706620,0.067219
516.037120,0.062255
516.367580,0.063578
516.698000,0.069118
517.028380,0.066038
517.358720,0.069630
517.689020,0.068744
518.019280,0.069744
518.349500,0.064876
518.679680,0.068652
519.009820,0.061235
519.339920,0.070140
519.669980,0.065796
520.000000,0.066735
520.329980,0.064282
520.659920,0.062372
520.989820,0.070175
521.319680,0.070473
521.649500,0.063753
521.979280,0.071503
522.309020,0.064834
522.638720,0.068100
522.968380,0.065667
523.298000,0.063674
523.627580,0.066218
523.957120,0.063377
524.286620,0.063054
524.616080,0.066184
524.945500,0.067700
525.274880,0.069779
525.604220,0.068841
525.933520,0.064990
526.262780,0.060821
526.592000,0.064434
526.921180,0.069578
527.250320,0.062912
527.579420,0.064679
527.908480,0.066962
528.237500,0.068024
528.566480,0.066866
528.895420,0.069492
529.224320,0.068351
529.553180,0.066988
529.882000,0.075426
530.210780,0.065154
530.539520,0.064717
530.868220,0.063188
531.196880,0.062112
531.525500,0.066344
531.854080,0.063321
532.182620,0.065390
532.511120,0.068213
532.839580,0.066243
533.168000,0.069736
533.496380,0.069406
533.824720,0.067743
534.153020,0.068212
534.481280,0.067841
534.809500,0.067282
535.137680,0.070747
535.465820,0.069588
535.793920,0.066413
536.121980,0.066303
536.450000,0.071882
536.777980,0.069962
537.105920,0.066418
537.433820,0.067512
537.761680,0.068163
538.089500,0.066775
538.417280,0.065261
538.745020,0.071712
539.072720,0.067552
539.400380,0.068376
539.728000,0.069598
540.055580,0.067416
540.383120,0.065153
540.710620,0.066592
541.038080,0.069716
541.365500,0.066176
541.692880,0.066497
542.020220,0.067650
542.347520,0.068916
542.674780,0.065632
543.002000,0.065430
543.329180,0.067345
543.656320,0.069620
543.983420,0.065299
544.310480,0.068298
544.637500,0.065507
544.964480,0.066622
545.291420,0.067797
545.618320,0.069721
545.945180,0.064931
546.272000,0.065858
546.598780,0.066536
546.925520,0.064952
547.252220,0.067019
547.578880,0.070381
547.905500,0.066340
548.232080,0.066602
548.558620,0.067035
548.885120,0.066732
549.211580,0.066217
549.538000,0.065499
549.864380,0.065595
550.190720,0.066516
550.517020,0.066167
550.843280,0.069381
551.169500,0.066476
551.495680,0.066032
551.821820,0.068909
552.147920,0.067339
552.473980,0.063879
552.800000,0.066056
553.125980,0.067780
553.451920,0.067352
553.777820,0.067955
554.103680,0.069093
554.429500,0.062939
554.755280,0.066756
555.081020,0.065842
555.406720,0.066712
555.732380,0.065402
556.058000,0.067210
556.383580,0.068812
556.709120,0.068229
557.034620,0.065105
557.360080,0.069085
557.685500,0.067773
558.010880,0.065165
558.336220,0.063269
558.661520,0.068061
558.986780,0.066619
559.312000,0.065527
559.637180,0.068582
559.962320,0.065860
560.287420,0.066291
560.612480,0.067456
560.937500,0.066079
561.262480,0.064150
561.587420,0.067102
561.912320,0.068165
562.237180,0.069208
562.562000,0.068462
562.886780,0.069491
563.211520,0.069300
563.536220,0.069759
563.860880,0.069031
564.185500,0.068668
564.510080,0.066968
564.834620,0.067734
565.159120,0.069173
565.483580,0.066895
565.808000,0.066213
566.132380,0.070123
566.456720,0.068405
566.781020,0.068267
567.105280,0.070699
567.429500,0.068665
567.753680,0.067511
568.077820,0.067259
568.401920,0.068755
568.725980,0.067552
569.050000,0.069202
569.373980,0.071184
569.697920,0.067880
570.021820,0.065918
570.345680,0.067356
570.669500,0.067531
570.993280,0.068291
571.317020,0.066496
571.640720,0.070396
571.964380,0.067558
572.288000,0.069733
572.611580,0.071509
572.935120,0.067714
573.258620,0.068437
573.582080,0.070045
573.905500,0.065897
574.228880,0.070527
574.552220,0.068890
574.875520,0.069993
575.198780,0.066859
575.522000,0.071481
575.845180,0.065186
576.168320,0.067194
576.491420,0.070494
576.814480,0.069078
577.137500,0.070346
577.460480,0.066328
577.783420,0.070740
578.106320,0.068732
578.429180,0.067869
578.752000,0.068079
579.074780,0.067768
579.397520,0.069400
579.720220,0.069176
580.042880,0.068054
580.365500,0.069490
580.688080,0.068182
581.010620,0.069187
581.333120,0.071142
581.655580,0.070929
581.978000,0.067509
582.300380,0.067835
582.622720,0.067568
582.945020,0.070546
583.267280,0.068382
583.589500,0.065811
583.911680,0.068911
584.233820,0.067989
584.555920,0.072487
584.877980,0.066583
585.200000,0.067833
585.521980,0.065493
585.843920,0.068639
586.165820,0.069775
586.487680,0.067710
586.809500,0.068407
587.131280,0.070393
587.453020,0.067560
587.774720,0.069486
588.096380,0.068845
588.418000,0.067018
588.739580,0.070135
589.061120,0.069293
589.382620,0.067335
589.704080,0.068163
590.025500,0.070491
590.346880,0.070264
590.668220,0.065528
590.989520,0.065724
591.310780,0.068213
591.632000,0.070219
591.953180,0.070578
592.274320,0.067158
592.595420,0.065463
592.916480,0.067916
593.237500,0.070870
593.558480,0.067797
593.879420,0.069598
594.200320,0.068845
594.521180,0.069854
594.842000,0.070124
595.162780,0.068910
595.483520,0.066738
595.804220,0.066595
596.124880,0.070877
596.445500,0.068378
596.766080,0.069105
597.086620,0.067941
597.407120,0.066614
597.727580,0.070008
598.048000,0.070087
598.368380,0.069963
598.688720,0.069463
599.009020,0.067144
599.329280,0.068920
599.649500,0.069995
599.969680,0.069979
600.289820,0.070780
600.609920,0.064921
600.929980,0.066809
601.250000,0.068108
601.569980,0.068323
601.889920,0.067094
602.209820,0.064935
602.529680,0.070585
602.849500,0.067921
603.169280,0.067512
603.489020,0.068641
603.808720,0.069117
604.128380,0.070916
604.448000,0.066851
604.767580,0.067877
605.087120,0.066482
605.406620,0.067450
605.726080,0.069860
606.045500,0.067428
606.364880,0.066912
606.684220,0.069389
607.003520,0.065654
607.322780,0.068789
607.642000,0.070362
607.961180,0.069384
608.280320,0.067865
608.599420,0.066338
608.918480,0.067742
609.237500,0.068369
609.556480,0.066292
609.875420,0.069994
610.194320,0.068202
610.513180,0.068659
610.832000,0.068493
611.150780,0.071493
611.469520,0.070287
611.788220,0.066808
612.106880,0.067250
612.425500,0.067600
612.744080,0.067405
613.062620,0.067584
613.381120,0.068251
613.699580,0.068056
614.018000,0.066953
614.336380,0.069093
614.654720,0.071938
614.973020,0.065720
615.291280,0.068485
615.609500,0.068780
615.927680,0.066749
616.245820,0.067100
616.563920,0.071184
616.881980,0.069535
617.200000,0.066874
617.517980,0.067828
617.835920,0.066170
618.153820,0.067454
618.471680,0.069767
618.789500,0.066394
619.107280,0.070423
619.425020,0.069458
619.742720,0.066541
620.060380,0.069884
620.378000,0.067967
620.695580,0.072158
621.013120,0.066142
621.330620,0.069344
621.648080,0.068770
621.965500,0.068695
622.282880,0.065889
622.600220,0.068225
622.917520,0.068368
623.234780,0.068145
623.552000,0.070337
623.869180,0.068390
624.186320,0.069723
624.503420,0.071160
624.820480,0.068489
625.137500,0.069466
625.454480,0.070647
625.771420,0.069042
626.088320,0.068726
626.405180,0.067517
626.722000,0.069009
627.038780,0.067043
627.355520,0.066875
627.672220,0.068429
627.988880,0.066252
628.305500,0.066999
628.622080,0.068154
628.938620,0.072171
629.255120,0.072806
629.571580,0.068955
629.888000,0.069653
630.204380,0.069040
630.520720,0.069165
630.837020,0.067222
631.153280,0.068645
631.469500,0.069133
631.785680,0.066908
632.101820,0.069662
632.417920,0.068256
632.733980,0.069328
633.050000,0.070042
633.365980,0.068761
633.681920,0.072494
633.997820,0.070233
634.313680,0.068416
634.629500,0.067237
634.945280,0.069501
635.261020,0.070443
635.576720,0.066941
635.892380,0.068835
636.208000,0.070598
636.523580,0.068401
636.839120,0.070932
637.154620,0.070725
637.470080,0.068867
637.785500,0.070047
638.100880,0.068346
638.416220,0.070175
638.731520,0.066476
639.046780,0.072240
639.362000,0.067087
639.677180,0.069960
639.992320,0.068227
640.307420,0.070244
640.622480,0.068328
640.937500,0.068793
641.252480,0.069254
641.567420,0.067633
641.882320,0.068486
642.197180,0.070466
642.512000,0.068570
642.826780,0.069071
643.141520,0.067519
643.456220,0.067515
643.770880,0.070205
644.085500,0.068753
644.400080,0.068539
644.714620,0.070234
645.029120,0.069032
645.343580,0.068020
645.658000,0.067166
645.972380,0.069608
646.286720,0.068411
646.601020,0.069471
646.915280,0.070469
647.229500,0.067308
647.543680,0.066280
647.857820,0.067713
648.171920,0.069452
648.485980,0.067690
648.800000,0.069716
649.113980,0.068182
649.427920,0.070735
649.741820,0.069799
650.055680,0.068843
650.369500,0.070348
650.683280,0.067980
650.997020,0.068482
651.310720,0.070721
651.624380,0.068956
651.938000,0.070914
652.251580,0.068188
652.565120,0.067915
652.878620,0.067849
653.192080,0.069101
653.505500,0.066199
653.818880,0.067103
654.132220,0.071774
654.445520,0.070618
654.758780,0.067422
655.072000,0.070487
655.385180,0.069044
655.698320,0.066305
656.011420,0.069934
656.324480,0.068202
656.637500,0.069235
656.950480,0.067234
657.263420,0.068874
657.576320,0.068782
657.889180,0.068121
658.202000,0.067029
658.514780,0.069366
658.827520,0.069628
659.140220,0.067426
659.452880,0.069163
659.765500,0.072547
660.078080,0.068011
660.390620,0.066606
660.703120,0.069050
661.015580,0.066564
661.328000,0.070844
661.640380,0.071451
661.952720,0.068826
662.265020,0.068683
662.577280,0.069338
662.889500,0.071271
663.201680,0.071155
663.513820,0.067224
663.825920,0.066923
664.137980,0.067227
664.450000,0.069054
664.761980,0.068085
665.073920,0.070432
665.385820,0.068717
665.697680,0.066777
666.009500,0.064184
666.321280,0.070245
666.633020,0.069481
666.944720,0.070104
667.256380,0.069314
667.568000,0.064538
667.879580,0.066667
668.191120,0.067308
668.502620,0.068812
668.814080,0.067368
669.125500,0.068765
669.436880,0.068119
669.748220,0.069228
670.059520,0.069678
670.370780,0.069241
670.682000,0.066549
670.993180,0.069767
671.304320,0.068214
671.615420,0.068537
671.926480,0.068843
672.237500,0.067524
672.548480,0.066714
672.859420,0.070407
673.170320,0.068915
673.481180,0.068791
673.792000,0.068878
674.102780,0.067145
674.413520,0.070361
674.724220,0.068240
675.034880,0.072607
675.345500,0.067834
675.656080,0.070054
675.966620,0.067297
676.277120,0.069938
676.587580,0.067010
676.898000,0.064950
677.208380,0.067652
677.518720,0.064551
677.829020,0.065410
678.139280,0.068569
678.449500,0.070553
678.759680,0.070064
679.069820,0.070260
679.379920,0.066767
679.689980,0.066469
680.000000,0.067290
680.309980,0.068671
680.619920,0.065884
680.929820,0.073162
681.239680,0.068316
681.549500,0.067407
681.859280,0.069081
682.169020,0.069004
682.478720,0.071055
682.788380,0.065338
683.098000,0.072177
683.407580,0.067917
683.717120,0.069069
684.026620,0.067771
684.336080,0.066692
684.645500,0.067714
684.954880,0.067246
685.264220,0.067195
685.573520,0.071184
685.882780,0.068278
686.192000,0.067720
686.501180,0.068104
686.810320,0.071868
687.119420,0.070315
687.428480,0.072921
687.737500,0.068688
688.046480,0.066718
688.355420,0.066013
688.664320,0.069243
688.973180,0.068530
689.282000,0.067130
689.590780,0.068635
689.899520,0.067224
690.208220,0.072248
690.516880,0.068347
690.825500,0.068679
691.134080,0.066059
691.442620,0.067835
691.751120,0.067501
692.059580,0.066870
692.368000,0.065127
692.676380,0.070611
692.984720,0.067939
693.293020,0.066489
693.601280,0.064479
693.909500,0.066213
694.217680,0.069688
694.525820,0.071973
694.833920,0.070584
695.141980,0.067489
695.450000,0.065649
695.757980,0.067991
696.065920,0.068350
696.373820,0.066975
696.681680,0.066743
696.989500,0.067927
697.297280,0.066511
697.605020,0.068254
697.912720,0.071483
698.220380,0.064148
698.528000,0.069225
698.835580,0.070723
699.143120,0.069369
699.450620,0.065632
699.758080,0.066667
700.065500,0.070231
700.372880,0.066400
700.680220,0.065018
700.987520,0.069048
701.294780,0.068127
701.602000,0.068938
701.909180,0.070747
702.216320,0.066093
702.523420,0.068272
702.830480,0.070891
703.137500,0.070148
703.444480,0.069428
703.751420,0.066272
704.058320,0.068461
704.365180,0.070584
704.672000,0.071683
704.978780,0.067109
705.285520,0.068466
705.592220,0.065098
705.898880,0.068164
706.205500,0.066119
706.512080,0.066351
706.818620,0.070820
707.125120,0.071538
707.431580,0.066823
707.738000,0.070312
708.044380,0.066384
708.350720,0.068017
708.657020,0.067995
708.963280,0.071429
709.269500,0.070450
709.575680,0.068762
709.881820,0.064858
710.187920,0.068872
710.493980,0.068658
710.800000,0.066743
711.105980,0.064759
711.411920,0.066614
711.717820,0.065107
712.023680,0.068791
712.329500,0.069795
712.635280,0.070930
712.941020,0.070738
713.246720,0.066008
713.552380,0.067111
713.858000,0.071344
714.163580,0.068666
714.469120,0.063306
714.774620,0.067904
715.080080,0.069886
715.385500,0.068745
715.690880,0.065483
715.996220,0.066165
716.301520,0.066403
716.606780,0.066431
716.912000,0.068659
717.217180,0.067837
717.522320,0.065209
717.827420,0.066721
718.132480,0.064633
718.437500,0.066042
718.742480,0.068548
719.047420,0.065129
719.352320,0.069738
719.657180,0.067048
719.962000,0.069479
720.266780,0.067719
720.571520,0.068351
720.876220,0.068331
721.180880,0.066472
721.485500,0.069369
721.790080,0.066667
722.094620,0.072041
722.399120,0.069367
722.703580,0.065152
723.008000,0.070289
723.312380,0.066294
723.616720,0.068848
723.921020,0.066262
724.225280,0.067190
724.529500,0.067426
724.833680,0.069840
725.137820,0.066960
725.441920,0.065983
725.745980,0.069351
726.050000,0.069463
726.353980,0.065345
726.657920,0.064777
726.961820,0.068037
727.265680,0.068423
727.569500,0.068099
727.873280,0.062356
728.177020,0.066329
728.480720,0.065278
728.784380,0.070456
729.088000,0.066886
729.391580,0.064898
729.695120,0.070058
729.998620,0.067878
730.302080,0.068236
730.605500,0.060165
730.908880,0.068104
731.212220,0.066112
731.515520,0.067284
731.818780,0.068932
732.122000,0.066929
732.425180,0.066535
732.728320,0.071393
733.031420,0.065163
733.334480,0.067857
733.637500,0.065020
733.940480,0.066018
734.243420,0.067278
734.546320,0.069502
734.849180,0.071281
735.152000,0.065353
735.454780,0.064050
735.757520,0.066913
736.060220,0.066877
736.362880,0.068277
736.665500,0.065274
736.968080,0.066631
737.270620,0.065324
737.573120,0.068231
737.875580,0.072018
738.178000,0.068046
738.480380,0.064865
738.782720,0.067067
739.085020,0.065529
739.387280,0.068736
739.689500,0.068516
739.991680,0.068501
740.293820,0.065782
740.595920,0.067334
740.897980,0.064935
741.200000,0.067863
741.501980,0.069914
741.803920,0.067005
742.105820,0.067682
742.407680,0.067560
742.709500,0.069318
743.011280,0.067995
743.313020,0.067246
743.614720,0.063262
743.916380,0.065698
744.218000,0.071002
744.519580,0.067633
744.821120,0.065269
745.122620,0.068904
745.424080,0.066106
745.725500,0.068799
746.026880,0.066502
746.328220,0.068434
746.629520,0.070439
746.930780,0.064951
747.232000,0.064991
747.533180,0.068334
747.834320,0.068168
748.135420,0.065258
748.436480,0.066126
748.737500,0.067943
749.038480,0.066585
749.339420,0.071562
749.640320,0.068510
749.941180,0.065584
750.242000,0.065327
750.542780,0.068859
750.843520,0.069186
751.144220,0.063462
751.444880,0.071021
751.745500,0.060390
752.046080,0.064785
752.346620,0.065722
752.647120,0.068583
752.947580,0.065330
753.248000,0.072856
753.548380,0.067664
753.848720,0.065679
754.149020,0.059317
754.449280,0.065003
754.749500,0.065030
755.049680,0.067333
755.349820,0.069380
755.649920,0.068738
755.949980,0.071666
756.250000,0.069034
756.549980,0.060726
756.849920,0.068661
757.149820,0.064538
757.449680,0.070627
757.749500,0.067485
758.049280,0.066212
758.349020,0.066759
758.648720,0.072464
758.948380,0.065979
759.248000,0.070755
759.547580,0.065232
759.847120,0.068918
760.146620,0.067659
760.446080,0.065188
760.745500,0.062238
761.044880,0.064631
761.344220,0.067712
761.643520,0.069915
761.942780,0.069279
762.242000,0.068600
762.541180,0.065493
762.840320,0.066011
763.139420,0.062588
763.438480,0.064252
763.737500,0.068918
764.036480,0.067785
764.335420,0.069866
764.634320,0.062370
764.933180,0.072603
765.232000,0.065232
765.530780,0.066667
765.829520,0.072028
766.128220,0.070981
766.426880,0.063966
766.725500,0.070596
767.024080,0.064472
767.322620,0.061549
767.621120,0.070461
767.919580,0.068942
768.218000,0.070451
768.516380,0.071670
768.814720,0.066529
769.113020,0.068918
769.411280,0.071133
769.709500,0.068336
770.007680,0.061350
770.305820,0.073022
770.603920,0.063342
770.901980,0.070355
771.200000,0.068614
771.497980,0.071716
771.795920,0.064214
772.093820,0.070187
772.391680,0.064601
772.689500,0.064189
772.987280,0.068013
773.285020,0.068353
773.582720,0.064865
773.880380,0.063143
774.178000,0.065440
774.475580,0.069658
774.773120,0.064257
775.070620,0.071670
775.368080,0.069472
775.665500,0.063801
775.962880,0.068045
776.260220,0.065276
776.557520,0.070714
776.854780,0.068289
777.152000,0.064987
777.449180,0.064059
777.746320,0.064516
778.043420,0.062756
778.340480,0.064953
778.637500,0.070318
778.934480,0.063887
779.231420,0.067164
779.528320,0.070140
779.825180,0.067852
780.122000,0.066401
780.418780,0.064295
780.715520,0.069081
781.012220,0.072603
781.308880,0.070318
781.605500,0.066438
781.902080,0.064339
782.198620,0.063568
782.495120,0.063100
782.791580,0.068776
783.088000,0.068323
783.384380,0.072902
783.680720,0.067031
783.977020,0.068823
784.273280,0.065035
784.569500,0.065688
784.865680,0.067455
785.161820,0.066667
785.457920,0.061677
785.753980,0.062107
786.050000,0.068370
786.345980,0.068750
786.641920,0.070784
786.937820,0.069801
787.233680,0.060543
787.529500,0.067961
787.825280,0.070113
788.121020,0.062323
788.416720,0.064926
788.712380,0.063470
789.008000,0.065864
789.303580,0.065724
789.599120,0.066182
789.894620,0.068592
790.190080,0.063089
790.485500,0.064075
790.780880,0.070251
791.076220,0.072872
791.371520,0.064633
791.666780,0.070545
791.962000,0.069802
792.257180,0.065886
792.552320,0.071066
792.847420,0.071325
793.142480,0.071062
793.437500,0.062952
793.732480,0.068032
794.027420,0.064540
794.322320,0.065623
794.617180,0.066122
794.912000,0.061664
795.206780,0.062640
795.501520,0.069962
795.796220,0.058519
796.090880,0.066315
796.385500,0.066717
796.680080,0.065819
796.974620,0.068114
797.269120,0.065859
797.563580,0.066412
797.858000,0.066819
798.152380,0.058005
798.446720,0.073846
798.741020,0.066256
799.035280,0.067547
799.329500,0.066975
799.623680,0.064341
