399.985280,0.013514
400.329500,0.013514
400.673680,0.088608
401.017820,-0.014706
401.361920,-0.090909
401.705980,0.024390
402.050000,0.000000
402.393980,0.035294
402.737920,0.056180
403.081820,0.082474
403.425680,-0.034884
403.769500,-0.020833
404.113280,-0.011494
404.457020,0.022472
404.800720,-0.043478
405.144380,0.111111
405.488000,0.010753
405.831580,0.061856
406.175120,0.063830
406.518620,0.040000
406.862080,0.103093
407.205500,-0.020833
407.548880,0.061224
407.892220,0.058824
408.235520,0.021277
408.578780,0.085714
408.922000,0.038462
409.265180,0.030303
409.608320,0.050505
409.951420,0.082474
410.294480,0.088235
410.637500,0.076087
410.980480,0.039216
411.323420,0.061224
411.666320,0.073394
412.009180,0.045455
412.352000,-0.009901
412.694780,0.055046
413.037520,0.018349
413.380220,0.054054
413.722880,0.035714
414.065500,0.045045
414.408080,0.017699
414.750620,0.044248
415.093120,-0.008264
415.435580,0.058824
415.778000,0.037879
416.120380,0.025210
416.462720,0.023810
416.805020,0.052632
417.147280,0.059701
417.489500,0.035714
417.831680,0.068493
418.173820,0.021277
418.515920,0.055944
418.857980,0.025316
419.200000,0.044872
419.541980,0.047337
419.883920,0.067416
420.225820,0.046243
420.567680,0.044693
420.909500,0.054645
421.251280,0.036458
421.593020,0.076531
421.934720,0.035354
422.276380,0.041026
422.618000,0.044118
422.959580,0.029412
423.301120,0.045662
423.642620,0.052174
423.984080,0.018605
424.325500,0.044843
424.666880,0.073276
425.008220,0.033613
425.349520,0.033898
425.690780,0.042308
426.032000,0.031373
426.373180,0.053942
426.714320,0.058594
427.055420,0.034749
427.396480,0.037453
427.737500,0.031621
428.078480,0.047431
428.419420,0.036145
428.760320,0.061303
429.101180,0.082677
429.442000,0.053640
429.782780,0.034615
430.123520,0.047059
430.464220,0.055351
430.804880,0.068966
431.145500,0.054545
431.486080,0.063670
431.826620,0.046512
432.167120,0.055147
432.507580,0.057971
432.848000,0.043165
433.188380,0.036101
433.528720,0.015094
433.869020,0.046429
434.209280,0.024561
434.549500,0.041812
434.889680,0.060606
435.229820,0.047782
435.569920,0.024221
435.909980,0.042071
436.250000,0.044068
436.589980,0.046440
436.929920,0.063492
437.269820,0.062696
437.609680,0.059172
437.949500,0.048193
438.289280,0.048159
438.629020,0.058140
438.968720,0.061047
439.308380,0.035230
439.648000,0.041096
439.987580,0.052910
440.327120,0.050667
440.666620,0.057143
441.006080,0.040921
441.345500,0.046683
441.684880,0.045455
442.024220,0.029777
442.363520,0.040476
442.702780,0.036364
443.042000,0.033040
443.381180,0.045259
443.720320,0.058315
444.059420,0.037815
444.398480,0.039749
444.737500,0.063525
445.076480,0.051587
445.415420,0.041916
445.754320,0.039501
446.093180,0.053211
446.432000,0.050752
446.770780,0.045541
447.109520,0.055147
447.448220,0.050089
447.786880,0.050089
448.125500,0.055172
448.464080,0.051786
448.802620,0.047872
449.141120,0.048443
449.479580,0.055944
449.818000,0.051635
450.156380,0.048495
450.494720,0.047934
450.833020,0.050699
451.171280,0.046233
451.509500,0.052265
451.847680,0.050590
452.185820,0.043029
452.523920,0.054983
452.861980,0.048904
453.200000,0.048173
453.537980,0.057143
453.875920,0.062185
454.213820,0.044521
454.551680,0.054636
454.889500,0.057336
455.227280,0.046263
455.565020,0.063652
455.902720,0.066556
456.240380,0.034942
456.578000,0.057491
456.915580,0.048359
457.253120,0.049342
457.590620,0.057471
457.928080,0.060606
458.265500,0.050676
458.602880,0.051948
458.940220,0.037225
459.277520,0.049600
459.614780,0.055646
459.952000,0.049689
460.289180,0.060127
460.626320,0.051969
460.963420,0.045234
461.300480,0.053517
461.637500,0.053929
461.974480,0.051988
462.311420,0.047690
462.648320,0.042460
462.985180,0.047346
463.322000,0.050595
463.658780,0.040055
463.995520,0.049519
464.332220,0.047091
464.668880,0.053763
465.005500,0.054960
465.342080,0.055058
465.678620,0.057811
466.015120,0.049159
466.351580,0.055626
466.688000,0.053593
467.024380,0.052248
467.360720,0.050000
467.697020,0.050114
468.033280,0.048889
468.369500,0.050773
468.705680,0.049605
469.041820,0.051042
469.377920,0.043384
469.713980,0.048404
470.050000,0.063768
470.385980,0.055773
470.721920,0.052889
471.057820,0.052632
471.393680,0.049579
471.729500,0.051900
472.065280,0.056351
472.401020,0.046099
472.736720,0.051483
473.072380,0.049372
473.408000,0.047868
473.743580,0.048443
474.079120,0.052541
474.414620,0.054283
474.750080,0.049634
475.085500,0.051809
475.420880,0.054122
475.756220,0.054783
476.091520,0.052003
476.426780,0.051780
476.762000,0.049075
477.097180,0.051200
477.432320,0.051696
477.767420,0.050654
478.102480,0.055118
478.437500,0.045977
478.772480,0.048069
479.107420,0.052889
479.442320,0.051958
479.777180,0.054097
480.112000,0.057781
480.446780,0.046765
480.781520,0.049114
481.116220,0.049313
481.450880,0.052303
481.785500,0.054589
482.120080,0.052508
482.454620,0.050505
482.789120,0.053344
483.123580,0.052181
483.458000,0.045886
483.792380,0.051917
484.126720,0.052510
484.461020,0.049961
484.795280,0.052429
485.129500,0.053780
485.463680,0.052713
485.797820,0.053655
486.131920,0.051262
486.465980,0.054054
486.800000,0.052672
487.133980,0.047583
487.467920,0.051262
487.801820,0.051106
488.135680,0.056103
488.469500,0.046899
488.803280,0.052749
489.137020,0.052015
489.470720,0.054154
489.804380,0.048998
490.138000,0.048961
490.471580,0.051584
490.805120,0.048606
491.138620,0.049041
491.472080,0.055124
491.805500,0.050907
492.138880,0.052120
492.472220,0.056055
492.805520,0.050978
493.138780,0.055134
493.472000,0.052843
493.805180,0.056617
494.138320,0.055370
494.471420,0.052083
494.804480,0.053040
495.137500,0.053273
495.470480,0.058636
495.803420,0.054156
496.136320,0.053885
496.469180,0.054021
496.802000,0.048289
497.134780,0.055791
497.467520,0.057492
497.800220,0.053066
498.132880,0.052910
498.465500,0.056199
498.798080,0.051370
499.130620,0.055587
499.463120,0.049972
499.795580,0.055556
500.128000,0.055586
500.460380,0.056512
500.792720,0.051432
501.125020,0.050972
501.457280,0.052219
501.789500,0.053202
502.121680,0.055469
502.453820,0.055584
502.785920,0.052526
503.117980,0.052012
503.450000,0.052235
503.781980,0.055306
504.113920,0.054528
504.445820,0.053962
504.777680,0.056941
505.109500,0.052885
505.441280,0.053059
505.773020,0.054955
506.104720,0.051813
506.436380,0.055372
506.768000,0.057530
507.099580,0.054920
507.431120,0.051991
507.762620,0.054041
508.094080,0.053783
508.425500,0.054155
508.756880,0.052583
509.088220,0.055198
509.419520,0.052607
509.750780,0.055764
510.082000,0.052705
510.413180,0.055274
510.744320,0.056604
511.075420,0.057287
511.406480,0.055477
511.737500,0.054167
512.068480,0.055921
512.399420,0.054460
512.730320,0.050346
513.061180,0.050904
513.392000,0.053952
513.722780,0.055716
514.053520,0.057020
514.384220,0.054710
514.714880,0.052657
515.045500,0.051724
515.376080,0.054722
515.706620,0.052119
516.037120,0.053431
516.367580,0.055200
516.698000,0.054902
517.028380,0.050149
517.358720,0.053333
517.689020,0.059347
518.019280,0.053688
518.349500,0.055246
518.679680,0.055528
519.009820,0.052126
519.339920,0.063126
519.669980,0.050728
520.000000,0.055527
520.329980,0.052877
520.659920,0.051636
520.989820,0.055212
521.319680,0.055556
521.649500,0.052956
521.979280,0.055324
522.309020,0.051867
522.638720,0.048643
522.968380,0.053257
523.298000,0.055846
523.627580,0.057424
523.957120,0.057662
524.286620,0.054195
524.616080,0.055326
524.945500,0.054780
525.274880,0.060031
525.604220,0.055901
525.933520,0.056080
526.262780,0.053218
526.592000,0.054795
526.921180,0.058913
527.250320,0.054287
527.579420,0.059626
527.908480,0.057115
528.237500,0.060576
528.566480,0.055888
528.895420,0.058157
529.224320,0.056959
529.553180,0.053494
529.882000,0.054015
530.210780,0.056950
530.539520,0.058485
530.868220,0.053614
531.196880,0.055423
531.525500,0.058111
531.854080,0.056285
532.182620,0.055582
532.511120,0.054292
532.839580,0.056261
533.168000,0.057885
533.496380,0.056621
533.824720,0.055182
534.153020,0.056175
534.481280,0.055947
534.809500,0.056728
535.137680,0.055122
535.465820,0.054124
535.793920,0.057107
536.121980,0.057491
536.450000,0.054123
536.777980,0.058232
537.105920,0.061021
537.433820,0.060966
537.761680,0.056327
538.089500,0.057467
538.417280,0.056904
538.745020,0.061410
539.072720,0.055057
539.400380,0.055944
539.728000,0.058891
540.055580,0.057303
540.383120,0.056962
540.710620,0.059524
541.038080,0.056806
541.365500,0.055515
541.692880,0.056686
542.020220,0.059014
542.347520,0.056712
542.674780,0.059633
543.002000,0.055633
543.329180,0.057874
543.656320,0.060478
543.983420,0.053333
544.310480,0.055046
544.637500,0.057660
544.964480,0.059219
545.291420,0.058824
545.618320,0.059429
545.945180,0.054713
546.272000,0.055374
546.598780,0.056375
546.925520,0.057699
547.252220,0.055464
547.578880,0.057348
547.905500,0.056209
548.232080,0.056530
548.558620,0.056948
548.885120,0.056919
549.211580,0.057859
549.538000,0.056420
549.864380,0.056592
550.190720,0.057798
550.517020,0.056389
550.843280,0.059609
551.169500,0.056934
551.495680,0.059790
551.821820,0.058132
552.147920,0.055953
552.473980,0.061574
552.800000,0.057554
553.125980,0.058612
553.451920,0.056735
553.777820,0.057961
554.103680,0.058982
554.429500,0.055239
554.755280,0.057744
555.081020,0.057487
555.406720,0.054859
555.732380,0.053202
556.058000,0.057705
556.383580,0.055803
556.709120,0.058925
557.034620,0.055460
557.360080,0.057686
557.685500,0.058437
558.010880,0.054766
558.336220,0.055536
558.661520,0.056717
558.986780,0.056697
559.312000,0.058405
559.637180,0.057451
559.962320,0.056960
560.287420,0.058886
560.612480,0.057768
560.937500,0.056167
561.262480,0.055352
561.587420,0.057671
561.912320,0.057848
562.237180,0.055514
562.562000,0.057613
562.886780,0.057228
563.211520,0.057004
563.536220,0.057514
563.860880,0.059223
564.185500,0.058912
564.510080,0.059067
564.834620,0.057313
565.159120,0.056391
565.483580,0.056632
565.808000,0.056754
566.132380,0.056322
566.456720,0.058201
566.781020,0.058890
567.105280,0.054442
567.429500,0.059560
567.753680,0.056387
568.077820,0.059915
568.401920,0.060733
568.725980,0.058824
569.050000,0.057034
569.373980,0.059764
569.697920,0.059158
570.021820,0.058801
570.345680,0.057023
570.669500,0.061427
570.993280,0.061646
571.317020,0.058093
571.640720,0.056688
571.964380,0.057164
572.288000,0.059347
572.611580,0.059903
572.935120,0.057987
573.258620,0.058340
573.582080,0.057004
573.905500,0.059568
574.228880,0.060876
574.552220,0.058630
574.875520,0.057707
575.198780,0.057824
575.522000,0.059751
575.845180,0.055516
576.168320,0.060367
576.491420,0.061773
576.814480,0.058228
577.137500,0.058802
577.460480,0.058717
577.783420,0.058235
578.106320,0.058048
578.429180,0.057618
578.752000,0.055922
579.074780,0.056642
579.397520,0.060684
579.720220,0.057593
580.042880,0.061447
580.365500,0.058570
580.688080,0.060719
581.010620,0.060412
581.333120,0.059786
581.655580,0.058608
581.978000,0.060858
582.300380,0.058423
582.622720,0.059657
582.945020,0.063394
583.267280,0.057962
583.589500,0.058748
583.911680,0.060337
584.233820,0.059175
584.555920,0.062086
584.877980,0.058103
585.200000,0.058625
585.521980,0.059005
585.843920,0.057657
586.165820,0.057892
586.487680,0.056274
586.809500,0.058206
587.131280,0.059450
587.453020,0.061012
587.774720,0.060615
588.096380,0.058343
588.418000,0.059409
588.739580,0.059500
589.061120,0.061530
589.382620,0.059599
589.704080,0.058626
590.025500,0.061073
590.346880,0.058179
590.668220,0.059367
590.989520,0.060177
591.310780,0.059928
591.632000,0.059290
591.953180,0.057293
592.274320,0.057603
592.595420,0.059267
592.916480,0.058680
593.237500,0.058205
593.558480,0.059726
593.879420,0.060696
594.200320,0.060809
594.521180,0.060558
594.842000,0.062332
595.162780,0.060363
595.483520,0.058761
595.804220,0.056928
596.124880,0.061551
596.445500,0.061567
596.766080,0.062651
597.086620,0.061571
597.407120,0.058978
597.727580,0.059136
598.048000,0.059508
598.368380,0.057338
598.688720,0.060288
599.009020,0.060775
599.329280,0.061469
599.649500,0.057581
599.969680,0.060630
600.289820,0.059028
600.609920,0.058242
600.929980,0.058525
601.250000,0.058649
601.569980,0.058871
601.889920,0.059610
602.209820,0.059253
602.529680,0.062895
602.849500,0.059193
603.169280,0.059521
603.489020,0.057570
603.808720,0.060340
604.128380,0.057671
604.448000,0.058287
604.767580,0.059777
605.087120,0.060665
605.406620,0.059054
605.726080,0.061876
606.045500,0.060741
606.364880,0.059541
606.684220,0.062821
607.003520,0.059920
607.322780,0.057419
607.642000,0.060023
607.961180,0.059266
608.280320,0.059455
608.599420,0.056489
608.918480,0.060117
609.237500,0.059272
609.556480,0.058893
609.875420,0.060543
610.194320,0.059049
610.513180,0.060669
610.832000,0.061942
611.150780,0.057975
611.469520,0.060332
611.788220,0.056832
612.106880,0.059710
612.425500,0.060292
612.744080,0.063096
613.062620,0.059633
613.381120,0.058501
613.699580,0.059473
614.018000,0.061118
614.336380,0.058914
614.654720,0.058605
614.973020,0.059241
615.291280,0.061047
615.609500,0.060222
615.927680,0.058714
616.245820,0.063080
616.563920,0.059994
616.881980,0.061740
617.200000,0.061275
617.517980,0.060050
617.835920,0.060578
618.153820,0.059683
618.471680,0.060775
618.789500,0.061045
619.107280,0.059781
619.425020,0.060577
619.742720,0.059950
620.060380,0.060483
620.378000,0.059157
620.695580,0.061941
621.013120,0.058583
621.330620,0.060872
621.648080,0.059621
621.965500,0.058971
622.282880,0.060845
622.600220,0.058117
622.917520,0.058916
623.234780,0.060752
623.552000,0.060789
623.869180,0.062086
624.186320,0.057943
624.503420,0.058934
624.820480,0.059378
625.137500,0.060625
625.454480,0.059394
625.771420,0.058323
626.088320,0.059899
626.405180,0.062539
626.722000,0.061794
627.038780,0.061404
627.355520,0.061562
627.672220,0.061275
627.988880,0.060653
628.305500,0.059208
628.622080,0.062268
628.938620,0.059939
629.255120,0.060361
629.571580,0.061293
629.888000,0.061062
630.204380,0.059834
630.520720,0.059720
630.837020,0.060438
631.153280,0.056355
631.469500,0.060643
631.785680,0.061483
632.101820,0.063028
632.417920,0.060209
632.733980,0.060324
633.050000,0.060643
633.365980,0.060166
633.681920,0.062351
633.997820,0.061566
634.313680,0.060454
634.629500,0.059275
634.945280,0.061290
635.261020,0.063105
635.576720,0.060188
635.892380,0.060122
636.208000,0.062173
636.523580,0.061970
636.839120,0.059931
637.154620,0.062319
637.470080,0.061119
637.785500,0.063306
638.100880,0.059079
638.416220,0.060397
638.731520,0.061605
639.046780,0.060006
639.362000,0.059633
639.677180,0.062821
639.992320,0.059487
640.307420,0.060691
640.622480,0.059927
640.937500,0.061026
641.252480,0.061715
641.567420,0.061381
641.882320,0.060969
642.197180,0.060359
642.512000,0.059054
642.826780,0.060472
643.141520,0.060017
643.456220,0.060874
643.770880,0.063847
644.085500,0.060089
644.400080,0.059551
644.714620,0.060758
645.029120,0.058856
645.343580,0.061986
645.658000,0.061338
645.972380,0.061113
646.286720,0.059417
646.601020,0.058400
646.915280,0.061969
647.229500,0.060989
647.543680,0.061585
647.857820,0.060281
648.171920,0.065111
648.485980,0.058920
648.800000,0.061449
649.113980,0.059867
649.427920,0.061859
649.741820,0.061830
650.055680,0.061437
650.369500,0.058296
650.683280,0.059656
650.997020,0.059956
651.310720,0.061365
651.624380,0.060714
651.938000,0.060388
652.251580,0.058725
652.565120,0.061487
652.878620,0.059966
653.192080,0.060112
653.505500,0.057223
653.818880,0.060563
654.132220,0.061806
654.445520,0.060692
654.758780,0.059490
655.072000,0.058739
655.385180,0.057632
655.698320,0.058302
656.011420,0.061622
656.324480,0.060041
656.637500,0.058806
656.950480,0.059307
657.263420,0.060893
657.576320,0.058701
657.889180,0.060454
658.202000,0.059481
658.514780,0.060732
658.827520,0.061224
659.140220,0.058136
659.452880,0.061311
659.765500,0.063215
660.078080,0.059886
660.390620,0.059884
660.703120,0.064467
661.015580,0.064417
661.328000,0.065491
661.640380,0.062752
661.952720,0.060729
662.265020,0.061122
662.577280,0.061705
662.889500,0.058026
663.201680,0.060625
663.513820,0.058540
663.825920,0.060199
664.137980,0.062056
664.450000,0.060742
664.761980,0.059574
665.073920,0.058747
665.385820,0.058246
665.697680,0.060496
666.009500,0.060525
666.321280,0.063287
666.633020,0.063165
666.944720,0.062353
667.256380,0.060565
667.568000,0.060122
667.879580,0.062925
668.191120,0.059066
668.502620,0.061280
668.814080,0.062456
669.125500,0.062949
669.436880,0.062241
669.748220,0.058152
670.059520,0.062325
670.370780,0.061935
670.682000,0.061593
670.993180,0.060958
671.304320,0.061181
671.615420,0.060014
671.926480,0.058907
672.237500,0.058235
672.548480,0.058552
672.859420,0.061472
673.170320,0.061299
673.481180,0.061912
673.792000,0.059142
674.102780,0.059605
674.413520,0.061247
674.724220,0.057350
675.034880,0.063073
675.345500,0.058716
675.656080,0.063521
675.966620,0.061477
676.277120,0.060784
676.587580,0.060751
676.898000,0.061217
677.208380,0.058780
677.518720,0.060540
677.829020,0.062454
678.139280,0.056709
678.449500,0.064241
678.759680,0.061821
679.069820,0.059108
679.379920,0.062241
679.689980,0.061641
680.000000,0.060187
680.309980,0.059391
680.619920,0.060962
680.929820,0.061963
681.239680,0.057238
681.549500,0.062222
681.859280,0.060493
682.169020,0.062663
682.478720,0.064323
682.788380,0.060539
683.098000,0.061705
683.407580,0.061538
683.717120,0.058183
684.026620,0.062877
684.336080,0.063282
684.645500,0.060232
684.954880,0.059690
685.264220,0.063798
685.573520,0.063571
685.882780,0.059455
686.192000,0.063582
686.501180,0.057132
686.810320,0.062644
687.119420,0.061574
687.428480,0.059248
687.737500,0.063315
688.046480,0.061350
688.355420,0.063750
688.664320,0.059296
688.973180,0.060873
689.282000,0.060571
689.590780,0.060199
689.899520,0.058868
690.208220,0.061927
690.516880,0.065674
690.825500,0.063019
691.134080,0.060364
691.442620,0.060976
691.751120,0.061054
692.059580,0.059992
692.368000,0.057933
692.676380,0.061450
692.984720,0.057634
693.293020,0.060030
693.601280,0.060282
693.909500,0.059402
694.217680,0.062833
694.525820,0.065499
694.833920,0.062190
695.141980,0.062090
695.450000,0.059542
695.757980,0.058824
696.065920,0.059029
696.373820,0.059276
696.681680,0.061373
696.989500,0.064068
697.297280,0.061844
697.605020,0.061111
697.912720,0.061107
698.220380,0.059425
698.528000,0.066060
698.835580,0.063216
699.143120,0.060016
699.450620,0.060859
699.758080,0.060000
700.065500,0.061852
700.372880,0.059600
700.680220,0.060630
700.987520,0.061111
701.294780,0.059205
701.602000,0.060222
701.909180,0.063990
702.216320,0.057489
702.523420,0.062352
702.830480,0.057030
703.137500,0.062354
703.444480,0.064300
703.751420,0.061538
704.058320,0.061733
704.365180,0.059937
704.672000,0.059010
704.978780,0.061647
705.285520,0.061815
705.592220,0.058039
705.898880,0.063436
706.205500,0.062989
706.512080,0.060821
706.818620,0.064241
707.125120,0.062308
707.431580,0.060180
707.738000,0.063672
708.044380,0.059822
708.350720,0.061139
708.657020,0.059007
708.963280,0.059394
709.269500,0.061840
709.575680,0.064833
709.881820,0.062107
710.187920,0.059144
710.493980,0.060900
710.800000,0.059115
711.105980,0.060241
711.411920,0.058337
711.717820,0.058869
712.023680,0.059852
712.329500,0.062697
712.635280,0.062403
712.941020,0.061075
713.246720,0.056917
713.552380,0.062009
713.858000,0.064249
714.163580,0.061168
714.469120,0.058617
714.774620,0.059218
715.080080,0.060463
715.385500,0.059153
715.690880,0.057199
715.996220,0.059033
716.301520,0.060870
716.606780,0.062500
716.912000,0.062601
717.217180,0.062251
717.522320,0.058449
717.827420,0.059398
718.132480,0.059815
718.437500,0.061150
718.742480,0.057661
719.047420,0.059871
719.352320,0.060606
719.657180,0.060916
719.962000,0.061208
720.266780,0.061072
720.571520,0.062966
720.876220,0.059738
721.180880,0.059783
721.485500,0.060593
721.790080,0.062845
722.094620,0.063465
722.399120,0.059026
722.703580,0.059151
723.008000,0.059940
723.312380,0.059406
723.616720,0.059074
723.921020,0.059766
724.225280,0.063264
724.529500,0.064361
724.833680,0.063612
725.137820,0.059031
725.441920,0.063754
725.745980,0.064877
726.050000,0.064051
726.353980,0.060388
726.657920,0.063428
726.961820,0.060274
727.265680,0.060102
727.569500,0.057587
727.873280,0.060046
728.177020,0.064486
728.480720,0.061111
728.784380,0.061531
729.088000,0.059350
729.391580,0.060635
729.695120,0.060940
729.998620,0.065010
730.302080,0.058626
730.605500,0.055798
730.908880,0.061734
731.212220,0.063173
731.515520,0.058996
731.818780,0.060680
732.122000,0.062992
732.425180,0.064071
732.728320,0.063956
733.031420,0.059148
733.334480,0.061224
733.637500,0.057964
733.940480,0.060901
734.243420,0.062181
734.546320,0.062241
734.849180,0.059401
735.152000,0.058610
735.454780,0.059917
735.757520,0.059536
736.060220,0.061611
736.362880,0.063025
736.665500,0.061097
736.968080,0.063944
737.270620,0.060969
737.573120,0.063319
737.875580,0.063771
738.178000,0.056614
738.480380,0.057838
738.782720,0.060523
739.085020,0.058921
739.387280,0.061530
739.689500,0.062288
739.991680,0.062886
740.293820,0.064677
740.595920,0.061770
740.897980,0.064370
741.200000,0.061133
741.501980,0.065903
741.803920,0.063063
742.105820,0.062042
742.407680,0.062900
742.709500,0.060227
743.011280,0.061547
743.313020,0.059710
743.614720,0.059779
743.916380,0.059884
744.218000,0.063246
744.519580,0.059783
744.821120,0.058683
745.122620,0.062313
745.424080,0.055288
745.725500,0.063971
746.026880,0.063424
746.328220,0.061036
746.629520,0.063215
746.930780,0.063113
747.232000,0.064378
747.533180,0.058572
747.834320,0.059038
748.135420,0.060907
748.436480,0.063631
748.737500,0.062384
749.038480,0.062309
749.339420,0.063472
749.640320,0.062854
749.941180,0.061212
750.242000,0.061558
750.542780,0.059553
750.843520,0.062780
751.144220,0.060256
751.444880,0.064046
751.745500,0.057143
752.046080,0.060295
752.346620,0.053479
752.647120,0.062051
752.947580,0.064683
753.248000,0.059317
753.548380,0.059206
753.848720,0.061816
754.149020,0.056738
754.449280,0.063690
754.749500,0.059058
755.049680,0.058667
755.349820,0.061374
755.649920,0.061467
755.949980,0.058394
756.250000,0.059829
756.549980,0.061386
756.849920,0.059143
757.149820,0.062542
757.449680,0.062046
757.749500,0.062031
758.049280,0.059386
758.349020,0.060501
758.648720,0.062802
758.948380,0.061168
759.248000,0.061995
759.547580,0.066577
759.847120,0.060648
760.146620,0.062923
760.446080,0.059812
760.745500,0.060839
761.044880,0.061080
761.344220,0.063435
761.643520,0.062853
761.942780,0.060882
762.242000,0.063649
762.541180,0.061972
762.840320,0.063202
763.139420,0.063291
763.438480,0.058100
763.737500,0.062715
764.036480,0.064990
764.335420,0.067749
764.634320,0.061677
764.933180,0.067123
765.232000,0.056905
765.530780,0.057544
765.829520,0.062937
766.128220,0.063326
766.426880,0.059701
766.725500,0.069225
767.024080,0.058985
767.322620,0.060166
767.621120,0.060298
767.919580,0.060068
768.218000,0.061560
768.516380,0.062204
768.814720,0.057613
769.113020,0.059269
769.411280,0.065608
769.709500,0.062923
770.007680,0.055215
770.305820,0.064909
770.603920,0.060647
770.901980,0.062158
771.200000,0.058424
771.497980,0.064343
771.795920,0.061538
772.093820,0.063503
772.391680,0.064601
772.689500,0.058784
772.987280,0.056566
773.285020,0.061517
773.582720,0.062162
773.880380,0.056966
774.178000,0.059305
774.475580,0.059612
774.773120,0.062918
775.070620,0.060852
775.368080,0.063460
775.665500,0.058428
775.962880,0.062708
776.260220,0.062584
776.557520,0.062041
776.854780,0.057471
777.152000,0.059019
777.449180,0.063385
777.746320,0.055780
778.043420,0.062074
778.340480,0.061570
778.637500,0.062880
778.934480,0.062542
779.231420,0.061058
779.528320,0.058784
779.825180,0.063900
780.122000,0.060425
780.418780,0.062244
780.715520,0.061033
781.012220,0.060959
781.308880,0.063556
781.605500,0.056849
781.902080,0.062971
782.198620,0.060834
782.495120,0.061043
782.791580,0.064649
783.088000,0.062112
783.384380,0.066025
783.680720,0.061560
783.977020,0.060564
784.273280,0.067832
784.569500,0.060797
784.865680,0.064673
785.161820,0.061806
785.457920,0.058905
785.753980,0.061410
786.050000,0.061464
786.345980,0.065972
786.641920,0.063151
786.937820,0.066952
787.233680,0.060543
787.529500,0.061720
787.825280,0.061615
788.121020,0.062323
788.416720,0.059280
788.712380,0.059944
789.008000,0.058782
789.303580,0.057951
789.599120,0.058909
789.894620,0.067148
790.190080,0.053662
790.485500,0.059035
790.780880,0.059498
791.076220,0.063492
791.371520,0.062455
791.666780,0.063273
791.962000,0.058046
792.257180,0.062225
792.552320,0.062364
792.847420,0.064047
793.142480,0.067399
793.437500,0.055716
793.732480,0.054865
794.027420,0.058605
794.322320,0.058911
794.617180,0.060921
794.912000,0.060178
795.206780,0.060403
795.501520,0.066160
795.796220,0.060741
796.090880,0.064054
796.385500,0.062969
796.680080,0.057592
796.974620,0.070359
797.269120,0.064345
797.563580,0.061069
797.858000,0.065300
798.152380,0.060325
798.446720,0.065385
798.741020,0.063945
799.035280,0.066770
799.329500,0.061586
799.623680,0.063566
