399.985280,0.027027
400.329500,0.067568
400.673680,0.025316
401.017820,0.000000
401.361920,-0.075758
401.705980,0.024390
402.050000,0.012987
402.393980,0.047059
402.737920,0.078652
403.081820,0.041237
403.425680,0.081395
403.769500,0.000000
404.113280,-0.022989
404.457020,0.078652
404.800720,0.000000
405.144380,0.030303
405.488000,0.010753
405.831580,0.103093
406.175120,0.042553
406.518620,0.050000
406.862080,0.092784
407.205500,0.041667
407.548880,0.081633
407.892220,0.058824
408.235520,0.042553
408.578780,0.066667
408.922000,0.038462
409.265180,0.030303
409.608320,0.070707
409.951420,0.144330
410.294480,0.098039
410.637500,-0.021739
410.980480,0.029412
411.323420,0.030612
411.666320,0.036697
412.009180,0.090909
412.352000,0.009901
412.694780,0.055046
413.037520,0.027523
413.380220,0.090090
413.722880,0.035714
414.065500,0.054054
414.408080,0.070796
414.750620,0.044248
415.093120,0.024793
415.435580,0.058824
415.778000,0.098485
416.120380,0.033613
416.462720,0.039683
416.805020,0.082707
417.147280,0.067164
417.489500,0.064286
417.831680,0.013699
418.173820,0.049645
418.515920,0.027972
418.857980,0.075949
419.200000,0.038462
419.541980,0.088757
419.883920,0.061798
420.225820,0.046243
420.567680,0.061453
420.909500,0.065574
421.251280,0.062500
421.593020,0.066327
421.934720,0.045455
422.276380,0.025641
422.618000,0.078431
422.959580,0.039216
423.301120,0.050228
423.642620,0.052174
423.984080,0.032558
424.325500,0.040359
424.666880,0.034483
425.008220,0.046218
425.349520,0.050847
425.690780,0.038462
426.032000,0.043137
426.373180,0.020747
426.714320,0.054687
427.055420,0.030888
427.396480,0.052434
427.737500,0.051383
428.078480,0.047431
428.419420,0.044177
428.760320,0.042146
429.101180,0.070866
429.442000,0.038314
429.782780,0.034615
430.123520,0.035294
430.464220,0.055351
430.804880,0.057471
431.145500,0.040000
431.486080,0.048689
431.826620,0.034884
432.167120,0.036765
432.507580,0.054348
432.848000,0.043165
433.188380,0.046931
433.528720,0.030189
433.869020,0.046429
434.209280,0.031579
434.549500,0.048780
434.889680,0.053872
435.229820,0.037543
435.569920,0.038062
435.909980,0.032362
436.250000,0.057627
436.589980,0.027864
436.929920,0.063492
437.269820,0.043887
437.609680,0.056213
437.949500,0.042169
438.289280,0.059490
438.629020,0.058140
438.968720,0.037791
439.308380,0.035230
439.648000,0.046575
439.987580,0.047619
440.327120,0.032000
440.666620,0.051948
441.006080,0.028133
441.345500,0.056511
441.684880,0.033493
442.024220,0.037221
442.363520,0.042857
442.702780,0.050000
443.042000,0.024229
443.381180,0.043103
443.720320,0.051836
444.059420,0.052521
444.398480,0.043933
444.737500,0.045082
445.076480,0.039683
445.415420,0.051896
445.754320,0.043659
446.093180,0.051376
446.432000,0.046992
446.770780,0.056926
447.109520,0.058824
447.448220,0.051878
447.786880,0.048301
448.125500,0.058621
448.464080,0.058929
448.802620,0.044326
449.141120,0.044983
449.479580,0.055944
449.818000,0.058520
450.156380,0.058528
450.494720,0.057851
450.833020,0.048951
451.171280,0.047945
451.509500,0.057491
451.847680,0.043845
452.185820,0.051635
452.523920,0.053265
452.861980,0.043845
453.200000,0.041528
453.537980,0.058824
453.875920,0.057143
454.213820,0.046233
454.551680,0.049669
454.889500,0.050590
455.227280,0.042705
455.565020,0.067002
455.902720,0.059900
456.240380,0.043261
456.578000,0.052265
456.915580,0.051813
457.253120,0.047697
457.590620,0.055829
457.928080,0.050505
458.265500,0.050676
458.602880,0.048701
458.940220,0.042301
459.277520,0.048000
459.614780,0.055646
459.952000,0.052795
460.289180,0.056962
460.626320,0.040945
460.963420,0.048465
461.300480,0.051988
461.637500,0.046225
461.974480,0.047401
462.311420,0.049180
462.648320,0.042460
462.985180,0.047346
463.322000,0.043155
463.658780,0.044199
463.995520,0.049519
464.332220,0.045706
464.668880,0.055108
465.005500,0.048257
465.342080,0.058899
465.678620,0.059041
466.015120,0.053040
466.351580,0.050569
466.688000,0.057247
467.024380,0.049818
467.360720,0.045455
467.697020,0.053531
468.033280,0.058889
468.369500,0.051876
468.705680,0.046223
469.041820,0.048958
469.377920,0.053145
469.713980,0.048404
470.050000,0.056039
470.385980,0.054795
470.721920,0.053869
471.057820,0.047758
471.393680,0.051450
471.729500,0.050973
472.065280,0.055456
472.401020,0.051418
472.736720,0.054101
473.072380,0.056553
473.408000,0.053090
473.743580,0.051903
474.079120,0.060293
474.414620,0.049194
474.750080,0.052075
475.085500,0.055921
475.420880,0.048293
475.756220,0.047424
476.091520,0.054561
476.426780,0.056634
476.762000,0.048270
477.097180,0.049600
477.432320,0.052504
477.767420,0.052288
478.102480,0.051969
478.437500,0.046798
478.772480,0.047281
479.107420,0.050448
479.442320,0.048761
479.777180,0.056484
480.112000,0.053159
480.446780,0.049883
480.781520,0.053945
481.116220,0.046888
481.450880,0.053084
481.785500,0.055380
482.120080,0.054859
482.454620,0.052059
482.789120,0.050955
483.123580,0.050623
483.458000,0.048259
483.792380,0.052716
484.126720,0.050193
484.461020,0.055425
484.795280,0.052429
485.129500,0.059236
485.463680,0.048837
485.797820,0.051322
486.131920,0.052793
486.465980,0.054826
486.800000,0.052672
487.133980,0.048338
487.467920,0.052028
487.801820,0.054157
488.135680,0.051554
488.469500,0.049168
488.803280,0.051263
489.137020,0.047619
489.470720,0.051929
489.804380,0.054937
490.138000,0.051929
490.471580,0.052321
490.805120,0.056469
491.138620,0.046908
491.472080,0.055830
491.805500,0.053696
492.138880,0.055594
492.472220,0.053287
492.805520,0.050279
493.138780,0.053067
493.472000,0.057525
493.805180,0.056617
494.138320,0.055370
494.471420,0.053385
494.804480,0.056274
495.137500,0.053915
495.470480,0.057361
495.803420,0.052267
496.136320,0.056391
496.469180,0.055249
496.802000,0.048900
497.134780,0.050940
497.467520,0.057492
497.800220,0.051297
498.132880,0.051734
498.465500,0.054461
498.798080,0.051941
499.130620,0.053902
499.463120,0.055587
499.795580,0.053905
500.128000,0.055586
500.460380,0.056512
500.792720,0.052492
501.125020,0.048870
501.457280,0.052742
501.789500,0.055269
502.121680,0.056506
502.453820,0.055584
502.785920,0.051526
503.117980,0.054956
503.450000,0.055751
503.781980,0.054310
504.113920,0.051683
504.445820,0.057851
504.777680,0.048941
505.109500,0.055769
505.441280,0.054493
505.773020,0.051198
506.104720,0.055582
506.436380,0.052532
506.768000,0.050514
507.099580,0.054462
507.431120,0.053864
507.762620,0.052162
508.094080,0.051960
508.425500,0.054155
508.756880,0.049840
509.088220,0.053358
509.419520,0.054004
509.750780,0.055764
510.082000,0.052239
510.413180,0.052510
510.744320,0.052922
511.075420,0.054079
511.406480,0.056417
511.737500,0.054167
512.068480,0.054511
512.399420,0.053991
512.730320,0.055427
513.061180,0.055186
513.392000,0.052059
513.722780,0.053794
514.053520,0.056061
514.384220,0.052331
514.714880,0.056965
515.045500,0.053640
515.376080,0.053269
515.706620,0.051145
516.037120,0.051471
516.367580,0.053721
516.698000,0.051471
517.028380,0.055611
517.358720,0.052346
517.689020,0.054896
518.019280,0.056197
518.349500,0.055246
518.679680,0.051489
519.009820,0.053138
519.339920,0.060621
519.669980,0.053240
520.000000,0.055018
520.329980,0.051840
520.659920,0.053681
520.989820,0.057276
521.319680,0.056584
521.649500,0.053470
521.979280,0.053758
522.309020,0.052905
522.638720,0.049667
522.968380,0.057394
523.298000,0.052192
523.627580,0.056389
523.957120,0.054545
524.286620,0.056279
524.616080,0.056877
524.945500,0.053230
525.274880,0.061570
525.604220,0.054865
525.933520,0.052411
526.262780,0.055246
526.592000,0.055809
526.921180,0.054342
527.250320,0.053272
527.579420,0.057605
527.908480,0.052191
528.237500,0.058093
528.566480,0.053393
528.895420,0.056678
529.224320,0.056464
529.553180,0.057349
529.882000,0.057908
530.210780,0.052124
530.539520,0.054650
530.868220,0.054572
531.196880,0.053512
531.525500,0.057627
531.854080,0.059099
532.182620,0.056983
532.511120,0.054756
532.839580,0.055354
533.168000,0.055150
533.496380,0.058447
533.824720,0.055182
534.153020,0.056621
534.481280,0.055507
534.809500,0.058487
535.137680,0.055990
535.465820,0.055842
535.793920,0.055415
536.121980,0.059589
536.450000,0.054123
536.777980,0.058232
537.105920,0.056455
537.433820,0.058101
537.761680,0.058367
538.089500,0.057871
538.417280,0.055312
538.745020,0.056260
539.072720,0.053885
539.400380,0.058275
539.728000,0.060038
540.055580,0.057678
540.383120,0.056217
540.710620,0.058036
541.038080,0.059019
541.365500,0.054412
541.692880,0.055959
542.020220,0.057575
542.347520,0.056712
542.674780,0.057163
543.002000,0.055283
543.329180,0.060680
543.656320,0.060127
543.983420,0.055726
544.310480,0.054366
544.637500,0.056295
544.964480,0.058210
545.291420,0.058824
545.618320,0.059097
545.945180,0.053724
546.272000,0.057339
546.598780,0.056703
546.925520,0.057699
547.252220,0.056124
547.578880,0.057348
547.905500,0.054902
548.232080,0.058155
548.558620,0.060853
548.885120,0.056264
549.211580,0.060752
549.538000,0.059339
549.864380,0.054984
550.190720,0.056183
550.517020,0.057366
550.843280,0.057655
551.169500,0.057570
551.495680,0.058476
551.821820,0.057479
552.147920,0.057580
552.473980,0.055976
552.800000,0.058862
553.125980,0.056974
553.451920,0.057399
553.777820,0.057295
554.103680,0.057634
554.429500,0.053231
554.755280,0.058411
555.081020,0.057152
555.406720,0.058246
555.732380,0.057946
556.058000,0.059742
556.383580,0.057857
556.709120,0.062026
557.034620,0.058560
557.360080,0.057340
557.685500,0.058783
558.010880,0.053726
558.336220,0.056591
558.661520,0.056717
558.986780,0.058115
559.312000,0.059829
559.637180,0.056732
559.962320,0.056248
560.287420,0.058181
560.612480,0.055974
560.937500,0.058370
561.262480,0.056452
561.587420,0.056946
561.912320,0.057480
562.237180,0.061806
562.562000,0.054246
562.886780,0.057599
563.211520,0.057004
563.536220,0.058256
563.860880,0.056205
564.185500,0.057036
564.510080,0.057938
564.834620,0.056569
565.159120,0.056015
565.483580,0.057013
565.808000,0.055619
566.132380,0.058187
566.456720,0.059335
566.781020,0.058515
567.105280,0.055198
567.429500,0.060698
567.753680,0.055619
568.077820,0.055276
568.401920,0.059206
568.725980,0.059962
569.050000,0.057414
569.373980,0.057099
569.697920,0.058400
570.021820,0.057678
570.345680,0.057788
570.669500,0.059138
570.993280,0.061646
571.317020,0.059920
571.640720,0.057058
571.964380,0.058649
572.288000,0.059347
572.611580,0.059528
572.935120,0.059110
573.258620,0.056470
573.582080,0.057004
573.905500,0.058451
574.228880,0.059020
574.552220,0.058996
574.875520,0.058824
575.198780,0.059631
575.522000,0.059384
575.845180,0.056590
576.168320,0.057851
576.491420,0.058503
576.814480,0.059313
577.137500,0.059885
577.460480,0.058717
577.783420,0.056449
578.106320,0.059473
578.429180,0.059385
578.752000,0.057659
579.074780,0.060688
579.397520,0.058102
579.720220,0.058237
580.042880,0.058804
580.365500,0.058240
580.688080,0.061398
581.010620,0.061762
581.333120,0.062792
581.655580,0.059940
581.978000,0.058863
582.300380,0.059721
582.622720,0.057680
582.945020,0.058843
583.267280,0.059264
583.589500,0.058106
583.911680,0.057796
584.233820,0.058231
584.555920,0.060826
584.877980,0.059673
585.200000,0.057704
585.521980,0.059623
585.843920,0.058877
586.165820,0.057892
586.487680,0.061089
586.809500,0.058806
587.131280,0.058858
587.453020,0.056845
587.774720,0.059137
588.096380,0.058051
588.418000,0.059994
588.739580,0.061224
589.061120,0.059804
589.382620,0.058739
589.704080,0.060870
590.025500,0.059646
590.346880,0.057055
590.668220,0.060767
590.989520,0.058236
591.310780,0.060481
591.632000,0.059563
591.953180,0.059231
592.274320,0.058422
592.595420,0.058459
592.916480,0.058680
593.237500,0.062247
593.558480,0.060264
593.879420,0.059077
594.200320,0.061881
594.521180,0.059230
594.842000,0.062332
595.162780,0.059295
595.483520,0.057697
595.804220,0.055854
596.124880,0.060218
596.445500,0.059995
596.766080,0.062651
597.086620,0.061040
597.407120,0.060295
597.727580,0.061787
598.048000,0.060037
598.368380,0.060231
598.688720,0.059502
599.009020,0.059713
599.329280,0.057477
599.649500,0.060222
599.969680,0.059295
600.289820,0.059829
600.609920,0.059044
600.929980,0.057990
601.250000,0.058378
601.569980,0.058871
601.889920,0.060412
602.209820,0.059524
602.529680,0.061247
602.849500,0.060284
603.169280,0.060623
603.489020,0.059784
603.808720,0.058146
604.128380,0.059879
604.448000,0.060773
604.767580,0.060894
605.087120,0.060942
605.406620,0.059894
605.726080,0.061591
606.045500,0.059348
606.364880,0.058407
606.684220,0.063392
607.003520,0.058200
607.322780,0.058272
607.642000,0.059736
607.961180,0.058977
608.280320,0.059455
608.599420,0.059096
608.918480,0.060997
609.237500,0.058979
609.556480,0.059485
609.875420,0.059067
610.194320,0.060230
610.513180,0.060965
610.832000,0.058368
611.150780,0.058877
611.469520,0.058824
611.788220,0.056227
612.106880,0.062123
612.425500,0.057856
612.744080,0.061250
613.062620,0.057798
613.381120,0.057587
613.699580,0.060086
614.018000,0.061425
614.336380,0.059223
614.654720,0.059225
614.973020,0.060167
615.291280,0.063836
615.609500,0.060539
615.927680,0.060878
616.245820,0.060297
616.563920,0.062791
616.881980,0.063611
617.200000,0.058787
617.517980,0.059739
617.835920,0.059957
618.153820,0.059061
618.471680,0.061085
618.789500,0.056325
619.107280,0.060720
619.425020,0.061212
619.742720,0.059008
620.060380,0.061423
620.378000,0.059157
620.695580,0.060026
621.013120,0.057953
621.330620,0.060245
621.648080,0.061199
621.965500,0.060540
622.282880,0.058953
622.600220,0.057486
622.917520,0.058601
623.234780,0.059466
623.552000,0.061744
623.869180,0.058620
624.186320,0.059535
624.503420,0.060188
624.820480,0.058121
625.137500,0.059362
625.454480,0.060331
625.771420,0.059269
626.088320,0.058323
626.405180,0.061294
626.722000,0.059598
627.038780,0.061404
627.355520,0.061875
627.672220,0.059098
627.988880,0.060031
628.305500,0.062325
628.622080,0.060719
628.938620,0.064526
629.255120,0.061294
629.571580,0.058535
629.888000,0.060755
630.204380,0.061369
630.520720,0.060024
630.837020,0.060438
631.153280,0.059652
631.469500,0.059733
631.785680,0.058770
632.101820,0.062123
632.417920,0.059016
632.733980,0.058223
633.050000,0.059733
633.365980,0.060759
633.681920,0.057876
633.997820,0.057980
634.313680,0.060454
634.629500,0.059864
634.945280,0.059531
635.261020,0.063105
635.576720,0.059894
635.892380,0.058960
636.208000,0.061883
636.523580,0.063139
636.839120,0.060220
637.154620,0.062319
637.470080,0.060832
637.785500,0.061841
638.100880,0.062554
638.416220,0.061835
638.731520,0.059599
639.046780,0.062336
639.362000,0.059346
639.677180,0.061965
639.992320,0.060897
640.307420,0.060691
640.622480,0.060207
640.937500,0.060194
641.252480,0.063111
641.567420,0.061949
641.882320,0.061526
642.197180,0.062605
642.512000,0.060174
642.826780,0.061026
643.141520,0.059183
643.456220,0.062258
643.770880,0.060254
644.085500,0.061766
644.400080,0.061236
644.714620,0.058807
645.029120,0.059406
645.343580,0.059243
645.658000,0.059672
645.972380,0.061113
646.286720,0.061325
646.601020,0.061168
646.915280,0.062243
647.229500,0.057967
647.543680,0.062690
647.857820,0.060556
648.171920,0.061313
648.485980,0.061113
648.800000,0.056214
649.113980,0.059035
649.427920,0.060194
649.741820,0.059907
650.055680,0.061437
650.369500,0.061099
650.683280,0.061321
650.997020,0.060781
651.310720,0.059439
651.624380,0.060165
651.938000,0.063158
652.251580,0.062622
652.565120,0.060648
652.878620,0.063345
653.192080,0.059551
653.505500,0.060870
653.818880,0.059141
654.132220,0.060951
654.445520,0.059274
654.758780,0.060057
655.072000,0.060458
655.385180,0.060770
655.698320,0.060875
656.011420,0.059616
656.324480,0.062372
656.637500,0.060545
656.950480,0.060775
657.263420,0.060302
657.576320,0.058998
657.889180,0.062224
658.202000,0.058575
658.514780,0.061030
658.827520,0.061525
659.140220,0.057836
659.452880,0.061311
659.765500,0.062613
660.078080,0.060488
660.390620,0.059884
660.703120,0.062328
661.015580,0.061043
661.328000,0.060139
661.640380,0.061820
661.952720,0.062286
662.265020,0.062382
662.577280,0.063613
662.889500,0.060233
663.201680,0.060625
663.513820,0.060470
663.825920,0.059238
664.137980,0.062702
664.450000,0.059783
664.761980,0.059574
665.073920,0.056475
665.385820,0.059555
665.697680,0.058182
666.009500,0.059528
666.321280,0.064281
666.633020,0.062832
666.944720,0.058645
667.256380,0.058883
667.568000,0.059103
667.879580,0.061224
668.191120,0.059409
668.502620,0.062992
668.814080,0.060351
669.125500,0.061238
669.436880,0.061203
669.748220,0.060575
670.059520,0.063375
670.370780,0.062283
670.682000,0.062301
670.993180,0.063425
671.304320,0.062588
671.615420,0.060014
671.926480,0.063520
672.237500,0.058950
672.548480,0.059617
672.859420,0.060758
673.170320,0.059485
673.481180,0.058653
673.792000,0.059142
674.102780,0.059964
674.413520,0.061976
674.724220,0.059165
675.034880,0.062706
675.345500,0.061269
675.656080,0.061706
675.966620,0.060749
676.277120,0.060784
676.587580,0.061856
676.898000,0.058977
677.208380,0.059519
677.518720,0.057257
677.829020,0.059497
678.139280,0.061527
678.449500,0.063498
678.759680,0.062570
679.069820,0.061710
679.379920,0.062618
679.689980,0.060527
680.000000,0.057196
680.309980,0.060505
680.619920,0.058690
680.929820,0.061217
681.239680,0.061300
681.549500,0.060741
681.859280,0.060866
682.169020,0.062290
682.478720,0.060583
682.788380,0.060170
683.098000,0.062827
683.407580,0.063415
683.717120,0.061937
684.026620,0.062877
684.336080,0.062145
684.645500,0.061354
684.954880,0.061201
685.264220,0.063043
685.573520,0.063951
685.882780,0.058688
686.192000,0.060948
686.501180,0.059024
686.810320,0.060338
687.119420,0.060433
687.428480,0.063046
687.737500,0.061013
688.046480,0.060966
688.355420,0.063372
688.664320,0.058914
688.973180,0.063936
689.282000,0.058642
689.590780,0.060199
689.899520,0.058109
690.208220,0.063073
690.516880,0.062619
690.825500,0.062264
691.134080,0.057707
691.442620,0.060976
691.751120,0.062192
692.059580,0.061521
692.368000,0.059069
692.676380,0.063740
692.984720,0.058779
693.293020,0.061170
693.601280,0.056849
693.909500,0.062807
694.217680,0.062452
694.525820,0.063595
694.833920,0.061045
695.141980,0.060162
695.450000,0.060305
695.757980,0.061879
696.065920,0.060583
696.373820,0.063125
696.681680,0.062140
696.989500,0.060594
697.297280,0.061455
697.605020,0.061905
697.912720,0.060338
698.220380,0.061787
698.528000,0.062896
698.835580,0.063611
699.143120,0.061574
699.450620,0.062053
699.758080,0.063529
700.065500,0.065044
700.372880,0.063200
700.680220,0.059434
700.987520,0.060714
701.294780,0.057583
701.602000,0.060222
701.909180,0.063196
702.216320,0.061400
702.523420,0.059984
702.830480,0.062970
703.137500,0.060795
703.444480,0.063511
703.751420,0.059566
704.058320,0.062129
704.365180,0.064274
704.672000,0.064554
704.978780,0.063988
705.285520,0.061033
705.592220,0.060392
705.898880,0.060678
706.205500,0.061033
706.512080,0.061611
706.818620,0.060759
707.125120,0.066923
707.431580,0.060571
707.738000,0.064453
708.044380,0.060208
708.350720,0.062667
708.657020,0.062524
708.963280,0.063665
709.269500,0.059883
709.575680,0.063654
709.881820,0.060142
710.187920,0.059144
710.493980,0.061676
710.800000,0.062166
711.105980,0.059488
711.411920,0.062672
711.717820,0.063548
712.023680,0.060630
712.329500,0.062303
712.635280,0.061628
712.941020,0.065327
713.246720,0.062846
713.552380,0.062402
713.858000,0.061490
714.163580,0.060773
714.469120,0.059789
714.774620,0.059613
715.080080,0.061249
715.385500,0.060751
715.690880,0.062327
715.996220,0.062995
716.301520,0.058103
716.606780,0.058569
716.912000,0.060985
717.217180,0.058659
717.522320,0.059245
717.827420,0.062246
718.132480,0.063027
718.437500,0.062373
718.742480,0.060484
719.047420,0.057848
719.352320,0.061021
719.657180,0.062142
719.962000,0.060794
720.266780,0.061487
720.571520,0.062138
720.876220,0.059738
721.180880,0.060201
721.485500,0.063519
721.790080,0.057325
722.094620,0.061750
722.399120,0.062473
722.703580,0.060009
723.008000,0.061665
723.312380,0.062850
723.616720,0.059924
723.921020,0.061498
724.225280,0.059337
724.529500,0.061734
724.833680,0.061388
725.137820,0.063877
725.441920,0.059296
725.745980,0.062640
726.050000,0.062246
726.353980,0.059036
726.657920,0.062978
726.961820,0.062557
727.265680,0.063800
727.569500,0.057130
727.873280,0.060046
728.177020,0.064026
728.480720,0.060648
728.784380,0.062001
729.088000,0.058408
729.391580,0.060635
729.695120,0.065259
729.998620,0.063098
730.302080,0.061028
730.605500,0.059680
730.908880,0.061734
731.212220,0.060235
731.515520,0.063871
731.818780,0.062136
732.122000,0.061516
732.425180,0.061114
732.728320,0.063461
733.031420,0.061153
733.334480,0.060714
733.637500,0.061996
733.940480,0.060901
734.243420,0.064220
734.546320,0.059129
734.849180,0.058368
735.152000,0.059129
735.454780,0.057851
735.757520,0.061644
736.060220,0.060558
736.362880,0.064601
736.665500,0.059008
736.968080,0.064481
737.270620,0.061513
737.573120,0.066048
737.875580,0.063771
738.178000,0.060969
738.480380,0.058919
738.782720,0.062704
739.085020,0.061674
739.387280,0.066519
739.689500,0.062288
739.991680,0.062325
740.293820,0.059149
740.595920,0.061770
740.897980,0.068323
741.200000,0.067863
741.501980,0.067622
741.803920,0.061937
742.105820,0.058658
742.407680,0.057659
742.709500,0.063068
743.011280,0.058030
743.313020,0.058551
743.614720,0.059779
743.916380,0.058721
744.218000,0.065632
744.519580,0.060386
744.821120,0.064671
745.122620,0.059317
745.424080,0.053486
745.725500,0.062764
746.026880,0.059113
746.328220,0.062269
746.629520,0.062613
746.930780,0.058211
747.232000,0.064991
747.533180,0.063453
747.834320,0.060864
748.135420,0.059043
748.436480,0.064878
748.737500,0.063620
749.038480,0.064753
749.339420,0.064717
749.640320,0.061596
749.941180,0.060587
750.242000,0.059045
750.542780,0.055211
750.843520,0.063421
751.144220,0.063462
751.444880,0.065314
751.745500,0.059740
752.046080,0.067351
752.346620,0.059278
752.647120,0.058132
752.947580,0.067270
753.248000,0.063185
753.548380,0.061158
753.848720,0.059884
754.149020,0.056738
754.449280,0.063690
754.749500,0.059058
755.049680,0.060000
755.349820,0.064043
755.649920,0.068077
755.949980,0.057731
756.250000,0.065746
756.549980,0.056766
756.849920,0.063222
757.149820,0.061211
757.449680,0.060066
757.749500,0.062713
758.049280,0.058020
758.349020,0.061196
758.648720,0.065562
758.948380,0.059794
759.248000,0.057278
759.547580,0.059180
759.847120,0.062715
760.146620,0.060217
760.446080,0.063844
760.745500,0.065035
761.044880,0.058949
761.344220,0.062723
761.643520,0.062147
761.942780,0.062981
762.242000,0.066478
762.541180,0.062676
762.840320,0.066011
763.139420,0.057665
763.438480,0.058100
763.737500,0.058580
764.036480,0.060098
764.335420,0.062103
764.634320,0.063063
764.933180,0.060959
765.232000,0.061069
765.530780,0.062456
765.829520,0.066434
766.128220,0.067502
766.426880,0.058280
766.725500,0.066484
767.024080,0.058985
767.322620,0.060166
767.621120,0.063008
767.919580,0.060068
768.218000,0.059508
768.516380,0.062204
768.814720,0.061728
769.113020,0.062026
769.411280,0.066298
769.709500,0.063599
770.007680,0.059305
770.305820,0.062204
770.603920,0.064016
770.901980,0.064208
771.200000,0.062500
771.497980,0.064343
771.795920,0.060201
772.093820,0.061497
772.391680,0.063283
772.689500,0.056081
772.987280,0.056566
773.285020,0.057416
773.582720,0.056081
773.880380,0.054907
774.178000,0.059986
774.475580,0.066979
774.773120,0.060910
775.070620,0.060852
775.368080,0.062792
775.665500,0.056414
775.962880,0.062708
776.260220,0.059219
776.557520,0.060040
776.854780,0.060176
777.152000,0.057692
777.449180,0.059339
777.746320,0.057796
778.043420,0.062074
778.340480,0.059540
778.637500,0.062880
778.934480,0.061197
779.231420,0.054274
779.528320,0.060788
779.825180,0.056653
780.122000,0.060425
780.418780,0.065663
780.715520,0.063716
781.012220,0.065068
781.308880,0.062204
781.605500,0.063699
781.902080,0.062971
782.198620,0.062884
782.495120,0.063786
782.791580,0.063961
783.088000,0.060041
783.384380,0.066713
783.680720,0.064295
783.977020,0.059876
784.273280,0.065035
784.569500,0.060098
784.865680,0.070236
785.161820,0.062500
785.457920,0.058212
785.753980,0.060014
786.050000,0.054558
786.345980,0.066667
786.641920,0.067314
786.937820,0.066952
787.233680,0.064718
787.529500,0.056172
787.825280,0.063739
788.121020,0.064448
788.416720,0.064220
788.712380,0.061354
789.008000,0.064448
789.303580,0.057951
789.599120,0.061818
789.894620,0.064982
790.190080,0.057288
790.485500,0.059035
790.780880,0.061649
791.076220,0.062049
791.371520,0.061002
791.666780,0.066909
791.962000,0.063924
792.257180,0.061493
792.552320,0.061639
792.847420,0.066230
793.142480,0.063736
793.437500,0.066570
793.732480,0.057791
794.027420,0.057864
794.322320,0.062640
794.617180,0.059435
794.912000,0.060921
795.206780,0.065623
795.501520,0.063878
795.796220,0.060000
796.090880,0.061794
796.385500,0.059970
796.680080,0.065071
796.974620,0.071108
797.269120,0.062831
797.563580,0.062595
797.858000,0.062263
798.152380,0.058778
798.446720,0.063077
798.741020,0.063174
799.035280,0.065217
799.329500,0.062356
799.623680,0.065116
