399.985280,0.081081
400.329500,0.054054
400.673680,0.012658
401.017820,0.029412
401.361920,-0.060606
401.705980,-0.060976
402.050000,0.012987
402.393980,0.117647
402.737920,0.022472
403.081820,0.072165
403.425680,0.023256
403.769500,-0.020833
404.113280,0.011494
404.457020,0.033708
404.800720,-0.010870
405.144380,0.040404
405.488000,0.021505
405.831580,0.041237
406.175120,0.053191
406.518620,0.060000
406.862080,0.030928
407.205500,-0.020833
407.548880,0.040816
407.892220,0.000000
408.235520,0.010638
408.578780,0.104762
408.922000,0.048077
409.265180,0.060606
409.608320,0.040404
409.951420,0.051546
410.294480,0.078431
410.637500,0.043478
410.980480,0.068627
411.323420,0.010204
411.666320,0.027523
412.009180,0.127273
412.352000,-0.009901
412.694780,0.055046
413.037520,0.064220
413.380220,0.072072
413.722880,0.062500
414.065500,0.045045
414.408080,0.053097
414.750620,0.070796
415.093120,0.008264
415.435580,0.050420
415.778000,0.083333
416.120380,0.008403
416.462720,0.039683
416.805020,0.052632
417.147280,0.052239
417.489500,0.050000
417.831680,0.061644
418.173820,0.049645
418.515920,0.055944
418.857980,0.056962
419.200000,0.051282
419.541980,0.041420
419.883920,0.073034
420.225820,0.046243
420.567680,0.050279
420.909500,0.043716
421.251280,0.062500
421.593020,0.066327
421.934720,0.040404
422.276380,0.025641
422.618000,0.078431
422.959580,0.068627
423.301120,0.054795
423.642620,0.030435
423.984080,0.018605
424.325500,0.044843
424.666880,0.038793
425.008220,0.033613
425.349520,0.029661
425.690780,0.038462
426.032000,0.019608
426.373180,0.024896
426.714320,0.039062
427.055420,0.030888
427.396480,0.071161
427.737500,0.039526
428.078480,0.047431
428.419420,0.040161
428.760320,0.034483
429.101180,0.062992
429.442000,0.049808
429.782780,0.034615
430.123520,0.035294
430.464220,0.059041
430.804880,0.057471
431.145500,0.029091
431.486080,0.059925
431.826620,0.046512
432.167120,0.040441
432.507580,0.057971
432.848000,0.043165
433.188380,0.043321
433.528720,0.045283
433.869020,0.053571
434.209280,0.035088
434.549500,0.041812
434.889680,0.053872
435.229820,0.040956
435.569920,0.065744
435.909980,0.051780
436.250000,0.044068
436.589980,0.037152
436.929920,0.057143
437.269820,0.040752
437.609680,0.056213
437.949500,0.060241
438.289280,0.056657
438.629020,0.063953
438.968720,0.058140
439.308380,0.040650
439.648000,0.032877
439.987580,0.044974
440.327120,0.053333
440.666620,0.057143
441.006080,0.046036
441.345500,0.039312
441.684880,0.050239
442.024220,0.039702
442.363520,0.047619
442.702780,0.047727
443.042000,0.033040
443.381180,0.049569
443.720320,0.053996
444.059420,0.044118
444.398480,0.041841
444.737500,0.055328
445.076480,0.047619
445.415420,0.047904
445.754320,0.035343
446.093180,0.055046
446.432000,0.045113
446.770780,0.047438
447.109520,0.055147
447.448220,0.053667
447.786880,0.051878
448.125500,0.053448
448.464080,0.044643
448.802620,0.047872
449.141120,0.044983
449.479580,0.048951
449.818000,0.056799
450.156380,0.046823
450.494720,0.047934
450.833020,0.048951
451.171280,0.039384
451.509500,0.054007
451.847680,0.057336
452.185820,0.053356
452.523920,0.061856
452.861980,0.045531
453.200000,0.046512
453.537980,0.052101
453.875920,0.058824
454.213820,0.037671
454.551680,0.051325
454.889500,0.048904
455.227280,0.044484
455.565020,0.060302
455.902720,0.056572
456.240380,0.039933
456.578000,0.045296
456.915580,0.051813
457.253120,0.059211
457.590620,0.060755
457.928080,0.062290
458.265500,0.047297
458.602880,0.048701
458.940220,0.040609
459.277520,0.059200
459.614780,0.045827
459.952000,0.052795
460.289180,0.064873
460.626320,0.053543
460.963420,0.048465
461.300480,0.056575
461.637500,0.050847
461.974480,0.045872
462.311420,0.049180
462.648320,0.045388
462.985180,0.047346
463.322000,0.053571
463.658780,0.049724
463.995520,0.049519
464.332220,0.041551
464.668880,0.044355
465.005500,0.040214
465.342080,0.051216
465.678620,0.052891
466.015120,0.049159
466.351580,0.053097
466.688000,0.048721
467.024380,0.049818
467.360720,0.055682
467.697020,0.047836
468.033280,0.051111
468.369500,0.057395
468.705680,0.057497
469.041820,0.057292
469.377920,0.045553
469.713980,0.042225
470.050000,0.058937
470.385980,0.055773
470.721920,0.051910
471.057820,0.048733
471.393680,0.053321
471.729500,0.049120
472.065280,0.056351
472.401020,0.055851
472.736720,0.053229
473.072380,0.055655
473.408000,0.049608
473.743580,0.048443
474.079120,0.053402
474.414620,0.050042
474.750080,0.052889
475.085500,0.055099
475.420880,0.049126
475.756220,0.051513
476.091520,0.050298
476.426780,0.050162
476.762000,0.050684
477.097180,0.052000
477.432320,0.047658
477.767420,0.045752
478.102480,0.051181
478.437500,0.052545
478.772480,0.047281
479.107420,0.054516
479.442320,0.049560
479.777180,0.050915
480.112000,0.053159
480.446780,0.053780
480.781520,0.049919
481.116220,0.049313
481.450880,0.052303
481.785500,0.053797
482.120080,0.050940
482.454620,0.052059
482.789120,0.052548
483.123580,0.049065
483.458000,0.050633
483.792380,0.053514
484.126720,0.053282
484.461020,0.049180
484.795280,0.053200
485.129500,0.053001
485.463680,0.050388
485.797820,0.054432
486.131920,0.047437
486.465980,0.055598
486.800000,0.058015
487.133980,0.047583
487.467920,0.049732
487.801820,0.054157
488.135680,0.053829
488.469500,0.050681
488.803280,0.049777
489.137020,0.052747
489.470720,0.055638
489.804380,0.058649
490.138000,0.055638
490.471580,0.051584
490.805120,0.054325
491.138620,0.049041
491.472080,0.054417
491.805500,0.052999
492.138880,0.054899
492.472220,0.049827
492.805520,0.050279
493.138780,0.056513
493.472000,0.056856
493.805180,0.056617
494.138320,0.053369
494.471420,0.054036
494.804480,0.050453
495.137500,0.055199
495.470480,0.059273
495.803420,0.051008
496.136320,0.051378
496.469180,0.051565
496.802000,0.054401
497.134780,0.053972
497.467520,0.053823
497.800220,0.053656
498.132880,0.050558
498.465500,0.054461
498.798080,0.051941
499.130620,0.056710
499.463120,0.056710
499.795580,0.054455
500.128000,0.056676
500.460380,0.058127
500.792720,0.048250
501.125020,0.049396
501.457280,0.049086
501.789500,0.054752
502.121680,0.053914
502.453820,0.052524
502.785920,0.052026
503.117980,0.054465
503.450000,0.056253
503.781980,0.055306
504.113920,0.053106
504.445820,0.056393
504.777680,0.052706
505.109500,0.050481
505.441280,0.056405
505.773020,0.054955
506.104720,0.057937
506.436380,0.052532
506.768000,0.054724
507.099580,0.050801
507.431120,0.054801
507.762620,0.053102
508.094080,0.055150
508.425500,0.051354
508.756880,0.049383
509.088220,0.054278
509.419520,0.052607
509.750780,0.053421
510.082000,0.054104
510.413180,0.058038
510.744320,0.052922
511.075420,0.052246
511.406480,0.055477
511.737500,0.052778
512.068480,0.054511
512.399420,0.053052
512.730320,0.054503
513.061180,0.053283
513.392000,0.053005
513.722780,0.055716
514.053520,0.053666
514.384220,0.054710
514.714880,0.055529
515.045500,0.049808
515.376080,0.051816
515.706620,0.052606
516.037120,0.051471
516.367580,0.049285
516.698000,0.054412
517.028380,0.053625
517.358720,0.056790
517.689020,0.058358
518.019280,0.054190
518.349500,0.055246
518.679680,0.051994
519.009820,0.049595
519.339920,0.059619
519.669980,0.054244
520.000000,0.057565
520.329980,0.054951
520.659920,0.056748
520.989820,0.057792
521.319680,0.053498
521.649500,0.055527
521.979280,0.057411
522.309020,0.056017
522.638720,0.054275
522.968380,0.056877
523.298000,0.057411
523.627580,0.052768
523.957120,0.055065
524.286620,0.053674
524.616080,0.056877
524.945500,0.053747
525.274880,0.054900
525.604220,0.053830
525.933520,0.056604
526.262780,0.054232
526.592000,0.057331
526.921180,0.056882
527.250320,0.053780
527.579420,0.057100
527.908480,0.053668
528.237500,0.056107
528.566480,0.056886
528.895420,0.055692
529.224320,0.051511
529.553180,0.057349
529.882000,0.058881
530.210780,0.055985
530.539520,0.054650
530.868220,0.059359
531.196880,0.051601
531.525500,0.056659
531.854080,0.056285
532.182620,0.056516
532.511120,0.054756
532.839580,0.058530
533.168000,0.056518
533.496380,0.059817
533.824720,0.054284
534.153020,0.053946
534.481280,0.056828
534.809500,0.057168
535.137680,0.057292
535.465820,0.055412
535.793920,0.055838
536.121980,0.056651
536.450000,0.057928
536.777980,0.059070
537.105920,0.059776
537.433820,0.055646
537.761680,0.057551
538.089500,0.057062
538.417280,0.056904
538.745020,0.058637
539.072720,0.053885
539.400380,0.055556
539.728000,0.056597
540.055580,0.057678
540.383120,0.058079
540.710620,0.058408
541.038080,0.056806
541.365500,0.054412
541.692880,0.055233
542.020220,0.057215
542.347520,0.058866
542.674780,0.054340
543.002000,0.055633
543.329180,0.056822
543.656320,0.056259
543.983420,0.053333
544.310480,0.056405
544.637500,0.059365
544.964480,0.057537
545.291420,0.057827
545.618320,0.059097
545.945180,0.055043
546.272000,0.055046
546.598780,0.058342
546.925520,0.059677
547.252220,0.052823
547.578880,0.057022
547.905500,0.056209
548.232080,0.057830
548.558620,0.054344
548.885120,0.057573
549.211580,0.056895
549.538000,0.057393
549.864380,0.056913
550.190720,0.056506
550.517020,0.056389
550.843280,0.060261
551.169500,0.055980
551.495680,0.056833
551.821820,0.059112
552.147920,0.057580
552.473980,0.057952
552.800000,0.056900
553.125980,0.056320
553.451920,0.061048
553.777820,0.055630
554.103680,0.056623
554.429500,0.054570
554.755280,0.056742
555.081020,0.060160
555.406720,0.056553
555.732380,0.055236
556.058000,0.058045
556.383580,0.059569
556.709120,0.057547
557.034620,0.059594
557.360080,0.055959
557.685500,0.060858
558.010880,0.056499
558.336220,0.053779
558.661520,0.056717
558.986780,0.055634
559.312000,0.056980
559.637180,0.056732
559.962320,0.057316
560.287420,0.059944
560.612480,0.056692
560.937500,0.057269
561.262480,0.056818
561.587420,0.056583
561.912320,0.059322
562.237180,0.058475
562.562000,0.057613
562.886780,0.057228
563.211520,0.059985
563.536220,0.058627
563.860880,0.055828
564.185500,0.055910
564.510080,0.059819
564.834620,0.058802
565.159120,0.056391
565.483580,0.055872
565.808000,0.058267
566.132380,0.056322
566.456720,0.057445
566.781020,0.056639
567.105280,0.059357
567.429500,0.059181
567.753680,0.058688
568.077820,0.059142
568.401920,0.059206
568.725980,0.055787
569.050000,0.055513
569.373980,0.060525
569.697920,0.059917
570.021820,0.054682
570.345680,0.057405
570.669500,0.056467
570.993280,0.061646
571.317020,0.058824
571.640720,0.059652
571.964380,0.060134
572.288000,0.057864
572.611580,0.059528
572.935120,0.059858
573.258620,0.059461
573.582080,0.059985
573.905500,0.058451
574.228880,0.059762
574.552220,0.057164
574.875520,0.059196
575.198780,0.057102
575.522000,0.057918
575.845180,0.060172
576.168320,0.060367
576.491420,0.061773
576.814480,0.060036
577.137500,0.060967
577.460480,0.058354
577.783420,0.059664
578.106320,0.056980
578.429180,0.062566
578.752000,0.058701
579.074780,0.060688
579.397520,0.056811
579.720220,0.059846
580.042880,0.059465
580.365500,0.061218
580.688080,0.059362
581.010620,0.059062
581.333120,0.059118
581.655580,0.061605
581.978000,0.058863
582.300380,0.058423
582.622720,0.059987
582.945020,0.059493
583.267280,0.059915
583.589500,0.060032
583.911680,0.059701
584.233820,0.056342
584.555920,0.062402
584.877980,0.059673
585.200000,0.062615
585.521980,0.058387
585.843920,0.057962
586.165820,0.057587
586.487680,0.060788
586.809500,0.057606
587.131280,0.058267
587.453020,0.061012
587.774720,0.058545
588.096380,0.059218
588.418000,0.059116
588.739580,0.062374
589.061120,0.060380
589.382620,0.057880
589.704080,0.058626
590.025500,0.060502
590.346880,0.060427
590.668220,0.059647
590.989520,0.059068
591.310780,0.060204
591.632000,0.058197
591.953180,0.062552
592.274320,0.057330
592.595420,0.058459
592.916480,0.058680
593.237500,0.060092
593.558480,0.060264
593.879420,0.060696
594.200320,0.061613
594.521180,0.059761
594.842000,0.060720
595.162780,0.059562
595.483520,0.058761
595.804220,0.058539
596.124880,0.058353
596.445500,0.059733
596.766080,0.062113
597.086620,0.060244
597.407120,0.060558
597.727580,0.061257
598.048000,0.057392
598.368380,0.058127
598.688720,0.060813
599.009020,0.059183
599.329280,0.057211
599.649500,0.060222
599.969680,0.061165
600.289820,0.059028
600.609920,0.058776
600.929980,0.061999
601.250000,0.057027
601.569980,0.061842
601.889920,0.058273
602.209820,0.063041
602.529680,0.060148
602.849500,0.060556
603.169280,0.059796
603.489020,0.057293
603.808720,0.060889
604.128380,0.059327
604.448000,0.059945
604.767580,0.058380
605.087120,0.060111
605.406620,0.057935
605.726080,0.061591
606.045500,0.060741
606.364880,0.060391
606.684220,0.057681
607.003520,0.059633
607.322780,0.058556
607.642000,0.058874
607.961180,0.056953
608.280320,0.057425
608.599420,0.059096
608.918480,0.056891
609.237500,0.058685
609.556480,0.059189
609.875420,0.059067
610.194320,0.060230
610.513180,0.062445
610.832000,0.060155
611.150780,0.058877
611.469520,0.060030
611.788220,0.060459
612.106880,0.059710
612.425500,0.056638
612.744080,0.060018
613.062620,0.060856
613.381120,0.058196
613.699580,0.059473
614.018000,0.060197
614.336380,0.058914
614.654720,0.060775
614.973020,0.058932
615.291280,0.061047
615.609500,0.061173
615.927680,0.059642
616.245820,0.058132
616.563920,0.060615
616.881980,0.061428
617.200000,0.059720
617.517980,0.057872
617.835920,0.057782
618.153820,0.059372
618.471680,0.057364
618.789500,0.058842
619.107280,0.062598
619.425020,0.061212
619.742720,0.058694
620.060380,0.060483
620.378000,0.057269
620.695580,0.060026
621.013120,0.059213
621.330620,0.060245
621.648080,0.059306
621.965500,0.061794
622.282880,0.058323
622.600220,0.061592
622.917520,0.059231
623.234780,0.061395
623.552000,0.063335
623.869180,0.059250
624.186320,0.061445
624.503420,0.059875
624.820480,0.063776
625.137500,0.059994
625.454480,0.060644
625.771420,0.058008
626.088320,0.058323
626.405180,0.060983
626.722000,0.063049
627.038780,0.057957
627.355520,0.060625
627.672220,0.059098
627.988880,0.061586
628.305500,0.061701
628.622080,0.057931
628.938620,0.062080
629.255120,0.061917
629.571580,0.060067
629.888000,0.059527
630.204380,0.060448
630.520720,0.059720
630.837020,0.060438
631.153280,0.059652
631.469500,0.061249
631.785680,0.062086
632.101820,0.061821
632.417920,0.060507
632.733980,0.058523
633.050000,0.060643
633.365980,0.061055
633.681920,0.062649
633.997820,0.060371
634.313680,0.059864
634.629500,0.060749
634.945280,0.060411
635.261020,0.061638
635.576720,0.063417
635.892380,0.058670
636.208000,0.063916
636.523580,0.061678
636.839120,0.061378
637.154620,0.059710
637.470080,0.060545
637.785500,0.061547
638.100880,0.062554
638.416220,0.062698
638.731520,0.060172
639.046780,0.062336
639.362000,0.059920
639.677180,0.059966
639.992320,0.060333
640.307420,0.061534
640.622480,0.061327
640.937500,0.061026
641.252480,0.061715
641.567420,0.060529
641.882320,0.062082
642.197180,0.062325
642.512000,0.059894
642.826780,0.061859
643.141520,0.059739
643.456220,0.060874
643.770880,0.059701
644.085500,0.060369
644.400080,0.060674
644.714620,0.062430
645.029120,0.062706
645.343580,0.061986
645.658000,0.060505
645.972380,0.062757
646.286720,0.063778
646.601020,0.060061
646.915280,0.062517
647.229500,0.057967
647.543680,0.060481
647.857820,0.062483
648.171920,0.062941
648.485980,0.060839
648.800000,0.057867
649.113980,0.060698
649.427920,0.062968
649.741820,0.057983
650.055680,0.059792
650.369500,0.059137
650.683280,0.062431
650.997020,0.061056
651.310720,0.060815
651.624380,0.060165
651.938000,0.061496
652.251580,0.063178
652.565120,0.058971
652.878620,0.061655
653.192080,0.059831
653.505500,0.061992
653.818880,0.060279
654.132220,0.061236
654.445520,0.058423
654.758780,0.060057
655.072000,0.060745
655.385180,0.058773
655.698320,0.059446
656.011420,0.062195
656.324480,0.062664
656.637500,0.058806
656.950480,0.057252
657.263420,0.058824
657.576320,0.059887
657.889180,0.060749
658.202000,0.059783
658.514780,0.060435
658.827520,0.060624
659.140220,0.058436
659.452880,0.059197
659.765500,0.062613
660.078080,0.056575
660.390620,0.059578
660.703120,0.062939
661.015580,0.061656
661.328000,0.060768
661.640380,0.062752
661.952720,0.063843
662.265020,0.059546
662.577280,0.060751
662.889500,0.060549
663.201680,0.062540
663.513820,0.060148
663.825920,0.061159
664.137980,0.063995
664.450000,0.060102
664.761980,0.060556
665.073920,0.061019
665.385820,0.063154
665.697680,0.060165
666.009500,0.060525
666.321280,0.061630
666.633020,0.063165
666.944720,0.061678
667.256380,0.061238
667.568000,0.062500
667.879580,0.062585
668.191120,0.058723
668.502620,0.056830
668.814080,0.059649
669.125500,0.059186
669.436880,0.062932
669.748220,0.062305
670.059520,0.059524
670.370780,0.060543
670.682000,0.060885
670.993180,0.060958
671.304320,0.062940
671.615420,0.063210
671.926480,0.058907
672.237500,0.056806
672.548480,0.060681
672.859420,0.060758
673.170320,0.058760
673.481180,0.059377
673.792000,0.061305
674.102780,0.061041
674.413520,0.060882
674.724220,0.060617
675.034880,0.059773
675.345500,0.060175
675.656080,0.063521
675.966620,0.060749
676.277120,0.061516
676.587580,0.061119
676.898000,0.058977
677.208380,0.060259
677.518720,0.059446
677.829020,0.063562
678.139280,0.059303
678.449500,0.062384
678.759680,0.061821
679.069820,0.061338
679.379920,0.060355
679.689980,0.060899
680.000000,0.059439
680.309980,0.060876
680.619920,0.060962
680.929820,0.062710
681.239680,0.060931
681.549500,0.061481
681.859280,0.060493
682.169020,0.061544
682.478720,0.060209
682.788380,0.063123
683.098000,0.060957
683.407580,0.060413
683.717120,0.064565
684.026620,0.062877
684.336080,0.061008
684.645500,0.057613
684.954880,0.060068
685.264220,0.060400
685.573520,0.064713
685.882780,0.060606
686.192000,0.059819
686.501180,0.060916
686.810320,0.063797
687.119420,0.062714
687.428480,0.065325
687.737500,0.062548
688.046480,0.062117
688.355420,0.062995
688.664320,0.059296
688.973180,0.061256
689.282000,0.056713
689.590780,0.060966
689.899520,0.058109
690.208220,0.061927
690.516880,0.063765
690.825500,0.062642
691.134080,0.063022
691.442620,0.060976
691.751120,0.061813
692.059580,0.061521
692.368000,0.059447
692.676380,0.060305
692.984720,0.061832
693.293020,0.061170
693.601280,0.062190
693.909500,0.059402
694.217680,0.061310
694.525820,0.063214
694.833920,0.060664
695.141980,0.060162
695.450000,0.060687
695.757980,0.064171
696.065920,0.059806
696.373820,0.061201
696.681680,0.062140
696.989500,0.061752
697.297280,0.061066
697.605020,0.063889
697.912720,0.064950
698.220380,0.059819
698.528000,0.061313
698.835580,0.063216
699.143120,0.062744
699.450620,0.062053
699.758080,0.060392
700.065500,0.059457
700.372880,0.062800
700.680220,0.061827
700.987520,0.061508
701.294780,0.064882
701.602000,0.060222
701.909180,0.061606
702.216320,0.059836
702.523420,0.059984
702.830480,0.058218
703.137500,0.059626
703.444480,0.061538
703.751420,0.059566
704.058320,0.065691
704.365180,0.061909
704.672000,0.063366
704.978780,0.057745
705.285520,0.059077
705.592220,0.057647
705.898880,0.063830
706.205500,0.061033
706.512080,0.063191
706.818620,0.060372
707.125120,0.062308
707.431580,0.060571
707.738000,0.062500
708.044380,0.059822
708.350720,0.062285
708.657020,0.061352
708.963280,0.062112
709.269500,0.063405
709.575680,0.063654
709.881820,0.058569
710.187920,0.062257
710.493980,0.062064
710.800000,0.059497
711.105980,0.059864
711.411920,0.062278
711.717820,0.059649
712.023680,0.061407
712.329500,0.061120
712.635280,0.066667
712.941020,0.062234
713.246720,0.060870
713.552380,0.061617
713.858000,0.061884
714.163580,0.059195
714.469120,0.060180
714.774620,0.059218
715.080080,0.062819
715.385500,0.061151
715.690880,0.058777
715.996220,0.061807
716.301520,0.064032
716.606780,0.063286
716.912000,0.060178
717.217180,0.060654
717.522320,0.058449
717.827420,0.060618
718.132480,0.063027
718.437500,0.059927
718.742480,0.060887
719.047420,0.061084
719.352320,0.064757
719.657180,0.063778
719.962000,0.061208
720.266780,0.062734
720.571520,0.059652
720.876220,0.059738
721.180880,0.060201
721.485500,0.059758
721.790080,0.062420
722.094620,0.060463
722.399120,0.062904
722.703580,0.058723
723.008000,0.062958
723.312380,0.059406
723.616720,0.062048
723.921020,0.058467
724.225280,0.060209
724.529500,0.065236
724.833680,0.063167
725.137820,0.060793
725.441920,0.061079
725.745980,0.059508
726.050000,0.062697
726.353980,0.058585
726.657920,0.062978
726.961820,0.061187
727.265680,0.058715
727.569500,0.063528
727.873280,0.059584
728.177020,0.063105
728.480720,0.060648
728.784380,0.064819
729.088000,0.060763
729.391580,0.062056
729.695120,0.063820
729.998620,0.064532
730.302080,0.063431
730.605500,0.056283
730.908880,0.061244
731.212220,0.062684
731.515520,0.061433
731.818780,0.062621
732.122000,0.061024
732.425180,0.061607
732.728320,0.062469
733.031420,0.062657
733.334480,0.057653
733.637500,0.060484
733.940480,0.054248
734.243420,0.061162
734.546320,0.063797
734.849180,0.063533
735.152000,0.064834
735.454780,0.056818
735.757520,0.060063
736.060220,0.060558
736.362880,0.063025
736.665500,0.063185
736.968080,0.062869
737.270620,0.065868
737.573120,0.064956
737.875580,0.064871
738.178000,0.064235
738.480380,0.059459
738.782720,0.063795
739.085020,0.060573
739.387280,0.059867
739.689500,0.058890
739.991680,0.064570
740.293820,0.063571
740.595920,0.061770
740.897980,0.057595
741.200000,0.059450
741.501980,0.062464
741.803920,0.061937
742.105820,0.060914
742.407680,0.057659
742.709500,0.063636
743.011280,0.056272
743.313020,0.060870
743.614720,0.060940
743.916380,0.060465
744.218000,0.063842
744.519580,0.063406
744.821120,0.065269
745.122620,0.067106
745.424080,0.057091
745.725500,0.060954
746.026880,0.060345
746.328220,0.056720
746.629520,0.060807
746.930780,0.060049
747.232000,0.061312
747.533180,0.064674
747.834320,0.060864
748.135420,0.061529
748.436480,0.061135
748.737500,0.065473
749.038480,0.057422
749.339420,0.061605
749.640320,0.061596
749.941180,0.058713
750.242000,0.061558
750.542780,0.063275
750.843520,0.064702
751.144220,0.061538
751.444880,0.062777
751.745500,0.057792
752.046080,0.064144
752.346620,0.056057
752.647120,0.063357
752.947580,0.063389
753.248000,0.064475
753.548380,0.059857
753.848720,0.060528
754.149020,0.056093
754.449280,0.065003
754.749500,0.062376
755.049680,0.064000
755.349820,0.066044
755.649920,0.064111
755.949980,0.058394
756.250000,0.061144
756.549980,0.060066
756.849920,0.062542
757.149820,0.057219
757.449680,0.065347
757.749500,0.059986
758.049280,0.062116
758.349020,0.057719
758.648720,0.060732
758.948380,0.061856
759.248000,0.059299
759.547580,0.063215
759.847120,0.060648
760.146620,0.060217
760.446080,0.064516
760.745500,0.061538
761.044880,0.064631
761.344220,0.059159
761.643520,0.067090
761.942780,0.064381
762.242000,0.065771
762.541180,0.057746
762.840320,0.060393
763.139420,0.058368
763.438480,0.057416
763.737500,0.062715
764.036480,0.063592
764.335420,0.061397
764.634320,0.061677
764.933180,0.068493
765.232000,0.064539
765.530780,0.063158
765.829520,0.061538
766.128220,0.063326
766.426880,0.061834
766.725500,0.065798
767.024080,0.054870
767.322620,0.061549
767.621120,0.060298
767.919580,0.060068
768.218000,0.060192
768.516380,0.062880
768.814720,0.056241
769.113020,0.059959
769.411280,0.065608
769.709500,0.062923
770.007680,0.056578
770.305820,0.060852
770.603920,0.057278
770.901980,0.057377
771.200000,0.057745
771.497980,0.062332
771.795920,0.062207
772.093820,0.058824
772.391680,0.062624
772.689500,0.056081
772.987280,0.063300
773.285020,0.060834
773.582720,0.058784
773.880380,0.064516
774.178000,0.065440
774.475580,0.066979
774.773120,0.060241
775.070620,0.064233
775.368080,0.059452
775.665500,0.060443
775.962880,0.063376
776.260220,0.061911
776.557520,0.062041
776.854780,0.060176
777.152000,0.057692
777.449180,0.062036
777.746320,0.058468
778.043420,0.064120
778.340480,0.063599
778.637500,0.061528
778.934480,0.063887
779.231420,0.061058
779.528320,0.062124
779.825180,0.065876
780.122000,0.061089
780.418780,0.065663
780.715520,0.057679
781.012220,0.067123
781.308880,0.063556
781.605500,0.060959
781.902080,0.062286
782.198620,0.061517
782.495120,0.060357
782.791580,0.067400
783.088000,0.058661
783.384380,0.062586
783.680720,0.061560
783.977020,0.061253
784.273280,0.059441
784.569500,0.055206
784.865680,0.068150
785.161820,0.061806
785.457920,0.055440
785.753980,0.061410
786.050000,0.059392
786.345980,0.061806
786.641920,0.062457
786.937820,0.063390
787.233680,0.061935
787.529500,0.061026
787.825280,0.065864
788.121020,0.063739
788.416720,0.059280
788.712380,0.061354
789.008000,0.063031
789.303580,0.057951
789.599120,0.059636
789.894620,0.062816
790.190080,0.055838
790.485500,0.059035
790.780880,0.060215
791.076220,0.059885
791.371520,0.055919
791.666780,0.064000
791.962000,0.057311
792.257180,0.060029
792.552320,0.068891
792.847420,0.066958
793.142480,0.060806
793.437500,0.057164
793.732480,0.062180
794.027420,0.060089
794.322320,0.064877
794.617180,0.055721
794.912000,0.063150
795.206780,0.055928
795.501520,0.063878
795.796220,0.061481
796.090880,0.058026
796.385500,0.060720
796.680080,0.055348
796.974620,0.062126
797.269120,0.062074
797.563580,0.061832
797.858000,0.063022
798.152380,0.063418
798.446720,0.060769
798.741020,0.060092
799.035280,0.065217
799.329500,0.062356
799.623680,0.056589
