399.985280,0.081081
400.329500,0.054054
400.673680,0.050633
401.017820,0.044118
401.361920,-0.030303
401.705980,0.036585
402.050000,-0.012987
402.393980,0.094118
402.737920,0.078652
403.081820,0.061856
403.425680,0.069767
403.769500,-0.031250
404.113280,0.034483
404.457020,0.056180
404.800720,0.054348
405.144380,0.121212
405.488000,0.075269
405.831580,0.030928
406.175120,0.021277
406.518620,0.040000
406.862080,0.082474
407.205500,0.031250
407.548880,0.061224
407.892220,0.058824
408.235520,0.063830
408.578780,0.076190
408.922000,0.048077
409.265180,0.030303
409.608320,0.050505
409.951420,0.051546
410.294480,0.088235
410.637500,0.043478
410.980480,0.049020
411.323420,0.000000
411.666320,0.082569
412.009180,0.081818
412.352000,0.009901
412.694780,0.073394
413.037520,0.027523
413.380220,0.054054
413.722880,0.044643
414.065500,0.027027
414.408080,0.008850
414.750620,0.035398
415.093120,0.008264
415.435580,0.025210
415.778000,0.030303
416.120380,0.050420
416.462720,0.047619
416.805020,0.045113
417.147280,0.029851
417.489500,0.042857
417.831680,0.034247
418.173820,0.028369
418.515920,0.027972
418.857980,0.044304
419.200000,0.057692
419.541980,0.035503
419.883920,0.039326
420.225820,0.017341
420.567680,0.072626
420.909500,0.071038
421.251280,0.078125
421.593020,0.066327
421.934720,0.025253
422.276380,0.035897
422.618000,0.049020
422.959580,0.068627
423.301120,0.041096
423.642620,0.004348
423.984080,0.032558
424.325500,0.031390
424.666880,0.051724
425.008220,0.025210
425.349520,0.016949
425.690780,0.038462
426.032000,0.035294
426.373180,0.053942
426.714320,0.050781
427.055420,0.046332
427.396480,0.044944
427.737500,0.047431
428.078480,0.051383
428.419420,0.036145
428.760320,0.042146
429.101180,0.059055
429.442000,0.026820
429.782780,0.042308
430.123520,0.043137
430.464220,0.047970
430.804880,0.061303
431.145500,0.043636
431.486080,0.063670
431.826620,0.042636
432.167120,0.025735
432.507580,0.065217
432.848000,0.046763
433.188380,0.043321
433.528720,0.033962
433.869020,0.060714
434.209280,0.031579
434.549500,0.062718
434.889680,0.063973
435.229820,0.054608
435.569920,0.044983
435.909980,0.058252
436.250000,0.057627
436.589980,0.024768
436.929920,0.053968
437.269820,0.065831
437.609680,0.059172
437.949500,0.051205
438.289280,0.042493
438.629020,0.066860
438.968720,0.055233
439.308380,0.029810
439.648000,0.057534
439.987580,0.055556
440.327120,0.053333
440.666620,0.044156
441.006080,0.043478
441.345500,0.054054
441.684880,0.045455
442.024220,0.042184
442.363520,0.047619
442.702780,0.043182
443.042000,0.028634
443.381180,0.053879
443.720320,0.058315
444.059420,0.044118
444.398480,0.046025
444.737500,0.055328
445.076480,0.057540
445.415420,0.045908
445.754320,0.035343
446.093180,0.051376
446.432000,0.043233
446.770780,0.047438
447.109520,0.053309
447.448220,0.051878
447.786880,0.050089
448.125500,0.046552
448.464080,0.048214
448.802620,0.042553
449.141120,0.057093
449.479580,0.048951
449.818000,0.061962
450.156380,0.053512
450.494720,0.051240
450.833020,0.050699
451.171280,0.047945
451.509500,0.045296
451.847680,0.052277
452.185820,0.053356
452.523920,0.063574
452.861980,0.038786
453.200000,0.059801
453.537980,0.050420
453.875920,0.058824
454.213820,0.034247
454.551680,0.059603
454.889500,0.057336
455.227280,0.037367
455.565020,0.068677
455.902720,0.054908
456.240380,0.044925
456.578000,0.052265
456.915580,0.046632
457.253120,0.052632
457.590620,0.052545
457.928080,0.050505
458.265500,0.047297
458.602880,0.042208
458.940220,0.045685
459.277520,0.049600
459.614780,0.052373
459.952000,0.048137
460.289180,0.053797
460.626320,0.053543
460.963420,0.053312
461.300480,0.058104
461.637500,0.050847
461.974480,0.045872
462.311420,0.053651
462.648320,0.048316
462.985180,0.055954
463.322000,0.047619
463.658780,0.053867
463.995520,0.038514
464.332220,0.058172
464.668880,0.056452
465.005500,0.052279
465.342080,0.058899
465.678620,0.056581
466.015120,0.053040
466.351580,0.053097
466.688000,0.056029
467.024380,0.049818
467.360720,0.048864
467.697020,0.052392
468.033280,0.058889
468.369500,0.050773
468.705680,0.049605
469.041820,0.058333
469.377920,0.039046
469.713980,0.050463
470.050000,0.058937
470.385980,0.047945
470.721920,0.051910
471.057820,0.054581
471.393680,0.044902
471.729500,0.047266
472.065280,0.053667
472.401020,0.047872
472.736720,0.053229
473.072380,0.052065
473.408000,0.050479
473.743580,0.052768
474.079120,0.057709
474.414620,0.047498
474.750080,0.053702
475.085500,0.053454
475.420880,0.050791
475.756220,0.051513
476.091520,0.051151
476.426780,0.050162
476.762000,0.051488
477.097180,0.056000
477.432320,0.051696
477.767420,0.047386
478.102480,0.051969
478.437500,0.051724
478.772480,0.052797
479.107420,0.050448
479.442320,0.047962
479.777180,0.050915
480.112000,0.053159
480.446780,0.048324
480.781520,0.049919
481.116220,0.046888
481.450880,0.048400
481.785500,0.048259
482.120080,0.054075
482.454620,0.059052
482.789120,0.050159
483.123580,0.053738
483.458000,0.051424
483.792380,0.049521
484.126720,0.049421
484.461020,0.049961
484.795280,0.054742
485.129500,0.052221
485.463680,0.052713
485.797820,0.052877
486.131920,0.051262
486.465980,0.054054
486.800000,0.058779
487.133980,0.055136
487.467920,0.053558
487.801820,0.057208
488.135680,0.049280
488.469500,0.046899
488.803280,0.052749
489.137020,0.053480
489.470720,0.052671
489.804380,0.055679
490.138000,0.050445
490.471580,0.056006
490.805120,0.051465
491.138620,0.051173
491.472080,0.052297
491.805500,0.051604
492.138880,0.052814
492.472220,0.053287
492.805520,0.052374
493.138780,0.053067
493.472000,0.056856
493.805180,0.057299
494.138320,0.052702
494.471420,0.052734
494.804480,0.054981
495.137500,0.057766
495.470480,0.056724
495.803420,0.053526
496.136320,0.054511
496.469180,0.054021
496.802000,0.058068
497.134780,0.057004
497.467520,0.057492
497.800220,0.051887
498.132880,0.047031
498.465500,0.055041
498.798080,0.053082
499.130620,0.054464
499.463120,0.052779
499.795580,0.053905
500.128000,0.054496
500.460380,0.055974
500.792720,0.054083
501.125020,0.053600
501.457280,0.048042
501.789500,0.053202
502.121680,0.054432
502.453820,0.049975
502.785920,0.050025
503.117980,0.056428
503.450000,0.057258
503.781980,0.053812
504.113920,0.048838
504.445820,0.051531
504.777680,0.048941
505.109500,0.054808
505.441280,0.052581
505.773020,0.050728
506.104720,0.050400
506.436380,0.052532
506.768000,0.054256
507.099580,0.050343
507.431120,0.055269
507.762620,0.052632
508.094080,0.055606
508.425500,0.054155
508.756880,0.053498
509.088220,0.055198
509.419520,0.054004
509.750780,0.053889
510.082000,0.056437
510.413180,0.058038
510.744320,0.056144
511.075420,0.052704
511.406480,0.051246
511.737500,0.052778
512.068480,0.056861
512.399420,0.053521
512.730320,0.052194
513.061180,0.050904
513.392000,0.054898
513.722780,0.055235
514.053520,0.055582
514.384220,0.054234
514.714880,0.052657
515.045500,0.051245
515.376080,0.051332
515.706620,0.057964
516.037120,0.052451
516.367580,0.052242
516.698000,0.055392
517.028380,0.055611
517.358720,0.055802
517.689020,0.061325
518.019280,0.053688
518.349500,0.056260
518.679680,0.053508
519.009820,0.054150
519.339920,0.053607
519.669980,0.054746
520.000000,0.053490
520.329980,0.051840
520.659920,0.056748
520.989820,0.057792
521.319680,0.056584
521.649500,0.050386
521.979280,0.053758
522.309020,0.053423
522.638720,0.055812
522.968380,0.055326
523.298000,0.056889
523.627580,0.055872
523.957120,0.054545
524.286620,0.056800
524.616080,0.058428
524.945500,0.055297
525.274880,0.061570
525.604220,0.056418
525.933520,0.050839
526.262780,0.052712
526.592000,0.056317
526.921180,0.056374
527.250320,0.050736
527.579420,0.055078
527.908480,0.055638
528.237500,0.057100
528.566480,0.055888
528.895420,0.059142
529.224320,0.052997
529.553180,0.056867
529.882000,0.056448
530.210780,0.050676
530.539520,0.055609
530.868220,0.055529
531.196880,0.054467
531.525500,0.057143
531.854080,0.053002
532.182620,0.056049
532.511120,0.056613
532.839580,0.052178
533.168000,0.056518
533.496380,0.056621
533.824720,0.056079
534.153020,0.053500
534.481280,0.059471
534.809500,0.056288
535.137680,0.055556
535.465820,0.056701
535.793920,0.055838
536.121980,0.056232
536.450000,0.059619
536.777980,0.059489
537.105920,0.056870
537.433820,0.056465
537.761680,0.058776
538.089500,0.058276
538.417280,0.054914
538.745020,0.053883
539.072720,0.056619
539.400380,0.056721
539.728000,0.055832
540.055580,0.054682
540.383120,0.058451
540.710620,0.057292
541.038080,0.055699
541.365500,0.059191
541.692880,0.057776
542.020220,0.056495
542.347520,0.057789
542.674780,0.057869
543.002000,0.057033
543.329180,0.057874
543.656320,0.058368
543.983420,0.056410
544.310480,0.056405
544.637500,0.056295
544.964480,0.057201
545.291420,0.055168
545.618320,0.058101
545.945180,0.053395
546.272000,0.054391
546.598780,0.054736
546.925520,0.055061
547.252220,0.058435
547.578880,0.058977
547.905500,0.056863
548.232080,0.055231
548.558620,0.057598
548.885120,0.056264
549.211580,0.057216
549.538000,0.058366
549.864380,0.055305
550.190720,0.055215
550.517020,0.058344
550.843280,0.057329
551.169500,0.056298
551.495680,0.058147
551.821820,0.054866
552.147920,0.056929
552.473980,0.055647
552.800000,0.055265
553.125980,0.058284
553.451920,0.056403
553.777820,0.058294
554.103680,0.059993
554.429500,0.056913
554.755280,0.055073
555.081020,0.055481
555.406720,0.057569
555.732380,0.055236
556.058000,0.057705
556.383580,0.057857
556.709120,0.057547
557.034620,0.055460
557.360080,0.056995
557.685500,0.054979
558.010880,0.054419
558.336220,0.055536
558.661520,0.057781
558.986780,0.055280
559.312000,0.057692
559.637180,0.056014
559.962320,0.059096
560.287420,0.059591
560.612480,0.055615
560.937500,0.057269
561.262480,0.054619
561.587420,0.056946
561.912320,0.056743
562.237180,0.057735
562.562000,0.057613
562.886780,0.056113
563.211520,0.053279
563.536220,0.057514
563.860880,0.056582
564.185500,0.058161
564.510080,0.058315
564.834620,0.057685
565.159120,0.056767
565.483580,0.057773
565.808000,0.056754
566.132380,0.060798
566.456720,0.057445
566.781020,0.054764
567.105280,0.052930
567.429500,0.058422
567.753680,0.059455
568.077820,0.056436
568.401920,0.056150
568.725980,0.057685
569.050000,0.059696
569.373980,0.059383
569.697920,0.058400
570.021820,0.059176
570.345680,0.059319
570.669500,0.061427
570.993280,0.056848
571.317020,0.054805
571.640720,0.059281
571.964380,0.058278
572.288000,0.058234
572.611580,0.059154
572.935120,0.058736
573.258620,0.056470
573.582080,0.057377
573.905500,0.059196
574.228880,0.057535
574.552220,0.059729
574.875520,0.057707
575.198780,0.061077
575.522000,0.058651
575.845180,0.060172
576.168320,0.058570
576.491420,0.060320
576.814480,0.060759
577.137500,0.059524
577.460480,0.057267
577.783420,0.059664
578.106320,0.057692
578.429180,0.057971
578.752000,0.055922
579.074780,0.058665
579.397520,0.057456
579.720220,0.058880
580.042880,0.058804
580.365500,0.062541
580.688080,0.060719
581.010620,0.059399
581.333120,0.060788
581.655580,0.062604
581.978000,0.058863
582.300380,0.058423
582.622720,0.059987
582.945020,0.059493
583.267280,0.058613
583.589500,0.061316
583.911680,0.057796
584.233820,0.057287
584.555920,0.060511
584.877980,0.057161
585.200000,0.058625
585.521980,0.059932
585.843920,0.058267
586.165820,0.055454
586.487680,0.058381
586.809500,0.057906
587.131280,0.058267
587.453020,0.061012
587.774720,0.059728
588.096380,0.060968
588.418000,0.058824
588.739580,0.059500
589.061120,0.059229
589.382620,0.056734
589.704080,0.060589
590.025500,0.059646
590.346880,0.058179
590.668220,0.060207
590.989520,0.057959
591.310780,0.059928
591.632000,0.060109
591.953180,0.058400
592.274320,0.057876
592.595420,0.061422
592.916480,0.058951
593.237500,0.060900
593.558480,0.059188
593.879420,0.058538
594.200320,0.060809
594.521180,0.058964
594.842000,0.058839
595.162780,0.059829
595.483520,0.060090
595.804220,0.056928
596.124880,0.059419
596.445500,0.058685
596.766080,0.060500
597.086620,0.058917
597.407120,0.060032
597.727580,0.058340
598.048000,0.057921
598.368380,0.057338
598.688720,0.058978
599.009020,0.060775
599.329280,0.058276
599.649500,0.059958
599.969680,0.060897
600.289820,0.060096
600.609920,0.058509
600.929980,0.057990
601.250000,0.058919
601.569980,0.058331
601.889920,0.060946
602.209820,0.059794
602.529680,0.059599
602.849500,0.060011
603.169280,0.059245
603.489020,0.060338
603.808720,0.061163
604.128380,0.059051
604.448000,0.060221
604.767580,0.057821
605.087120,0.057895
605.406620,0.059894
605.726080,0.060451
606.045500,0.058512
606.364880,0.061242
606.684220,0.059395
607.003520,0.058200
607.322780,0.062251
607.642000,0.061459
607.961180,0.060133
608.280320,0.058005
608.599420,0.056489
608.918480,0.059238
609.237500,0.060739
609.556480,0.057709
609.875420,0.058476
610.194320,0.057278
610.513180,0.062149
610.832000,0.058070
611.150780,0.061280
611.469520,0.061237
611.788220,0.058646
612.106880,0.060615
612.425500,0.057856
612.744080,0.060326
613.062620,0.059021
613.381120,0.061243
613.699580,0.061006
614.018000,0.058661
614.336380,0.061999
614.654720,0.058605
614.973020,0.058624
615.291280,0.058878
615.609500,0.060539
615.927680,0.058096
616.245820,0.060297
616.563920,0.059994
616.881980,0.062364
617.200000,0.062519
617.517980,0.060361
617.835920,0.057161
618.153820,0.058440
618.471680,0.060465
618.789500,0.059157
619.107280,0.059155
619.425020,0.061529
619.742720,0.058694
620.060380,0.058916
620.378000,0.058527
620.695580,0.062899
621.013120,0.058898
621.330620,0.061814
621.648080,0.056782
621.965500,0.057089
622.282880,0.061160
622.600220,0.056222
622.917520,0.056396
623.234780,0.063967
623.552000,0.060789
623.869180,0.059565
624.186320,0.060490
624.503420,0.061129
624.820480,0.060635
625.137500,0.059678
625.454480,0.059706
625.771420,0.062736
626.088320,0.058323
626.405180,0.062539
626.722000,0.059598
627.038780,0.058897
627.355520,0.061562
627.672220,0.059098
627.988880,0.060031
628.305500,0.061701
628.622080,0.061029
628.938620,0.061468
629.255120,0.061605
629.571580,0.061293
629.888000,0.059221
630.204380,0.060448
630.520720,0.060634
630.837020,0.061055
631.153280,0.060552
631.469500,0.060036
631.785680,0.062688
632.101820,0.061520
632.417920,0.060209
632.733980,0.059124
633.050000,0.061856
633.365980,0.060166
633.681920,0.059964
633.997820,0.057382
634.313680,0.059864
634.629500,0.060159
634.945280,0.059238
635.261020,0.062812
635.576720,0.060482
635.892380,0.061574
636.208000,0.060139
636.523580,0.060216
636.839120,0.059062
637.154620,0.062029
637.470080,0.057676
637.785500,0.059789
638.100880,0.059658
638.416220,0.060972
638.731520,0.060458
639.046780,0.060297
639.362000,0.058200
639.677180,0.063963
639.992320,0.060897
640.307420,0.061253
640.622480,0.060767
640.937500,0.058252
641.252480,0.061715
641.567420,0.061665
641.882320,0.056793
642.197180,0.064009
642.512000,0.060453
642.826780,0.060194
643.141520,0.057794
643.456220,0.061428
643.770880,0.061913
644.085500,0.061766
644.400080,0.060955
644.714620,0.058807
645.029120,0.062156
645.343580,0.058694
645.658000,0.061338
645.972380,0.061935
646.286720,0.059689
646.601020,0.060338
646.915280,0.060324
647.229500,0.058242
647.543680,0.059376
647.857820,0.061657
648.171920,0.062941
648.485980,0.061387
648.800000,0.060898
649.113980,0.061530
649.427920,0.060194
649.741820,0.059357
650.055680,0.061986
650.369500,0.059697
650.683280,0.057991
650.997020,0.062156
651.310720,0.061365
651.624380,0.058516
651.938000,0.062050
652.251580,0.059560
652.565120,0.058133
652.878620,0.061374
653.192080,0.060112
653.505500,0.060589
653.818880,0.059994
654.132220,0.058673
654.445520,0.061259
654.758780,0.059773
655.072000,0.061605
655.385180,0.061912
655.698320,0.058588
656.011420,0.059903
656.324480,0.059458
656.637500,0.057358
656.950480,0.058133
657.263420,0.059710
657.576320,0.058405
657.889180,0.061044
658.202000,0.059783
658.514780,0.060137
658.827520,0.061525
659.140220,0.060833
659.452880,0.059499
659.765500,0.059001
660.078080,0.059585
660.390620,0.059578
660.703120,0.061106
661.015580,0.059816
661.328000,0.061083
661.640380,0.059335
661.952720,0.063220
662.265020,0.059231
662.577280,0.060115
662.889500,0.062756
663.201680,0.063497
663.513820,0.059183
663.825920,0.059238
664.137980,0.062056
664.450000,0.058504
664.761980,0.060556
665.073920,0.060370
665.385820,0.060537
665.697680,0.061157
666.009500,0.060193
666.321280,0.062293
666.633020,0.060173
666.944720,0.059993
667.256380,0.060902
667.568000,0.060802
667.879580,0.059524
668.191120,0.060783
668.502620,0.061623
668.814080,0.058596
669.125500,0.060896
669.436880,0.061549
669.748220,0.059536
670.059520,0.062325
670.370780,0.059847
670.682000,0.061593
670.993180,0.060254
671.304320,0.065752
671.615420,0.059304
671.926480,0.059972
672.237500,0.063594
672.548480,0.060681
672.859420,0.063617
673.170320,0.060573
673.481180,0.060463
673.792000,0.058781
674.102780,0.058528
674.413520,0.061611
674.724220,0.060980
675.034880,0.062706
675.345500,0.061269
675.656080,0.062795
675.966620,0.063296
676.277120,0.061150
676.587580,0.058910
676.898000,0.058977
677.208380,0.058410
677.518720,0.061999
677.829020,0.059867
678.139280,0.057079
678.449500,0.062013
678.759680,0.058824
679.069820,0.060595
679.379920,0.061486
679.689980,0.060899
680.000000,0.060561
680.309980,0.059391
680.619920,0.060204
680.929820,0.062710
681.239680,0.058346
681.549500,0.061111
681.859280,0.058252
682.169020,0.062663
682.478720,0.062827
682.788380,0.060908
683.098000,0.059835
683.407580,0.060788
683.717120,0.061186
684.026620,0.060994
684.336080,0.060250
684.645500,0.059858
684.954880,0.058557
685.264220,0.061533
685.573520,0.065093
685.882780,0.060990
686.192000,0.062829
686.501180,0.060159
686.810320,0.063028
687.119420,0.060813
687.428480,0.061147
687.737500,0.060629
688.046480,0.060583
688.355420,0.063750
688.664320,0.061209
688.973180,0.062787
689.282000,0.057485
689.590780,0.059049
689.899520,0.058109
690.208220,0.063838
690.516880,0.061474
690.825500,0.061887
691.134080,0.060364
691.442620,0.062500
691.751120,0.059537
692.059580,0.064960
692.368000,0.061340
692.676380,0.061832
692.984720,0.060305
693.293020,0.060410
693.601280,0.060664
693.909500,0.060537
694.217680,0.062833
694.525820,0.062452
694.833920,0.063716
695.141980,0.062476
695.450000,0.061450
695.757980,0.059969
696.065920,0.059806
696.373820,0.061971
696.681680,0.062140
696.989500,0.063682
697.297280,0.064177
697.605020,0.062302
697.912720,0.061875
698.220380,0.061000
698.528000,0.066456
698.835580,0.062821
699.143120,0.060795
699.450620,0.061655
699.758080,0.058431
700.065500,0.064246
700.372880,0.060400
700.680220,0.060630
700.987520,0.061905
701.294780,0.062044
701.602000,0.057845
701.909180,0.061606
702.216320,0.058662
702.523420,0.061957
702.830480,0.062178
703.137500,0.063523
703.444480,0.062722
703.751420,0.057988
704.058320,0.058963
704.365180,0.060331
704.672000,0.064158
704.978780,0.062427
705.285520,0.062989
705.592220,0.060392
705.898880,0.061466
706.205500,0.061424
706.512080,0.063981
706.818620,0.061146
707.125120,0.058462
707.431580,0.063306
707.738000,0.062891
708.044380,0.059051
708.350720,0.059992
708.657020,0.059398
708.963280,0.060559
709.269500,0.061448
709.575680,0.064047
709.881820,0.059748
710.187920,0.059922
710.493980,0.060512
710.800000,0.061404
711.105980,0.061370
711.411920,0.061490
711.717820,0.060429
712.023680,0.061796
712.329500,0.057571
712.635280,0.062016
712.941020,0.061848
713.246720,0.060079
713.552380,0.061617
713.858000,0.062672
714.163580,0.061168
714.469120,0.059007
714.774620,0.062771
715.080080,0.063604
715.385500,0.061950
715.690880,0.060750
715.996220,0.058241
716.301520,0.058893
716.606780,0.061321
716.912000,0.060582
717.217180,0.063847
717.522320,0.059245
717.827420,0.062246
718.132480,0.059815
718.437500,0.062373
718.742480,0.061694
719.047420,0.062298
719.352320,0.063927
719.657180,0.062960
719.962000,0.059140
720.266780,0.063149
720.571520,0.057995
720.876220,0.063011
721.180880,0.057274
721.485500,0.061847
721.790080,0.060722
722.094620,0.063894
722.399120,0.061181
722.703580,0.059151
723.008000,0.060371
723.312380,0.058975
723.616720,0.059074
723.921020,0.059766
724.225280,0.056719
724.529500,0.066112
724.833680,0.063167
725.137820,0.063436
725.441920,0.063308
725.745980,0.064877
726.050000,0.060893
726.353980,0.064443
726.657920,0.063428
726.961820,0.062557
727.265680,0.059177
727.569500,0.060786
727.873280,0.058199
728.177020,0.063105
728.480720,0.057870
728.784380,0.063880
729.088000,0.062176
729.391580,0.064424
729.695120,0.062860
729.998620,0.059273
730.302080,0.061028
730.605500,0.053857
730.908880,0.059285
731.212220,0.058766
731.515520,0.059483
731.818780,0.061165
732.122000,0.061516
732.425180,0.064564
732.728320,0.061973
733.031420,0.063659
733.334480,0.060714
733.637500,0.057460
733.940480,0.054248
734.243420,0.059633
734.546320,0.058091
734.849180,0.061983
735.152000,0.058610
735.454780,0.060950
735.757520,0.061117
736.060220,0.062665
736.362880,0.058824
736.665500,0.061097
736.968080,0.062869
737.270620,0.063691
737.573120,0.059498
737.875580,0.063771
738.178000,0.060425
738.480380,0.060000
738.782720,0.064885
739.085020,0.058921
739.387280,0.060976
739.689500,0.058890
739.991680,0.063448
740.293820,0.059701
740.595920,0.060657
740.897980,0.063241
741.200000,0.064498
741.501980,0.068195
741.803920,0.061374
742.105820,0.063734
742.407680,0.059988
742.709500,0.062500
743.011280,0.056272
743.313020,0.063768
743.614720,0.062101
743.916380,0.061628
744.218000,0.065632
744.519580,0.062802
744.821120,0.065269
745.122620,0.067106
745.424080,0.058894
745.725500,0.063368
746.026880,0.060345
746.328220,0.059803
746.629520,0.062011
746.930780,0.060662
747.232000,0.060699
747.533180,0.062843
747.834320,0.062082
748.135420,0.059664
748.436480,0.064255
748.737500,0.062384
749.038480,0.062920
749.339420,0.066584
749.640320,0.060339
749.941180,0.060587
750.242000,0.059045
750.542780,0.058313
750.843520,0.062140
751.144220,0.063462
751.444880,0.065314
751.745500,0.057792
752.046080,0.064785
752.346620,0.056057
752.647120,0.058132
752.947580,0.062743
753.248000,0.063185
753.548380,0.061809
753.848720,0.061172
754.149020,0.056093
754.449280,0.066973
754.749500,0.061048
755.049680,0.060667
755.349820,0.058706
755.649920,0.064772
755.949980,0.061712
756.250000,0.059829
756.549980,0.057426
756.849920,0.063902
757.149820,0.062542
757.449680,0.058746
757.749500,0.063395
758.049280,0.062116
758.349020,0.059805
758.648720,0.064182
758.948380,0.058419
759.248000,0.064016
759.547580,0.057835
759.847120,0.059269
760.146620,0.066982
760.446080,0.061156
760.745500,0.060140
761.044880,0.061080
761.344220,0.057021
761.643520,0.061441
761.942780,0.055983
762.242000,0.061528
762.541180,0.059859
762.840320,0.062500
763.139420,0.059775
763.438480,0.062201
763.737500,0.058580
764.036480,0.059399
764.335420,0.062103
764.634320,0.056826
764.933180,0.064384
765.232000,0.062457
765.530780,0.058947
765.829520,0.061538
766.128220,0.063326
766.426880,0.055437
766.725500,0.061686
767.024080,0.061728
767.322620,0.059474
767.621120,0.061653
767.919580,0.060068
768.218000,0.056772
768.516380,0.066261
768.814720,0.057613
769.113020,0.065472
769.411280,0.062845
769.709500,0.060217
770.007680,0.055896
770.305820,0.064233
770.603920,0.057278
770.901980,0.061475
771.200000,0.059103
771.497980,0.058311
771.795920,0.062207
772.093820,0.066176
772.391680,0.062624
772.689500,0.058108
772.987280,0.059259
773.285020,0.059467
773.582720,0.061486
773.880380,0.060398
774.178000,0.057941
774.475580,0.058942
774.773120,0.064257
775.070620,0.065585
775.368080,0.066132
775.665500,0.057757
775.962880,0.063376
776.260220,0.057201
776.557520,0.062708
776.854780,0.061528
777.152000,0.051724
777.449180,0.057991
777.746320,0.061828
778.043420,0.060027
778.340480,0.060893
778.637500,0.066261
778.934480,0.061870
779.231420,0.057666
779.528320,0.056112
779.825180,0.061924
780.122000,0.059761
780.418780,0.066347
780.715520,0.065057
781.012220,0.067123
781.308880,0.064233
781.605500,0.059589
781.902080,0.058864
782.198620,0.064252
782.495120,0.061043
782.791580,0.058459
783.088000,0.061422
783.384380,0.065337
783.680720,0.061560
783.977020,0.064694
784.273280,0.065734
784.569500,0.062194
784.865680,0.066759
785.161820,0.063194
785.457920,0.057519
785.753980,0.059316
786.050000,0.062845
786.345980,0.065278
786.641920,0.065926
786.937820,0.066239
787.233680,0.068198
787.529500,0.064494
787.825280,0.064448
788.121020,0.060198
788.416720,0.066337
788.712380,0.058533
789.008000,0.060907
789.303580,0.056537
789.599120,0.058182
789.894620,0.059928
790.190080,0.057288
790.485500,0.061195
790.780880,0.056631
791.076220,0.063492
791.371520,0.060276
791.666780,0.071273
791.962000,0.058046
792.257180,0.061493
792.552320,0.065265
792.847420,0.061863
793.142480,0.061538
793.437500,0.060058
793.732480,0.059985
794.027420,0.061573
794.322320,0.061894
794.617180,0.057949
794.912000,0.060921
795.206780,0.057420
795.501520,0.060076
795.796220,0.063704
796.090880,0.061040
796.385500,0.063718
796.680080,0.056844
796.974620,0.067365
797.269120,0.058289
797.563580,0.059542
797.858000,0.062263
798.152380,0.064192
798.446720,0.063077
798.741020,0.060863
799.035280,0.063665
799.329500,0.064665
799.623680,0.066667
