399.985280,0.054054
400.329500,0.027027
400.673680,0.075949
401.017820,0.000000
401.361920,-0.045455
401.705980,0.048780
402.050000,0.012987
402.393980,0.082353
402.737920,0.067416
403.081820,0.020619
403.425680,0.034884
403.769500,0.052083
404.113280,0.000000
404.457020,0.134831
404.800720,0.043478
405.144380,0.040404
405.488000,0.021505
405.831580,0.061856
406.175120,0.031915
406.518620,0.050000
406.862080,0.123711
407.205500,0.062500
407.548880,0.081633
407.892220,0.068627
408.235520,0.053191
408.578780,0.076190
408.922000,0.038462
409.265180,0.060606
409.608320,0.070707
409.951420,0.123711
410.294480,0.049020
410.637500,0.010870
410.980480,0.058824
411.323420,0.020408
411.666320,0.082569
412.009180,0.063636
412.352000,0.049505
412.694780,0.055046
413.037520,0.027523
413.380220,0.036036
413.722880,0.062500
414.065500,0.054054
414.408080,0.053097
414.750620,-0.017699
415.093120,0.057851
415.435580,0.058824
415.778000,0.075758
416.120380,0.033613
416.462720,0.031746
416.805020,0.045113
417.147280,0.067164
417.489500,0.035714
417.831680,0.027397
418.173820,0.021277
418.515920,0.069930
418.857980,0.012658
419.200000,0.051282
419.541980,0.047337
419.883920,0.067416
420.225820,0.046243
420.567680,0.061453
420.909500,0.065574
421.251280,0.067708
421.593020,0.061224
421.934720,0.060606
422.276380,0.051282
422.618000,0.068627
422.959580,0.053922
423.301120,0.045662
423.642620,0.034783
423.984080,0.046512
424.325500,0.049327
424.666880,0.056034
425.008220,0.037815
425.349520,0.042373
425.690780,0.057692
426.032000,0.031373
426.373180,0.045643
426.714320,0.054687
427.055420,0.034749
427.396480,0.044944
427.737500,0.043478
428.078480,0.027668
428.419420,0.060241
428.760320,0.053640
429.101180,0.066929
429.442000,0.049808
429.782780,0.042308
430.123520,0.035294
430.464220,0.047970
430.804880,0.072797
431.145500,0.040000
431.486080,0.052434
431.826620,0.050388
432.167120,0.055147
432.507580,0.047101
432.848000,0.039568
433.188380,0.064982
433.528720,0.045283
433.869020,0.060714
434.209280,0.038596
434.549500,0.052265
434.889680,0.043771
435.229820,0.058020
435.569920,0.024221
435.909980,0.045307
436.250000,0.054237
436.589980,0.040248
436.929920,0.060317
437.269820,0.053292
437.609680,0.065089
437.949500,0.042169
438.289280,0.050992
438.629020,0.061047
438.968720,0.061047
439.308380,0.046070
439.648000,0.041096
439.987580,0.052910
440.327120,0.048000
440.666620,0.044156
441.006080,0.038363
441.345500,0.054054
441.684880,0.045455
442.024220,0.037221
442.363520,0.030952
442.702780,0.036364
443.042000,0.033040
443.381180,0.056034
443.720320,0.071274
444.059420,0.046218
444.398480,0.031381
444.737500,0.053279
445.076480,0.053571
445.415420,0.053892
445.754320,0.041580
446.093180,0.049541
446.432000,0.046992
446.770780,0.058824
447.109520,0.053309
447.448220,0.051878
447.786880,0.051878
448.125500,0.056897
448.464080,0.057143
448.802620,0.042553
449.141120,0.051903
449.479580,0.047203
449.818000,0.051635
450.156380,0.053512
450.494720,0.051240
450.833020,0.047203
451.171280,0.047945
451.509500,0.064460
451.847680,0.040472
452.185820,0.053356
452.523920,0.049828
452.861980,0.052277
453.200000,0.054817
453.537980,0.053782
453.875920,0.050420
454.213820,0.049658
454.551680,0.048013
454.889500,0.050590
455.227280,0.049822
455.565020,0.053601
455.902720,0.051581
456.240380,0.043261
456.578000,0.055749
456.915580,0.055268
457.253120,0.054276
457.590620,0.049261
457.928080,0.057239
458.265500,0.050676
458.602880,0.058442
458.940220,0.038917
459.277520,0.041600
459.614780,0.055646
459.952000,0.051242
460.289180,0.056962
460.626320,0.051969
460.963420,0.048465
461.300480,0.053517
461.637500,0.046225
461.974480,0.048930
462.311420,0.046200
462.648320,0.046852
462.985180,0.043042
463.322000,0.047619
463.658780,0.051105
463.995520,0.042641
464.332220,0.048476
464.668880,0.057796
465.005500,0.048257
465.342080,0.056338
465.678620,0.055351
466.015120,0.058215
466.351580,0.046776
466.688000,0.051157
467.024380,0.048603
467.360720,0.052273
467.697020,0.059226
468.033280,0.053333
468.369500,0.055188
468.705680,0.051860
469.041820,0.052083
469.377920,0.046638
469.713980,0.045314
470.050000,0.052174
470.385980,0.052838
470.721920,0.046033
471.057820,0.054581
471.393680,0.050514
471.729500,0.050046
472.065280,0.051878
472.401020,0.049645
472.736720,0.055846
473.072380,0.047576
473.408000,0.051349
473.743580,0.051038
474.079120,0.053402
474.414620,0.051739
474.750080,0.049634
475.085500,0.050164
475.420880,0.049126
475.756220,0.053966
476.091520,0.049446
476.426780,0.053398
476.762000,0.051488
477.097180,0.048800
477.432320,0.045234
477.767420,0.049837
478.102480,0.050394
478.437500,0.046798
478.772480,0.052009
479.107420,0.048007
479.442320,0.051159
479.777180,0.052506
480.112000,0.050077
480.446780,0.048324
480.781520,0.049114
481.116220,0.046888
481.450880,0.048400
481.785500,0.053006
482.120080,0.050940
482.454620,0.053613
482.789120,0.044586
483.123580,0.054517
483.458000,0.046677
483.792380,0.047923
484.126720,0.054826
484.461020,0.051522
484.795280,0.057826
485.129500,0.051442
485.463680,0.048062
485.797820,0.052877
486.131920,0.055088
486.465980,0.057143
486.800000,0.056489
487.133980,0.046828
487.467920,0.050497
487.801820,0.054157
488.135680,0.048522
488.469500,0.053707
488.803280,0.054235
489.137020,0.052015
489.470720,0.050445
489.804380,0.054195
490.138000,0.049703
490.471580,0.053058
490.805120,0.055754
491.138620,0.051173
491.472080,0.053004
491.805500,0.054393
492.138880,0.056289
492.472220,0.056055
492.805520,0.054469
493.138780,0.061337
493.472000,0.057525
493.805180,0.057981
494.138320,0.054703
494.471420,0.054036
494.804480,0.053687
495.137500,0.053915
495.470480,0.054175
495.803420,0.055416
496.136320,0.053258
496.469180,0.055249
496.802000,0.050122
497.134780,0.053972
497.467520,0.053823
497.800220,0.054245
498.132880,0.055262
498.465500,0.054461
498.798080,0.050228
499.130620,0.054464
499.463120,0.055587
499.795580,0.052255
500.128000,0.055041
500.460380,0.055436
500.792720,0.050371
501.125020,0.051498
501.457280,0.053264
501.789500,0.055269
502.121680,0.057543
502.453820,0.053034
502.785920,0.053027
503.117980,0.054465
503.450000,0.056755
503.781980,0.054808
504.113920,0.052632
504.445820,0.056393
504.777680,0.050824
505.109500,0.055769
505.441280,0.054493
505.773020,0.050728
506.104720,0.052285
506.436380,0.054425
506.768000,0.053321
507.099580,0.053547
507.431120,0.051054
507.762620,0.054981
508.094080,0.055150
508.425500,0.053221
508.756880,0.048468
509.088220,0.054278
509.419520,0.054004
509.750780,0.054358
510.082000,0.057369
510.413180,0.051129
510.744320,0.054303
511.075420,0.050412
511.406480,0.055947
511.737500,0.054630
512.068480,0.054981
512.399420,0.053052
512.730320,0.052194
513.061180,0.053758
513.392000,0.053952
513.722780,0.051873
514.053520,0.055582
514.384220,0.052331
514.714880,0.057444
515.045500,0.048851
515.376080,0.049879
515.706620,0.053580
516.037120,0.050490
516.367580,0.051257
516.698000,0.051471
517.028380,0.056604
517.358720,0.054815
517.689020,0.057864
518.019280,0.054190
518.349500,0.054739
518.679680,0.059566
519.009820,0.052126
519.339920,0.057615
519.669980,0.052235
520.000000,0.055527
520.329980,0.051840
520.659920,0.061350
520.989820,0.056244
521.319680,0.055041
521.649500,0.050900
521.979280,0.055846
522.309020,0.051867
522.638720,0.054275
522.968380,0.055326
523.298000,0.053236
523.627580,0.054837
523.957120,0.053506
524.286620,0.054195
524.616080,0.054292
524.945500,0.056331
525.274880,0.054900
525.604220,0.054865
525.933520,0.053983
526.262780,0.050684
526.592000,0.053780
526.921180,0.059421
527.250320,0.054795
527.579420,0.054573
527.908480,0.054653
528.237500,0.059086
528.566480,0.058383
528.895420,0.057664
529.224320,0.056464
529.553180,0.055904
529.882000,0.058394
530.210780,0.057432
530.539520,0.052733
530.868220,0.053135
531.196880,0.054945
531.525500,0.061501
531.854080,0.057223
532.182620,0.054180
532.511120,0.053364
532.839580,0.054446
533.168000,0.058341
533.496380,0.060731
533.824720,0.056079
534.153020,0.055729
534.481280,0.058590
534.809500,0.055849
535.137680,0.056858
535.465820,0.058419
535.793920,0.054569
536.121980,0.057491
536.450000,0.057928
536.777980,0.056137
537.105920,0.058531
537.433820,0.055646
537.761680,0.057959
538.089500,0.053420
538.417280,0.057700
538.745020,0.059429
539.072720,0.057790
539.400380,0.058664
539.728000,0.059656
540.055580,0.056554
540.383120,0.055473
540.710620,0.055804
541.038080,0.056437
541.365500,0.056618
541.692880,0.057776
542.020220,0.056495
542.347520,0.058148
542.674780,0.056104
543.002000,0.056683
543.329180,0.058927
543.656320,0.059072
543.983420,0.056752
544.310480,0.059803
544.637500,0.059707
544.964480,0.058546
545.291420,0.058491
545.618320,0.055113
545.945180,0.052406
546.272000,0.053735
546.598780,0.057686
546.925520,0.056710
547.252220,0.056124
547.578880,0.056696
547.905500,0.055229
548.232080,0.054906
548.558620,0.057598
548.885120,0.056264
549.211580,0.055288
549.538000,0.057393
549.864380,0.055305
550.190720,0.055538
550.517020,0.058996
550.843280,0.057655
551.169500,0.058206
551.495680,0.055191
551.821820,0.058785
552.147920,0.058230
552.473980,0.058610
552.800000,0.060170
553.125980,0.056647
553.451920,0.057731
553.777820,0.055963
554.103680,0.056960
554.429500,0.057918
554.755280,0.056409
555.081020,0.057487
555.406720,0.057569
555.732380,0.055574
556.058000,0.058384
556.383580,0.056145
556.709120,0.055479
557.034620,0.054771
557.360080,0.054922
557.685500,0.061203
558.010880,0.056153
558.336220,0.056591
558.661520,0.056363
558.986780,0.056343
559.312000,0.056268
559.637180,0.056373
559.962320,0.056248
560.287420,0.058886
560.612480,0.052386
560.937500,0.057269
561.262480,0.059018
561.587420,0.061299
561.912320,0.057848
562.237180,0.056995
562.562000,0.057613
562.886780,0.059829
563.211520,0.055514
563.536220,0.057143
563.860880,0.056205
564.185500,0.059287
564.510080,0.056433
564.834620,0.058802
565.159120,0.059774
565.483580,0.057773
565.808000,0.055240
566.132380,0.057814
566.456720,0.061980
566.781020,0.056639
567.105280,0.056711
567.429500,0.057284
567.753680,0.055236
568.077820,0.059915
568.401920,0.058824
568.725980,0.058065
569.050000,0.059696
569.373980,0.059003
569.697920,0.059917
570.021820,0.058801
570.345680,0.057405
570.669500,0.057993
570.993280,0.057586
571.317020,0.056997
571.640720,0.060763
571.964380,0.059020
572.288000,0.058976
572.611580,0.062898
572.935120,0.059110
573.258620,0.060583
573.582080,0.056259
573.905500,0.057334
574.228880,0.058649
574.552220,0.060828
574.875520,0.059568
575.198780,0.058186
575.522000,0.060850
575.845180,0.057307
576.168320,0.058211
576.491420,0.059230
576.814480,0.056781
577.137500,0.058081
577.460480,0.056905
577.783420,0.058950
578.106320,0.057692
578.429180,0.060092
578.752000,0.057312
579.074780,0.058328
579.397520,0.059716
579.720220,0.060167
580.042880,0.058143
580.365500,0.058570
580.688080,0.058684
581.010620,0.059399
581.333120,0.060120
581.655580,0.060606
581.978000,0.060193
582.300380,0.060045
582.622720,0.060316
582.945020,0.061769
583.267280,0.059915
583.589500,0.058748
583.911680,0.058749
584.233820,0.058546
584.555920,0.060195
584.877980,0.059673
585.200000,0.058932
585.521980,0.057770
585.843920,0.061013
586.165820,0.058196
586.487680,0.059284
586.809500,0.059406
587.131280,0.057379
587.453020,0.059821
587.774720,0.060615
588.096380,0.062135
588.418000,0.059701
588.739580,0.058638
589.061120,0.057792
589.382620,0.058453
589.704080,0.058626
590.025500,0.059646
590.346880,0.058179
590.668220,0.059087
590.989520,0.058236
591.310780,0.060481
591.632000,0.060656
591.953180,0.061998
592.274320,0.057330
592.595420,0.059806
592.916480,0.057321
593.237500,0.061978
593.558480,0.059188
593.879420,0.059347
594.200320,0.060809
594.521180,0.060558
594.842000,0.058302
595.162780,0.060630
595.483520,0.058229
595.804220,0.056391
596.124880,0.058620
596.445500,0.059995
596.766080,0.060231
597.086620,0.061040
597.407120,0.058715
597.727580,0.060992
598.048000,0.058715
598.368380,0.058916
598.688720,0.062385
599.009020,0.060244
599.329280,0.059340
599.649500,0.057316
599.969680,0.060096
600.289820,0.057425
600.609920,0.058776
600.929980,0.059594
601.250000,0.057027
601.569980,0.059411
601.889920,0.059610
602.209820,0.059524
602.529680,0.058226
602.849500,0.059193
603.169280,0.059245
603.489020,0.060338
603.808720,0.058694
604.128380,0.057947
604.448000,0.059116
604.767580,0.057263
605.087120,0.059280
605.406620,0.061573
605.726080,0.061591
606.045500,0.059627
606.364880,0.062092
606.684220,0.058252
607.003520,0.060780
607.322780,0.058840
607.642000,0.060023
607.961180,0.058109
608.280320,0.058005
608.599420,0.059386
608.918480,0.060411
609.237500,0.061913
609.556480,0.059485
609.875420,0.056409
610.194320,0.059640
610.513180,0.063036
610.832000,0.062537
611.150780,0.059778
611.469520,0.059427
611.788220,0.058948
612.106880,0.059409
612.425500,0.058770
612.744080,0.059711
613.062620,0.057798
613.381120,0.057892
613.699580,0.058860
614.018000,0.061425
614.336380,0.058297
614.654720,0.059845
614.973020,0.061709
615.291280,0.061667
615.609500,0.059588
615.927680,0.058714
616.245820,0.057514
616.563920,0.059061
616.881980,0.062052
617.200000,0.062208
617.517980,0.059116
617.835920,0.054986
618.153820,0.059683
618.471680,0.060465
618.789500,0.058842
619.107280,0.059468
619.425020,0.059943
619.742720,0.059636
620.060380,0.061109
620.378000,0.060101
620.695580,0.060983
621.013120,0.057008
621.330620,0.060559
621.648080,0.058360
621.965500,0.061167
622.282880,0.057692
622.600220,0.058749
622.917520,0.058286
623.234780,0.060752
623.552000,0.061426
623.869180,0.059880
624.186320,0.061127
624.503420,0.057680
624.820480,0.058750
625.137500,0.062204
625.454480,0.061269
625.771420,0.059269
626.088320,0.059269
626.405180,0.062539
626.722000,0.058971
627.038780,0.056704
627.355520,0.058125
627.672220,0.060964
627.988880,0.059720
628.305500,0.060767
628.622080,0.058550
628.938620,0.060856
629.255120,0.061294
629.571580,0.060067
629.888000,0.057993
630.204380,0.061369
630.520720,0.059720
630.837020,0.059821
631.153280,0.059053
631.469500,0.060036
631.785680,0.064195
632.101820,0.062123
632.417920,0.060209
632.733980,0.056723
633.050000,0.061552
633.365980,0.060166
633.681920,0.062649
633.997820,0.059474
634.313680,0.059864
634.629500,0.060454
634.945280,0.060997
635.261020,0.061931
635.576720,0.062243
635.892380,0.059541
636.208000,0.062754
636.523580,0.064016
636.839120,0.060510
637.154620,0.061159
637.470080,0.060258
637.785500,0.060082
638.100880,0.061396
638.416220,0.060972
638.731520,0.061032
639.046780,0.062336
639.362000,0.061353
639.677180,0.063107
639.992320,0.061460
640.307420,0.063501
640.622480,0.060487
640.937500,0.061026
641.252480,0.060318
641.567420,0.061949
641.882320,0.059855
642.197180,0.061202
642.512000,0.060453
642.826780,0.060194
643.141520,0.061684
643.456220,0.058661
643.770880,0.061083
644.085500,0.061766
644.400080,0.058989
644.714620,0.061873
645.029120,0.061881
645.343580,0.062809
645.658000,0.060505
645.972380,0.060016
646.286720,0.059962
646.601020,0.059231
646.915280,0.063066
647.229500,0.061264
647.543680,0.059928
647.857820,0.063309
648.171920,0.062670
648.485980,0.060016
648.800000,0.059521
649.113980,0.061530
649.427920,0.061304
649.741820,0.058533
650.055680,0.061986
650.369500,0.063341
650.683280,0.061598
650.997020,0.059956
651.310720,0.061365
651.624380,0.060714
651.938000,0.062604
652.251580,0.061787
652.565120,0.061487
652.878620,0.061092
653.192080,0.060955
653.505500,0.058906
653.818880,0.060847
654.132220,0.061806
654.445520,0.062110
654.758780,0.062890
655.072000,0.060745
655.385180,0.058488
655.698320,0.059160
656.011420,0.058756
656.324480,0.060332
656.637500,0.061124
656.950480,0.060188
657.263420,0.060597
657.576320,0.060480
657.889180,0.063698
658.202000,0.057367
658.514780,0.060435
658.827520,0.061825
659.140220,0.060234
659.452880,0.058593
659.765500,0.060807
660.078080,0.059886
660.390620,0.060495
660.703120,0.060800
661.015580,0.061043
661.328000,0.060453
661.640380,0.062442
661.952720,0.063843
662.265020,0.060807
662.577280,0.061069
662.889500,0.060864
663.201680,0.063816
663.513820,0.058218
663.825920,0.059878
664.137980,0.060763
664.450000,0.059143
664.761980,0.060884
665.073920,0.060370
665.385820,0.062173
665.697680,0.057851
666.009500,0.063851
666.321280,0.064944
666.633020,0.063830
666.944720,0.062016
667.256380,0.061911
667.568000,0.059783
667.879580,0.061905
668.191120,0.057692
668.502620,0.059226
668.814080,0.060351
669.125500,0.058844
669.436880,0.063624
669.748220,0.062305
670.059520,0.061975
670.370780,0.061239
670.682000,0.063363
670.993180,0.064130
671.304320,0.060478
671.615420,0.059304
671.926480,0.059617
672.237500,0.061808
672.548480,0.061036
672.859420,0.060400
673.170320,0.058397
673.481180,0.061550
673.792000,0.060945
674.102780,0.062478
674.413520,0.057601
674.724220,0.058076
675.034880,0.063073
675.345500,0.061999
675.656080,0.062069
675.966620,0.058203
676.277120,0.062614
676.587580,0.063328
676.898000,0.058231
677.208380,0.061738
677.518720,0.057622
677.829020,0.060606
678.139280,0.060044
678.449500,0.062013
678.759680,0.062570
679.069820,0.062082
679.379920,0.063750
679.689980,0.062013
680.000000,0.059813
680.309980,0.059762
680.619920,0.059447
680.929820,0.061963
681.239680,0.059823
681.549500,0.063333
681.859280,0.061240
682.169020,0.062663
682.478720,0.064697
682.788380,0.060170
683.098000,0.066567
683.407580,0.061163
683.717120,0.060435
684.026620,0.059488
684.336080,0.061387
684.645500,0.057613
684.954880,0.061579
685.264220,0.064175
685.573520,0.065093
685.882780,0.062908
686.192000,0.061701
686.501180,0.058645
686.810320,0.063413
687.119420,0.060053
687.428480,0.062666
687.737500,0.058327
688.046480,0.061733
688.355420,0.061109
688.664320,0.060826
688.973180,0.063553
689.282000,0.059414
689.590780,0.059433
689.899520,0.060387
690.208220,0.062691
690.516880,0.061474
690.825500,0.063396
691.134080,0.059605
691.442620,0.064024
691.751120,0.059917
692.059580,0.059610
692.368000,0.059447
692.676380,0.061450
692.984720,0.059542
693.293020,0.063830
693.601280,0.059901
693.909500,0.058267
694.217680,0.063214
694.525820,0.064737
694.833920,0.061427
695.141980,0.059776
695.450000,0.063359
695.757980,0.059206
696.065920,0.059417
696.373820,0.060046
696.681680,0.062908
696.989500,0.062910
697.297280,0.063399
697.605020,0.059127
697.912720,0.060338
698.220380,0.062180
698.528000,0.064873
698.835580,0.062821
699.143120,0.058846
699.450620,0.061655
699.758080,0.062353
700.065500,0.062251
700.372880,0.061200
700.680220,0.062625
700.987520,0.062302
701.294780,0.062449
701.602000,0.062203
701.909180,0.062003
702.216320,0.061400
702.523420,0.061957
702.830480,0.062574
703.137500,0.059626
703.444480,0.063511
703.751420,0.063511
704.058320,0.060546
704.365180,0.062303
704.672000,0.062970
704.978780,0.058135
705.285520,0.062207
705.592220,0.061569
705.898880,0.061860
706.205500,0.061815
706.512080,0.062006
706.818620,0.057663
707.125120,0.063077
707.431580,0.062134
707.738000,0.063672
708.044380,0.058665
708.350720,0.061521
708.657020,0.062134
708.963280,0.063665
709.269500,0.061448
709.575680,0.061690
709.881820,0.061714
710.187920,0.059922
710.493980,0.062064
710.800000,0.061785
711.105980,0.062123
711.411920,0.061096
711.717820,0.060429
712.023680,0.060630
712.329500,0.059543
712.635280,0.063953
712.941020,0.065327
713.246720,0.059289
713.552380,0.061617
713.858000,0.061490
714.163580,0.063141
714.469120,0.061743
714.774620,0.060008
715.080080,0.062034
715.385500,0.063949
715.690880,0.059566
715.996220,0.061410
716.301520,0.058893
716.606780,0.059355
716.912000,0.061793
717.217180,0.060654
717.522320,0.063221
717.827420,0.062246
718.132480,0.061421
718.437500,0.062780
718.742480,0.060081
719.047420,0.057443
719.352320,0.063927
719.657180,0.065004
719.962000,0.062862
720.266780,0.061072
720.571520,0.060895
720.876220,0.061784
721.180880,0.061873
721.485500,0.063936
721.790080,0.059023
722.094620,0.060892
722.399120,0.062904
722.703580,0.059151
723.008000,0.059077
723.312380,0.061128
723.616720,0.059499
723.921020,0.061498
724.225280,0.059773
724.529500,0.059107
724.833680,0.064947
725.137820,0.062555
725.441920,0.060633
725.745980,0.059508
726.050000,0.064051
726.353980,0.057684
726.657920,0.065227
726.961820,0.062100
727.265680,0.061951
727.569500,0.060329
727.873280,0.057275
728.177020,0.066329
728.480720,0.062500
728.784380,0.062940
729.088000,0.061234
729.391580,0.063003
729.695120,0.061900
729.998620,0.063576
730.302080,0.062951
730.605500,0.059680
730.908880,0.061244
731.212220,0.062684
731.515520,0.061921
731.818780,0.063592
732.122000,0.061024
732.425180,0.063578
732.728320,0.062965
733.031420,0.062657
733.334480,0.059184
733.637500,0.058468
733.940480,0.060389
734.243420,0.067278
734.546320,0.059647
734.849180,0.060434
735.152000,0.058610
735.454780,0.058884
735.757520,0.060063
736.060220,0.060032
736.362880,0.060399
736.665500,0.056919
736.968080,0.060720
737.270620,0.063691
737.573120,0.063319
737.875580,0.063771
738.178000,0.056070
738.480380,0.062703
738.782720,0.061069
739.085020,0.057269
739.387280,0.058204
739.689500,0.061721
739.991680,0.059517
740.293820,0.063571
740.595920,0.063996
740.897980,0.060418
741.200000,0.062815
741.501980,0.064183
741.803920,0.060248
742.105820,0.062042
742.407680,0.060571
742.709500,0.061364
743.011280,0.058030
743.313020,0.063768
743.614720,0.060940
743.916380,0.061047
744.218000,0.068019
744.519580,0.062198
744.821120,0.062874
745.122620,0.064110
745.424080,0.055889
745.725500,0.059747
746.026880,0.059729
746.328220,0.060419
746.629520,0.061409
746.930780,0.061275
747.232000,0.059473
747.533180,0.061623
747.834320,0.060864
748.135420,0.061529
748.436480,0.061135
748.737500,0.064237
749.038480,0.063531
749.339420,0.063472
749.640320,0.057825
749.941180,0.061212
750.242000,0.061558
750.542780,0.065136
750.843520,0.063421
751.144220,0.060897
751.444880,0.062777
751.745500,0.056494
752.046080,0.064785
752.346620,0.056701
752.647120,0.060091
752.947580,0.058862
753.248000,0.059961
753.548380,0.057905
753.848720,0.059884
754.149020,0.053514
754.449280,0.066316
754.749500,0.060385
755.049680,0.061333
755.349820,0.058706
755.649920,0.061467
755.949980,0.062376
756.250000,0.065089
756.549980,0.060066
756.849920,0.062542
757.149820,0.059880
757.449680,0.062706
757.749500,0.064758
758.049280,0.061433
758.349020,0.061892
758.648720,0.062802
758.948380,0.063230
759.248000,0.061995
759.547580,0.061870
759.847120,0.057891
760.146620,0.065629
760.446080,0.063172
760.745500,0.058741
761.044880,0.063920
761.344220,0.060584
761.643520,0.066384
761.942780,0.060882
762.242000,0.060113
762.541180,0.061268
762.840320,0.063904
763.139420,0.061181
763.438480,0.058783
763.737500,0.064783
764.036480,0.059399
764.335420,0.064220
764.634320,0.058905
764.933180,0.065068
765.232000,0.058987
765.530780,0.063158
765.829520,0.063636
766.128220,0.065414
766.426880,0.061834
766.725500,0.062371
767.024080,0.060357
767.322620,0.058783
767.621120,0.059621
767.919580,0.058020
768.218000,0.058140
768.516380,0.064233
768.814720,0.059671
769.113020,0.063405
769.411280,0.064917
769.709500,0.059540
770.007680,0.056578
770.305820,0.063556
770.603920,0.059973
770.901980,0.064208
771.200000,0.059783
771.497980,0.062332
771.795920,0.061538
772.093820,0.063503
772.391680,0.061964
772.689500,0.062162
772.987280,0.061279
773.285020,0.058100
773.582720,0.059459
773.880380,0.061084
774.178000,0.057941
774.475580,0.064300
774.773120,0.059572
775.070620,0.064233
775.368080,0.064796
775.665500,0.061786
775.962880,0.062041
776.260220,0.060565
776.557520,0.064710
776.854780,0.062880
777.152000,0.062334
777.449180,0.061362
777.746320,0.057124
778.043420,0.064120
778.340480,0.062923
778.637500,0.060852
778.934480,0.066577
779.231420,0.056309
779.528320,0.060120
779.825180,0.064559
780.122000,0.062417
780.418780,0.060192
780.715520,0.063045
781.012220,0.060959
781.308880,0.065585
781.605500,0.059589
781.902080,0.066393
782.198620,0.066302
782.495120,0.063786
782.791580,0.061210
783.088000,0.062112
783.384380,0.061210
783.680720,0.061560
783.977020,0.058500
784.273280,0.060140
784.569500,0.062194
784.865680,0.062587
785.161820,0.062500
785.457920,0.056826
785.753980,0.062107
786.050000,0.060083
786.345980,0.063889
786.641920,0.061069
786.937820,0.066952
787.233680,0.066110
787.529500,0.060333
787.825280,0.063739
788.121020,0.054533
788.416720,0.063514
788.712380,0.066291
789.008000,0.062323
789.303580,0.059364
789.599120,0.061091
789.894620,0.062816
790.190080,0.058013
790.485500,0.063355
790.780880,0.065950
791.076220,0.059885
791.371520,0.062455
791.666780,0.065455
791.962000,0.059515
792.257180,0.062225
792.552320,0.067440
792.847420,0.069141
793.142480,0.065201
793.437500,0.058611
793.732480,0.062180
794.027420,0.061573
794.322320,0.063386
794.617180,0.063893
794.912000,0.060178
795.206780,0.063386
795.501520,0.060076
795.796220,0.061481
796.090880,0.061040
796.385500,0.063718
796.680080,0.060583
796.974620,0.063623
797.269120,0.057532
797.563580,0.064122
797.858000,0.055429
798.152380,0.059551
798.446720,0.063846
798.741020,0.063174
799.035280,0.062112
799.329500,0.064665
799.623680,0.069767
