399.985280,0.040541
400.329500,0.054054
400.673680,0.037975
401.017820,-0.058824
401.361920,0.030303
401.705980,0.000000
402.050000,-0.025974
402.393980,0.094118
402.737920,0.044944
403.081820,0.041237
403.425680,-0.011628
403.769500,0.031250
404.113280,-0.045977
404.457020,0.056180
404.800720,-0.021739
405.144380,0.060606
405.488000,0.010753
405.831580,0.061856
406.175120,0.021277
406.518620,0.060000
406.862080,0.082474
407.205500,-0.010417
407.548880,0.020408
407.892220,0.058824
408.235520,0.021277
408.578780,0.085714
408.922000,0.038462
409.265180,0.040404
409.608320,0.080808
409.951420,0.103093
410.294480,0.049020
410.637500,0.021739
410.980480,0.058824
411.323420,0.010204
411.666320,0.100917
412.009180,0.081818
412.352000,-0.019802
412.694780,0.036697
413.037520,0.018349
413.380220,0.045045
413.722880,0.053571
414.065500,0.054054
414.408080,0.026549
414.750620,0.017699
415.093120,0.041322
415.435580,0.050420
415.778000,0.068182
416.120380,0.033613
416.462720,0.007937
416.805020,0.052632
417.147280,0.037313
417.489500,0.085714
417.831680,0.027397
418.173820,0.028369
418.515920,0.013986
418.857980,0.050633
419.200000,0.070513
419.541980,0.047337
419.883920,0.028090
420.225820,0.017341
420.567680,0.033520
420.909500,0.060109
421.251280,0.057292
421.593020,0.051020
421.934720,0.030303
422.276380,0.015385
422.618000,0.053922
422.959580,0.063725
423.301120,0.050228
423.642620,0.030435
423.984080,0.027907
424.325500,0.049327
424.666880,0.056034
425.008220,0.037815
425.349520,0.046610
425.690780,0.034615
426.032000,0.062745
426.373180,0.041494
426.714320,0.058594
427.055420,0.038610
427.396480,0.059925
427.737500,0.055336
428.078480,0.035573
428.419420,0.040161
428.760320,0.042146
429.101180,0.070866
429.442000,0.049808
429.782780,0.042308
430.123520,0.062745
430.464220,0.047970
430.804880,0.068966
431.145500,0.025455
431.486080,0.052434
431.826620,0.042636
432.167120,0.055147
432.507580,0.057971
432.848000,0.057554
433.188380,0.039711
433.528720,0.033962
433.869020,0.060714
434.209280,0.049123
434.549500,0.045296
434.889680,0.050505
435.229820,0.044369
435.569920,0.034602
435.909980,0.038835
436.250000,0.047458
436.589980,0.027864
436.929920,0.069841
437.269820,0.040752
437.609680,0.071006
437.949500,0.057229
438.289280,0.045326
438.629020,0.066860
438.968720,0.055233
439.308380,0.035230
439.648000,0.063014
439.987580,0.063492
440.327120,0.048000
440.666620,0.054545
441.006080,0.053708
441.345500,0.039312
441.684880,0.047847
442.024220,0.042184
442.363520,0.040476
442.702780,0.036364
443.042000,0.046256
443.381180,0.040948
443.720320,0.049676
444.059420,0.039916
444.398480,0.031381
444.737500,0.045082
445.076480,0.049603
445.415420,0.049900
445.754320,0.035343
446.093180,0.053211
446.432000,0.054511
446.770780,0.036053
447.109520,0.055147
447.448220,0.055456
447.786880,0.041145
448.125500,0.055172
448.464080,0.039286
448.802620,0.039007
449.141120,0.043253
449.479580,0.055944
449.818000,0.051635
450.156380,0.051839
450.494720,0.042975
450.833020,0.047203
451.171280,0.046233
451.509500,0.050523
451.847680,0.042159
452.185820,0.055077
452.523920,0.058419
452.861980,0.050590
453.200000,0.053156
453.537980,0.052101
453.875920,0.043697
454.213820,0.041096
454.551680,0.054636
454.889500,0.053963
455.227280,0.032028
455.565020,0.055276
455.902720,0.061564
456.240380,0.038270
456.578000,0.050523
456.915580,0.046632
457.253120,0.059211
457.590620,0.055829
457.928080,0.057239
458.265500,0.043919
458.602880,0.051948
458.940220,0.045685
459.277520,0.049600
459.614780,0.044190
459.952000,0.051242
460.289180,0.055380
460.626320,0.045669
460.963420,0.051696
461.300480,0.051988
461.637500,0.043143
461.974480,0.051988
462.311420,0.049180
462.648320,0.046852
462.985180,0.047346
463.322000,0.052083
463.658780,0.048343
463.995520,0.045392
464.332220,0.045706
464.668880,0.059140
465.005500,0.052279
465.342080,0.052497
465.678620,0.054121
466.015120,0.050453
466.351580,0.056890
466.688000,0.054811
467.024380,0.053463
467.360720,0.051136
467.697020,0.051253
468.033280,0.053333
468.369500,0.047461
468.705680,0.047351
469.041820,0.046875
469.377920,0.046638
469.713980,0.050463
470.050000,0.060870
470.385980,0.054795
470.721920,0.047992
471.057820,0.042885
471.393680,0.049579
471.729500,0.046339
472.065280,0.054562
472.401020,0.054965
472.736720,0.051483
473.072380,0.046679
473.408000,0.050479
473.743580,0.048443
474.079120,0.054264
474.414620,0.046650
474.750080,0.054516
475.085500,0.053454
475.420880,0.056619
475.756220,0.053148
476.091520,0.046888
476.426780,0.053398
476.762000,0.041834
477.097180,0.056800
477.432320,0.054120
477.767420,0.047386
478.102480,0.050394
478.437500,0.047619
478.772480,0.046493
479.107420,0.050448
479.442320,0.051958
479.777180,0.053302
480.112000,0.053159
480.446780,0.045207
480.781520,0.052335
481.116220,0.049313
481.450880,0.052303
481.785500,0.053006
482.120080,0.054075
482.454620,0.052059
482.789120,0.052548
483.123580,0.053738
483.458000,0.047468
483.792380,0.048722
484.126720,0.051737
484.461020,0.053864
484.795280,0.052429
485.129500,0.056898
485.463680,0.049612
485.797820,0.055210
486.131920,0.048967
486.465980,0.050965
486.800000,0.050382
487.133980,0.046828
487.467920,0.050497
487.801820,0.055683
488.135680,0.050796
488.469500,0.053707
488.803280,0.051263
489.137020,0.047619
489.470720,0.049703
489.804380,0.052710
490.138000,0.055638
490.471580,0.056743
490.805120,0.054325
491.138620,0.049751
491.472080,0.053710
491.805500,0.050907
492.138880,0.051425
492.472220,0.047059
492.805520,0.050978
493.138780,0.053756
493.472000,0.056187
493.805180,0.055252
494.138320,0.054703
494.471420,0.055990
494.804480,0.051746
495.137500,0.053915
495.470480,0.051625
495.803420,0.052897
496.136320,0.053885
496.469180,0.053407
496.802000,0.054401
497.134780,0.051546
497.467520,0.057492
497.800220,0.051297
498.132880,0.050558
498.465500,0.050985
498.798080,0.051370
499.130620,0.055025
499.463120,0.053341
499.795580,0.054455
500.128000,0.052861
500.460380,0.051668
500.792720,0.052492
501.125020,0.052023
501.457280,0.051175
501.789500,0.051653
502.121680,0.055469
502.453820,0.052524
502.785920,0.050025
503.117980,0.054465
503.450000,0.058262
503.781980,0.058296
504.113920,0.052632
504.445820,0.052504
504.777680,0.049882
505.109500,0.050481
505.441280,0.055927
505.773020,0.050728
506.104720,0.049929
506.436380,0.050639
506.768000,0.055659
507.099580,0.054462
507.431120,0.052927
507.762620,0.049812
508.094080,0.055606
508.425500,0.055556
508.756880,0.052583
509.088220,0.051978
509.419520,0.055400
509.750780,0.053889
510.082000,0.052705
510.413180,0.055735
510.744320,0.054763
511.075420,0.051787
511.406480,0.057828
511.737500,0.053241
512.068480,0.056391
512.399420,0.053052
512.730320,0.053118
513.061180,0.052807
513.392000,0.051585
513.722780,0.051393
514.053520,0.055103
514.384220,0.049952
514.714880,0.058401
515.045500,0.049330
515.376080,0.054237
515.706620,0.056990
516.037120,0.053922
516.367580,0.052735
516.698000,0.053431
517.028380,0.053128
517.358720,0.052840
517.689020,0.055391
518.019280,0.055193
518.349500,0.053218
518.679680,0.054013
519.009820,0.053644
519.339920,0.054108
519.669980,0.049221
520.000000,0.056037
520.329980,0.052877
520.659920,0.053170
520.989820,0.057276
521.319680,0.052984
521.649500,0.049871
521.979280,0.054280
522.309020,0.052386
522.638720,0.050691
522.968380,0.058945
523.298000,0.055324
523.627580,0.055354
523.957120,0.055065
524.286620,0.050547
524.616080,0.055843
524.945500,0.059432
525.274880,0.057978
525.604220,0.055901
525.933520,0.051363
526.262780,0.052205
526.592000,0.052258
526.921180,0.056882
527.250320,0.056824
527.579420,0.056089
527.908480,0.057607
528.237500,0.055611
528.566480,0.053393
528.895420,0.056678
529.224320,0.056959
529.553180,0.056867
529.882000,0.057908
530.210780,0.057915
530.539520,0.056568
530.868220,0.055050
531.196880,0.055423
531.525500,0.057143
531.854080,0.059568
532.182620,0.058384
532.511120,0.055220
532.839580,0.055354
533.168000,0.056974
533.496380,0.059817
533.824720,0.054733
534.153020,0.058404
534.481280,0.059912
534.809500,0.057608
535.137680,0.055122
535.465820,0.057990
535.793920,0.056684
536.121980,0.054553
536.450000,0.058351
536.777980,0.059908
537.105920,0.053549
537.433820,0.056465
537.761680,0.058367
538.089500,0.057062
538.417280,0.053323
538.745020,0.056656
539.072720,0.056228
539.400380,0.058275
539.728000,0.056597
540.055580,0.054307
540.383120,0.058451
540.710620,0.058036
541.038080,0.057174
541.365500,0.052941
541.692880,0.054506
542.020220,0.056495
542.347520,0.057430
542.674780,0.058222
543.002000,0.058083
543.329180,0.058927
543.656320,0.059072
543.983420,0.053675
544.310480,0.055386
544.637500,0.056636
544.964480,0.056528
545.291420,0.056497
545.618320,0.057437
545.945180,0.056691
546.272000,0.056684
546.598780,0.055392
546.925520,0.056050
547.252220,0.052823
547.578880,0.057022
547.905500,0.057190
548.232080,0.055880
548.558620,0.058249
548.885120,0.055937
549.211580,0.057216
549.538000,0.057393
549.864380,0.054019
550.190720,0.055538
550.517020,0.057692
550.843280,0.060586
551.169500,0.058842
551.495680,0.058804
551.821820,0.058459
552.147920,0.055953
552.473980,0.054330
552.800000,0.055919
553.125980,0.062213
553.451920,0.058726
553.777820,0.059294
554.103680,0.058308
554.429500,0.053231
554.755280,0.055741
555.081020,0.056484
555.406720,0.058246
555.732380,0.054897
556.058000,0.055669
556.383580,0.054776
556.709120,0.056168
557.034620,0.056493
557.360080,0.053886
557.685500,0.057746
558.010880,0.056153
558.336220,0.055536
558.661520,0.055654
558.986780,0.057406
559.312000,0.059473
559.637180,0.058528
559.962320,0.058028
560.287420,0.059591
560.612480,0.056692
560.937500,0.056167
561.262480,0.056085
561.587420,0.056221
561.912320,0.057111
562.237180,0.059585
562.562000,0.058736
562.886780,0.057599
563.211520,0.057377
563.536220,0.059369
563.860880,0.056205
564.185500,0.060413
564.510080,0.060948
564.834620,0.054708
565.159120,0.057143
565.483580,0.058153
565.808000,0.055997
566.132380,0.060798
566.456720,0.058957
566.781020,0.057389
567.105280,0.055198
567.429500,0.058042
567.753680,0.060606
568.077820,0.058369
568.401920,0.056914
568.725980,0.057685
569.050000,0.057034
569.373980,0.057480
569.697920,0.057641
570.021820,0.057303
570.345680,0.056257
570.669500,0.056085
570.993280,0.055740
571.317020,0.058824
571.640720,0.058540
571.964380,0.057535
572.288000,0.057493
572.611580,0.059903
572.935120,0.059110
573.258620,0.059088
573.582080,0.059985
573.905500,0.058824
574.228880,0.058649
574.552220,0.059729
574.875520,0.059568
575.198780,0.057102
575.522000,0.059384
575.845180,0.056232
576.168320,0.060367
576.491420,0.059956
576.814480,0.059675
577.137500,0.059163
577.460480,0.057267
577.783420,0.060736
578.106320,0.060541
578.429180,0.059738
578.752000,0.056617
579.074780,0.058328
579.397520,0.058102
579.720220,0.056950
580.042880,0.060456
580.365500,0.057909
580.688080,0.062076
581.010620,0.062099
581.333120,0.059786
581.655580,0.059274
581.978000,0.060525
582.300380,0.057449
582.622720,0.060646
582.945020,0.058518
583.267280,0.063823
583.589500,0.057143
583.911680,0.060019
584.233820,0.057916
584.555920,0.063032
584.877980,0.058417
585.200000,0.060467
585.521980,0.058387
585.843920,0.058267
586.165820,0.058196
586.487680,0.060788
586.809500,0.059706
587.131280,0.056492
587.453020,0.062202
587.774720,0.059137
588.096380,0.061844
588.418000,0.058238
588.739580,0.060937
589.061120,0.058942
589.382620,0.059599
589.704080,0.058906
590.025500,0.058790
590.346880,0.059303
590.668220,0.056567
590.989520,0.057959
591.310780,0.059100
591.632000,0.059836
591.953180,0.059784
592.274320,0.058149
592.595420,0.058459
592.916480,0.059223
593.237500,0.059822
593.558480,0.058380
593.879420,0.060696
594.200320,0.061881
594.521180,0.062683
594.842000,0.059377
595.162780,0.060630
595.483520,0.061952
595.804220,0.059076
596.124880,0.061018
596.445500,0.058685
596.766080,0.061845
597.086620,0.058917
597.407120,0.060295
597.727580,0.058605
598.048000,0.060566
598.368380,0.055234
598.688720,0.062123
599.009020,0.059979
599.329280,0.059606
599.649500,0.059429
599.969680,0.060630
600.289820,0.060630
600.609920,0.059578
600.929980,0.057456
601.250000,0.058108
601.569980,0.058871
601.889920,0.059610
602.209820,0.059524
602.529680,0.060148
602.849500,0.058374
603.169280,0.061174
603.489020,0.058677
603.808720,0.060066
604.128380,0.059603
604.448000,0.057459
604.767580,0.057542
605.087120,0.058726
605.406620,0.059894
605.726080,0.060451
606.045500,0.057119
606.364880,0.059824
606.684220,0.060537
607.003520,0.059633
607.322780,0.057135
607.642000,0.058587
607.961180,0.058398
608.280320,0.057715
608.599420,0.056489
608.918480,0.059824
609.237500,0.061620
609.556480,0.060669
609.875420,0.056409
610.194320,0.060821
610.513180,0.060669
610.832000,0.060453
611.150780,0.058877
611.469520,0.059729
611.788220,0.061064
612.106880,0.061218
612.425500,0.057856
612.744080,0.057556
613.062620,0.060856
613.381120,0.058196
613.699580,0.059779
614.018000,0.063268
614.336380,0.060457
614.654720,0.059845
614.973020,0.059550
615.291280,0.060118
615.609500,0.061490
615.927680,0.059642
616.245820,0.060606
616.563920,0.057507
616.881980,0.063299
617.200000,0.059409
617.517980,0.058805
617.835920,0.058403
618.153820,0.061859
618.471680,0.059225
618.789500,0.059786
619.107280,0.059468
619.425020,0.061212
619.742720,0.059950
620.060380,0.058602
620.378000,0.060415
620.695580,0.063538
621.013120,0.057323
621.330620,0.060245
621.648080,0.059937
621.965500,0.058657
622.282880,0.059899
622.600220,0.059381
622.917520,0.059546
623.234780,0.059466
623.552000,0.059198
623.869180,0.060511
624.186320,0.061445
624.503420,0.059248
624.820480,0.060320
625.137500,0.060941
625.454480,0.061894
625.771420,0.060214
626.088320,0.058638
626.405180,0.061294
626.722000,0.059912
627.038780,0.061717
627.355520,0.060312
627.672220,0.059409
627.988880,0.060653
628.305500,0.060455
628.622080,0.060719
628.938620,0.060550
629.255120,0.061917
629.571580,0.060374
629.888000,0.059221
630.204380,0.060448
630.520720,0.060024
630.837020,0.059513
631.153280,0.058153
631.469500,0.060036
631.785680,0.059675
632.101820,0.061821
632.417920,0.061103
632.733980,0.059424
633.050000,0.062462
633.365980,0.059573
633.681920,0.059368
633.997820,0.061566
634.313680,0.061634
634.629500,0.060749
634.945280,0.060117
635.261020,0.062518
635.576720,0.057839
635.892380,0.059251
636.208000,0.060139
636.523580,0.061970
636.839120,0.062536
637.154620,0.061739
637.470080,0.059397
637.785500,0.063306
638.100880,0.059369
638.416220,0.063273
638.731520,0.057020
639.046780,0.061171
639.362000,0.061353
639.677180,0.061108
639.992320,0.060333
640.307420,0.060129
640.622480,0.063008
640.937500,0.061581
641.252480,0.061994
641.567420,0.061949
641.882320,0.059577
642.197180,0.061763
642.512000,0.062133
642.826780,0.061026
643.141520,0.060017
643.456220,0.061151
643.770880,0.062189
644.085500,0.060369
644.400080,0.062360
644.714620,0.061315
645.029120,0.061606
645.343580,0.060614
645.658000,0.058840
645.972380,0.062483
646.286720,0.061325
646.601020,0.061998
646.915280,0.063340
647.229500,0.060714
647.543680,0.061585
647.857820,0.060006
648.171920,0.062398
648.485980,0.060016
648.800000,0.060898
649.113980,0.061530
649.427920,0.060749
649.741820,0.060731
650.055680,0.061437
650.369500,0.058857
650.683280,0.061321
650.997020,0.061881
651.310720,0.062466
651.624380,0.060165
651.938000,0.060388
652.251580,0.061787
652.565120,0.061207
652.878620,0.063063
653.192080,0.059270
653.505500,0.059748
653.818880,0.061700
654.132220,0.061521
654.445520,0.060692
654.758780,0.057224
655.072000,0.057593
655.385180,0.058773
655.698320,0.057731
656.011420,0.059043
656.324480,0.060624
656.637500,0.058806
656.950480,0.059601
657.263420,0.062666
657.576320,0.060480
657.889180,0.062518
658.202000,0.058273
658.514780,0.061625
658.827520,0.062725
659.140220,0.059634
659.452880,0.060103
659.765500,0.060205
660.078080,0.059886
660.390620,0.060189
660.703120,0.061106
661.015580,0.063190
661.328000,0.060139
661.640380,0.060888
661.952720,0.061974
662.265020,0.063327
662.577280,0.061387
662.889500,0.060549
663.201680,0.060944
663.513820,0.058861
663.825920,0.058918
664.137980,0.062056
664.450000,0.059463
664.761980,0.063502
665.073920,0.061344
665.385820,0.063154
665.697680,0.059504
666.009500,0.061191
666.321280,0.062293
666.633020,0.061835
666.944720,0.058982
667.256380,0.059892
667.568000,0.061821
667.879580,0.061565
668.191120,0.059409
668.502620,0.061623
668.814080,0.058596
669.125500,0.061238
669.436880,0.062241
669.748220,0.060228
670.059520,0.061975
670.370780,0.061935
670.682000,0.059469
670.993180,0.060958
671.304320,0.063291
671.615420,0.059659
671.926480,0.058907
672.237500,0.059307
672.548480,0.059972
672.859420,0.059685
673.170320,0.062749
673.481180,0.061550
673.792000,0.059502
674.102780,0.061400
674.413520,0.059424
674.724220,0.056987
675.034880,0.060139
675.345500,0.060175
675.656080,0.065336
675.966620,0.060386
676.277120,0.060051
676.587580,0.060383
676.898000,0.060470
677.208380,0.061368
677.518720,0.058352
677.829020,0.063193
678.139280,0.061898
678.449500,0.063127
678.759680,0.060697
679.069820,0.062825
679.379920,0.059977
679.689980,0.061270
680.000000,0.059439
680.309980,0.061990
680.619920,0.060962
680.929820,0.062337
681.239680,0.061300
681.549500,0.062963
681.859280,0.056759
682.169020,0.061171
682.478720,0.065445
682.788380,0.062385
683.098000,0.063575
683.407580,0.059662
683.717120,0.057808
684.026620,0.059111
684.336080,0.060250
684.645500,0.057987
684.954880,0.057801
685.264220,0.062665
685.573520,0.061287
685.882780,0.064058
686.192000,0.059443
686.501180,0.060159
686.810320,0.061107
687.119420,0.060813
687.428480,0.059628
687.737500,0.060246
688.046480,0.058666
688.355420,0.062618
688.664320,0.058148
688.973180,0.063170
689.282000,0.059414
689.590780,0.059816
689.899520,0.060387
690.208220,0.061544
690.516880,0.061474
690.825500,0.060755
691.134080,0.058087
691.442620,0.061357
691.751120,0.059158
692.059580,0.062285
692.368000,0.059069
692.676380,0.060305
692.984720,0.061069
693.293020,0.063450
693.601280,0.059519
693.909500,0.063186
694.217680,0.061310
694.525820,0.061310
694.833920,0.060282
695.141980,0.060162
695.450000,0.062214
695.757980,0.062261
696.065920,0.057087
696.373820,0.062356
696.681680,0.060990
696.989500,0.060594
697.297280,0.059510
697.605020,0.062698
697.912720,0.062260
698.220380,0.061393
698.528000,0.067642
698.835580,0.060846
699.143120,0.062354
699.450620,0.060461
699.758080,0.062353
700.065500,0.063049
700.372880,0.064400
700.680220,0.061827
700.987520,0.061905
701.294780,0.061638
701.602000,0.061014
701.909180,0.062798
702.216320,0.061791
702.523420,0.060773
702.830480,0.060594
703.137500,0.059626
703.444480,0.062327
703.751420,0.059961
704.058320,0.062525
704.365180,0.063486
704.672000,0.061386
704.978780,0.060476
705.285520,0.062989
705.592220,0.058431
705.898880,0.062648
706.205500,0.062207
706.512080,0.063191
706.818620,0.061146
707.125120,0.061538
707.431580,0.061743
707.738000,0.062109
708.044380,0.058665
708.350720,0.060374
708.657020,0.059398
708.963280,0.060559
709.269500,0.063405
709.575680,0.065619
709.881820,0.062500
710.187920,0.062257
710.493980,0.059348
710.800000,0.058734
711.105980,0.060241
711.411920,0.059913
711.717820,0.059649
712.023680,0.060241
712.329500,0.063091
712.635280,0.062791
712.941020,0.061461
713.246720,0.058893
713.552380,0.062794
713.858000,0.058731
714.163580,0.061563
714.469120,0.060180
714.774620,0.060008
715.080080,0.060071
715.385500,0.062350
715.690880,0.058383
715.996220,0.057448
716.301520,0.060870
716.606780,0.062893
716.912000,0.060582
717.217180,0.061852
717.522320,0.062425
717.827420,0.058584
718.132480,0.061020
718.437500,0.059111
718.742480,0.058871
719.047420,0.062298
719.352320,0.064342
719.657180,0.059689
719.962000,0.062035
720.266780,0.060656
720.571520,0.059652
720.876220,0.062602
721.180880,0.061037
721.485500,0.058086
721.790080,0.058599
722.094620,0.061750
722.399120,0.062473
722.703580,0.058723
723.008000,0.060371
723.312380,0.058975
723.616720,0.062048
723.921020,0.061065
724.225280,0.058901
724.529500,0.060858
724.833680,0.065836
725.137820,0.060793
725.441920,0.059741
725.745980,0.064430
726.050000,0.062246
726.353980,0.060838
726.657920,0.062978
726.961820,0.064840
727.265680,0.063800
727.569500,0.059872
727.873280,0.057737
728.177020,0.061262
728.480720,0.058796
728.784380,0.062471
729.088000,0.060292
729.391580,0.059214
729.695120,0.060940
729.998620,0.065010
730.302080,0.060548
730.605500,0.061135
730.908880,0.060265
731.212220,0.057786
731.515520,0.059971
731.818780,0.062621
732.122000,0.065945
732.425180,0.063085
732.728320,0.059990
733.031420,0.058647
733.334480,0.060204
733.637500,0.060988
733.940480,0.059365
734.243420,0.062691
734.546320,0.061722
734.849180,0.063017
735.152000,0.061203
735.454780,0.060434
735.757520,0.059536
736.060220,0.061611
736.362880,0.061975
736.665500,0.061619
736.968080,0.061795
737.270620,0.063691
737.573120,0.062773
737.875580,0.064871
738.178000,0.058792
738.480380,0.058919
738.782720,0.064885
739.085020,0.061123
739.387280,0.062639
739.689500,0.060589
739.991680,0.057271
740.293820,0.061913
740.595920,0.062883
740.897980,0.061547
741.200000,0.062815
741.501980,0.060172
741.803920,0.057995
742.105820,0.062042
742.407680,0.061736
742.709500,0.061932
743.011280,0.059789
743.313020,0.059710
743.614720,0.060360
743.916380,0.059884
744.218000,0.066826
744.519580,0.059783
744.821120,0.061677
745.122620,0.062912
745.424080,0.057692
745.725500,0.058540
746.026880,0.060345
746.328220,0.059186
746.629520,0.058399
746.930780,0.063113
747.232000,0.060699
747.533180,0.062233
747.834320,0.061473
748.135420,0.059043
748.436480,0.059888
748.737500,0.062384
749.038480,0.060476
749.339420,0.063472
749.640320,0.061596
749.941180,0.061836
750.242000,0.061558
750.542780,0.063896
750.843520,0.067905
751.144220,0.067308
751.444880,0.069119
751.745500,0.059091
752.046080,0.065427
752.346620,0.058634
752.647120,0.057479
752.947580,0.060155
753.248000,0.062540
753.548380,0.059857
753.848720,0.061816
754.149020,0.057382
754.449280,0.065003
754.749500,0.064366
755.049680,0.061333
755.349820,0.054703
755.649920,0.066094
755.949980,0.062376
756.250000,0.062459
756.549980,0.060726
756.849920,0.059823
757.149820,0.059215
757.449680,0.065347
757.749500,0.067485
758.049280,0.057338
758.349020,0.058414
758.648720,0.063492
758.948380,0.063918
759.248000,0.057951
759.547580,0.058507
759.847120,0.057891
760.146620,0.061570
760.446080,0.062500
760.745500,0.062937
761.044880,0.059659
761.344220,0.064148
761.643520,0.064266
761.942780,0.065080
762.242000,0.062235
762.541180,0.062676
762.840320,0.059691
763.139420,0.057665
763.438480,0.061517
763.737500,0.063405
764.036480,0.064291
764.335420,0.060692
764.634320,0.060984
764.933180,0.064384
765.232000,0.061069
765.530780,0.063158
765.829520,0.062937
766.128220,0.060543
766.426880,0.061834
766.725500,0.064428
767.024080,0.064472
767.322620,0.064315
767.621120,0.061653
767.919580,0.057338
768.218000,0.062927
768.516380,0.060176
768.814720,0.062414
769.113020,0.066161
769.411280,0.065608
769.709500,0.061570
770.007680,0.057260
770.305820,0.061528
770.603920,0.060647
770.901980,0.066257
771.200000,0.062500
771.497980,0.063003
771.795920,0.054849
772.093820,0.056818
772.391680,0.059987
772.689500,0.058108
772.987280,0.059259
773.285020,0.060834
773.582720,0.060811
773.880380,0.061084
774.178000,0.059305
774.475580,0.064970
774.773120,0.063588
775.070620,0.062880
775.368080,0.061456
775.665500,0.059772
775.962880,0.062708
776.260220,0.059892
776.557520,0.059373
776.854780,0.058147
777.152000,0.053714
777.449180,0.064734
777.746320,0.053763
778.043420,0.060027
778.340480,0.058187
778.637500,0.065585
778.934480,0.062542
779.231420,0.058345
779.528320,0.062792
779.825180,0.059289
780.122000,0.063745
780.418780,0.060876
780.715520,0.064386
781.012220,0.063699
781.308880,0.066937
781.605500,0.063014
781.902080,0.062971
782.198620,0.058783
782.495120,0.063786
782.791580,0.066025
783.088000,0.059351
783.384380,0.061210
783.680720,0.059508
783.977020,0.059188
784.273280,0.063636
784.569500,0.060098
784.865680,0.061892
785.161820,0.061806
785.457920,0.058212
785.753980,0.064201
786.050000,0.060773
786.345980,0.061111
786.641920,0.057599
786.937820,0.066239
787.233680,0.061935
787.529500,0.066574
787.825280,0.061615
788.121020,0.061615
788.416720,0.059986
788.712380,0.062764
789.008000,0.066572
789.303580,0.060071
789.599120,0.058182
789.894620,0.059928
790.190080,0.058738
790.485500,0.065515
790.780880,0.058781
791.076220,0.062049
791.371520,0.065359
791.666780,0.066182
791.962000,0.058780
792.257180,0.061493
792.552320,0.068891
792.847420,0.063319
793.142480,0.068132
793.437500,0.061505
793.732480,0.062180
794.027420,0.058605
794.322320,0.058911
794.617180,0.064636
794.912000,0.061664
795.206780,0.059657
795.501520,0.062357
795.796220,0.060000
796.090880,0.057272
796.385500,0.059220
796.680080,0.059835
796.974620,0.066617
797.269120,0.061317
797.563580,0.062595
797.858000,0.064541
798.152380,0.061872
798.446720,0.059231
798.741020,0.058552
799.035280,0.064441
799.329500,0.061586
799.623680,0.058915
