399.985280,0.040541
400.329500,0.013514
400.673680,0.025316
401.017820,0.000000
401.361920,-0.060606
401.705980,0.012195
402.050000,-0.038961
402.393980,0.035294
402.737920,0.044944
403.081820,0.000000
403.425680,0.046512
403.769500,0.031250
404.113280,0.011494
404.457020,0.067416
404.800720,0.032609
405.144380,0.080808
405.488000,0.010753
405.831580,0.103093
406.175120,0.063830
406.518620,0.030000
406.862080,0.092784
407.205500,0.031250
407.548880,0.030612
407.892220,0.078431
408.235520,0.063830
408.578780,0.047619
408.922000,0.057692
409.265180,0.090909
409.608320,0.020202
409.951420,0.072165
410.294480,0.088235
410.637500,-0.043478
410.980480,0.039216
411.323420,0.061224
411.666320,0.045872
412.009180,0.045455
412.352000,-0.019802
412.694780,0.045872
413.037520,0.009174
413.380220,0.072072
413.722880,0.062500
414.065500,0.045045
414.408080,-0.008850
414.750620,0.017699
415.093120,0.041322
415.435580,0.050420
415.778000,0.113636
416.120380,0.025210
416.462720,0.023810
416.805020,0.060150
417.147280,0.029851
417.489500,0.057143
417.831680,0.027397
418.173820,0.028369
418.515920,0.041958
418.857980,0.012658
419.200000,0.044872
419.541980,0.047337
419.883920,0.044944
420.225820,0.069364
420.567680,0.050279
420.909500,0.054645
421.251280,0.052083
421.593020,0.030612
421.934720,0.030303
422.276380,0.071795
422.618000,0.044118
422.959580,0.044118
423.301120,0.050228
423.642620,0.021739
423.984080,0.041860
424.325500,0.049327
424.666880,0.034483
425.008220,0.042017
425.349520,0.025424
425.690780,0.026923
426.032000,0.031373
426.373180,0.029046
426.714320,0.031250
427.055420,0.034749
427.396480,0.056180
427.737500,0.043478
428.078480,0.031621
428.419420,0.040161
428.760320,0.045977
429.101180,0.090551
429.442000,0.049808
429.782780,0.042308
430.123520,0.023529
430.464220,0.059041
430.804880,0.061303
431.145500,0.032727
431.486080,0.056180
431.826620,0.042636
432.167120,0.040441
432.507580,0.057971
432.848000,0.061151
433.188380,0.054152
433.528720,0.037736
433.869020,0.064286
434.209280,0.035088
434.549500,0.041812
434.889680,0.074074
435.229820,0.068259
435.569920,0.055363
435.909980,0.051780
436.250000,0.061017
436.589980,0.040248
436.929920,0.050794
437.269820,0.037618
437.609680,0.050296
437.949500,0.045181
438.289280,0.059490
438.629020,0.061047
438.968720,0.072674
439.308380,0.037940
439.648000,0.052055
439.987580,0.063492
440.327120,0.048000
440.666620,0.051948
441.006080,0.053708
441.345500,0.056511
441.684880,0.055024
442.024220,0.044665
442.363520,0.042857
442.702780,0.036364
443.042000,0.048458
443.381180,0.049569
443.720320,0.064795
444.059420,0.037815
444.398480,0.046025
444.737500,0.045082
445.076480,0.049603
445.415420,0.045908
445.754320,0.045738
446.093180,0.045872
446.432000,0.050752
446.770780,0.056926
447.109520,0.053309
447.448220,0.051878
447.786880,0.050089
448.125500,0.056897
448.464080,0.055357
448.802620,0.051418
449.141120,0.058824
449.479580,0.045455
449.818000,0.055077
450.156380,0.045151
450.494720,0.054545
450.833020,0.055944
451.171280,0.047945
451.509500,0.062718
451.847680,0.053963
452.185820,0.060241
452.523920,0.063574
452.861980,0.050590
453.200000,0.054817
453.537980,0.052101
453.875920,0.052101
454.213820,0.046233
454.551680,0.056291
454.889500,0.052277
455.227280,0.026690
455.565020,0.060302
455.902720,0.058236
456.240380,0.034942
456.578000,0.048780
456.915580,0.051813
457.253120,0.054276
457.590620,0.055829
457.928080,0.053872
458.265500,0.050676
458.602880,0.050325
458.940220,0.032149
459.277520,0.052800
459.614780,0.054010
459.952000,0.054348
460.289180,0.050633
460.626320,0.042520
460.963420,0.050081
461.300480,0.051988
461.637500,0.047766
461.974480,0.058104
462.311420,0.040238
462.648320,0.046852
462.985180,0.040172
463.322000,0.049107
463.658780,0.042818
463.995520,0.050894
464.332220,0.051247
464.668880,0.053763
465.005500,0.054960
465.342080,0.058899
465.678620,0.050431
466.015120,0.046572
466.351580,0.061947
466.688000,0.056029
467.024380,0.051033
467.360720,0.044318
467.697020,0.048975
468.033280,0.056667
468.369500,0.052980
468.705680,0.052988
469.041820,0.055208
469.377920,0.043384
469.713980,0.053553
470.050000,0.057005
470.385980,0.055773
470.721920,0.050930
471.057820,0.043860
471.393680,0.047708
471.729500,0.049120
472.065280,0.054562
472.401020,0.053191
472.736720,0.046248
473.072380,0.049372
473.408000,0.051349
473.743580,0.052768
474.079120,0.051680
474.414620,0.050042
474.750080,0.049634
475.085500,0.053454
475.420880,0.052456
475.756220,0.054783
476.091520,0.051151
476.426780,0.050162
476.762000,0.047466
477.097180,0.053600
477.432320,0.050081
477.767420,0.047386
478.102480,0.051181
478.437500,0.046798
478.772480,0.044917
479.107420,0.047193
479.442320,0.055156
479.777180,0.052506
480.112000,0.053159
480.446780,0.053001
480.781520,0.049919
481.116220,0.050121
481.450880,0.051522
481.785500,0.053006
482.120080,0.055643
482.454620,0.052836
482.789120,0.052548
483.123580,0.053738
483.458000,0.045095
483.792380,0.053514
484.126720,0.050193
484.461020,0.053084
484.795280,0.050887
485.129500,0.054560
485.463680,0.047287
485.797820,0.053655
486.131920,0.048967
486.465980,0.056371
486.800000,0.056489
487.133980,0.047583
487.467920,0.052793
487.801820,0.049580
488.135680,0.048522
488.469500,0.050681
488.803280,0.055721
489.137020,0.048352
489.470720,0.051187
489.804380,0.051967
490.138000,0.050445
490.471580,0.051584
490.805120,0.060043
491.138620,0.057569
491.472080,0.055830
491.805500,0.052301
492.138880,0.056289
492.472220,0.049827
492.805520,0.053771
493.138780,0.057202
493.472000,0.054181
493.805180,0.053888
494.138320,0.057372
494.471420,0.054036
494.804480,0.053040
495.137500,0.057125
495.470480,0.058636
495.803420,0.051637
496.136320,0.052005
496.469180,0.052793
496.802000,0.053178
497.134780,0.055185
497.467520,0.055046
497.800220,0.051297
498.132880,0.054674
498.465500,0.056779
498.798080,0.053082
499.130620,0.060640
499.463120,0.053341
499.795580,0.055006
500.128000,0.056131
500.460380,0.050592
500.792720,0.051432
501.125020,0.049396
501.457280,0.051175
501.789500,0.053719
502.121680,0.058061
502.453820,0.050994
502.785920,0.054527
503.117980,0.056428
503.450000,0.053742
503.781980,0.055805
504.113920,0.053580
504.445820,0.052990
504.777680,0.049882
505.109500,0.053365
505.441280,0.054015
505.773020,0.053546
506.104720,0.049458
506.436380,0.053478
506.768000,0.056127
507.099580,0.049886
507.431120,0.059485
507.762620,0.053102
508.094080,0.054239
508.425500,0.054155
508.756880,0.048468
509.088220,0.054278
509.419520,0.055866
509.750780,0.054358
510.082000,0.055970
510.413180,0.057117
510.744320,0.052002
511.075420,0.054537
511.406480,0.054067
511.737500,0.052315
512.068480,0.054981
512.399420,0.054930
512.730320,0.050808
513.061180,0.053283
513.392000,0.051585
513.722780,0.053794
514.053520,0.056540
514.384220,0.053283
514.714880,0.057922
515.045500,0.051245
515.376080,0.052300
515.706620,0.053093
516.037120,0.051471
516.367580,0.052242
516.698000,0.056373
517.028380,0.056107
517.358720,0.051358
517.689020,0.055391
518.019280,0.052684
518.349500,0.054232
518.679680,0.054518
519.009820,0.049595
519.339920,0.058116
519.669980,0.052235
520.000000,0.056037
520.329980,0.054951
520.659920,0.054703
520.989820,0.055728
521.319680,0.054527
521.649500,0.053985
521.979280,0.056367
522.309020,0.053423
522.638720,0.051203
522.968380,0.057911
523.298000,0.058977
523.627580,0.054320
523.957120,0.052468
524.286620,0.057843
524.616080,0.058428
524.945500,0.055814
525.274880,0.056439
525.604220,0.055383
525.933520,0.052411
526.262780,0.052712
526.592000,0.055809
526.921180,0.057897
527.250320,0.054795
527.579420,0.058110
527.908480,0.056622
528.237500,0.055611
528.566480,0.054391
528.895420,0.056185
529.224320,0.055473
529.553180,0.054458
529.882000,0.057908
530.210780,0.052124
530.539520,0.055129
530.868220,0.053614
531.196880,0.053512
531.525500,0.059080
531.854080,0.055347
532.182620,0.056983
532.511120,0.055220
532.839580,0.053539
533.168000,0.053783
533.496380,0.054795
533.824720,0.055630
534.153020,0.055729
534.481280,0.057269
534.809500,0.053650
535.137680,0.057292
535.465820,0.055842
535.793920,0.053723
536.121980,0.059169
536.450000,0.054968
536.777980,0.055718
537.105920,0.060191
537.433820,0.058511
537.761680,0.060408
538.089500,0.056253
538.417280,0.056108
538.745020,0.057845
539.072720,0.056228
539.400380,0.054779
539.728000,0.056214
540.055580,0.056929
540.383120,0.058824
540.710620,0.056176
541.038080,0.056437
541.365500,0.055515
541.692880,0.057049
542.020220,0.057575
542.347520,0.054917
542.674780,0.055399
543.002000,0.057383
543.329180,0.060330
543.656320,0.058017
543.983420,0.052650
544.310480,0.056405
544.637500,0.055954
544.964480,0.059219
545.291420,0.058491
545.618320,0.059097
545.945180,0.054384
546.272000,0.054718
546.598780,0.053425
546.925520,0.055720
547.252220,0.057115
547.578880,0.057022
547.905500,0.056863
548.232080,0.056855
548.558620,0.055321
548.885120,0.054956
549.211580,0.057538
549.538000,0.056744
549.864380,0.055627
550.190720,0.055538
550.517020,0.057366
550.843280,0.059935
551.169500,0.055025
551.495680,0.058476
551.821820,0.055846
552.147920,0.056604
552.473980,0.055647
552.800000,0.056900
553.125980,0.054028
553.451920,0.056403
553.777820,0.056629
554.103680,0.055949
554.429500,0.057248
554.755280,0.056742
555.081020,0.056818
555.406720,0.058923
555.732380,0.055574
556.058000,0.058384
556.383580,0.057515
556.709120,0.057891
557.034620,0.058216
557.360080,0.059413
557.685500,0.058437
558.010880,0.056846
558.336220,0.054833
558.661520,0.057426
558.986780,0.055634
559.312000,0.057692
559.637180,0.059605
559.962320,0.058028
560.287420,0.060296
560.612480,0.056692
560.937500,0.057636
561.262480,0.054252
561.587420,0.059848
561.912320,0.055637
562.237180,0.056255
562.562000,0.056117
562.886780,0.054627
563.211520,0.057377
563.536220,0.059740
563.860880,0.056582
564.185500,0.058161
564.510080,0.057186
564.834620,0.059918
565.159120,0.056391
565.483580,0.056632
565.808000,0.058645
566.132380,0.058187
566.456720,0.062736
566.781020,0.057014
567.105280,0.057467
567.429500,0.058042
567.753680,0.057154
568.077820,0.059528
568.401920,0.058824
568.725980,0.057685
569.050000,0.058175
569.373980,0.058622
569.697920,0.059537
570.021820,0.055431
570.345680,0.057023
570.669500,0.058375
570.993280,0.057955
571.317020,0.055170
571.640720,0.053353
571.964380,0.057535
572.288000,0.058976
572.611580,0.059154
572.935120,0.059484
573.258620,0.059088
573.582080,0.056632
573.905500,0.059568
574.228880,0.059391
574.552220,0.056797
574.875520,0.059196
575.198780,0.057102
575.522000,0.061584
575.845180,0.057307
576.168320,0.057851
576.491420,0.058866
576.814480,0.061121
577.137500,0.062771
577.460480,0.057992
577.783420,0.060379
578.106320,0.057692
578.429180,0.062213
578.752000,0.055228
579.074780,0.057316
579.397520,0.060039
579.720220,0.055663
580.042880,0.059465
580.365500,0.057909
580.688080,0.058345
581.010620,0.064462
581.333120,0.060454
581.655580,0.060606
581.978000,0.059860
582.300380,0.060695
582.622720,0.060646
582.945020,0.061443
583.267280,0.058287
583.589500,0.057143
583.911680,0.056526
584.233820,0.059490
584.555920,0.059880
584.877980,0.059673
585.200000,0.059546
585.521980,0.059005
585.843920,0.058267
586.165820,0.060634
586.487680,0.061089
586.809500,0.059106
587.131280,0.058267
587.453020,0.062202
587.774720,0.060024
588.096380,0.057760
588.418000,0.058531
588.739580,0.058350
589.061120,0.058367
589.382620,0.058739
589.704080,0.059748
590.025500,0.059646
590.346880,0.056773
590.668220,0.060207
590.989520,0.060732
591.310780,0.057443
591.632000,0.057650
591.953180,0.062829
592.274320,0.058695
592.595420,0.059267
592.916480,0.060581
593.237500,0.057397
593.558480,0.058380
593.879420,0.057998
594.200320,0.061077
594.521180,0.059761
594.842000,0.058839
595.162780,0.063034
595.483520,0.058495
595.804220,0.057465
596.124880,0.059952
596.445500,0.058685
596.766080,0.061038
597.086620,0.057590
597.407120,0.061085
597.727580,0.060992
598.048000,0.061624
598.368380,0.061284
598.688720,0.059240
599.009020,0.058386
599.329280,0.060671
599.649500,0.058373
599.969680,0.059562
600.289820,0.060363
600.609920,0.059578
600.929980,0.059059
601.250000,0.059189
601.569980,0.061032
601.889920,0.059877
602.209820,0.058712
602.529680,0.060972
602.849500,0.057829
603.169280,0.057592
603.489020,0.057847
603.808720,0.058420
604.128380,0.059327
604.448000,0.058840
604.767580,0.056983
605.087120,0.055956
605.406620,0.061013
605.726080,0.062447
606.045500,0.060463
606.364880,0.058974
606.684220,0.058824
607.003520,0.058486
607.322780,0.061114
607.642000,0.057438
607.961180,0.058398
608.280320,0.058875
608.599420,0.058517
608.918480,0.058944
609.237500,0.058979
609.556480,0.060669
609.875420,0.058181
610.194320,0.060230
610.513180,0.062149
610.832000,0.058964
611.150780,0.062782
611.469520,0.062142
611.788220,0.058646
612.106880,0.060917
612.425500,0.058770
612.744080,0.063404
613.062620,0.058716
613.381120,0.058806
613.699580,0.060086
614.018000,0.058047
614.336380,0.060457
614.654720,0.062326
614.973020,0.059858
615.291280,0.057949
615.609500,0.059588
615.927680,0.063350
616.245820,0.060297
616.563920,0.058440
616.881980,0.061428
617.200000,0.060031
617.517980,0.057561
617.835920,0.058714
618.153820,0.058129
618.471680,0.061395
618.789500,0.058527
619.107280,0.059781
619.425020,0.058991
619.742720,0.059008
620.060380,0.057976
620.378000,0.060415
620.695580,0.060664
621.013120,0.059843
621.330620,0.062441
621.648080,0.061830
621.965500,0.060540
622.282880,0.059899
622.600220,0.060644
622.917520,0.058601
623.234780,0.062038
623.552000,0.058243
623.869180,0.057989
624.186320,0.060490
624.503420,0.059875
624.820480,0.060006
625.137500,0.062204
625.454480,0.060019
625.771420,0.060214
626.088320,0.057062
626.405180,0.057872
626.722000,0.058971
627.038780,0.059837
627.355520,0.058750
627.672220,0.061586
627.988880,0.060964
628.305500,0.059208
628.622080,0.061958
628.938620,0.062385
629.255120,0.059116
629.571580,0.058842
629.888000,0.058607
630.204380,0.059834
630.520720,0.060634
630.837020,0.058896
631.153280,0.060252
631.469500,0.057004
631.785680,0.062387
632.101820,0.061520
632.417920,0.061401
632.733980,0.059424
633.050000,0.063675
633.365980,0.057202
633.681920,0.062351
633.997820,0.058577
634.313680,0.060454
634.629500,0.061634
634.945280,0.060997
635.261020,0.062812
635.576720,0.060482
635.892380,0.059251
636.208000,0.059268
636.523580,0.061386
636.839120,0.060220
637.154620,0.059130
637.470080,0.060545
637.785500,0.061547
638.100880,0.060527
638.416220,0.058384
638.731520,0.059885
639.046780,0.060006
639.362000,0.060493
639.677180,0.060251
639.992320,0.059205
640.307420,0.060410
640.622480,0.063848
640.937500,0.060194
641.252480,0.059481
641.567420,0.058255
641.882320,0.058463
642.197180,0.058956
642.512000,0.059054
642.826780,0.059362
643.141520,0.058072
643.456220,0.060044
643.770880,0.061913
644.085500,0.059530
644.400080,0.060393
644.714620,0.059086
645.029120,0.061881
645.343580,0.060066
645.658000,0.061615
645.972380,0.062209
646.286720,0.061325
646.601020,0.061722
646.915280,0.062243
647.229500,0.056868
647.543680,0.061033
647.857820,0.060281
648.171920,0.062670
648.485980,0.057550
648.800000,0.059796
649.113980,0.060698
649.427920,0.063245
649.741820,0.058533
650.055680,0.062534
650.369500,0.060818
650.683280,0.060766
650.997020,0.061056
651.310720,0.062466
651.624380,0.062637
651.938000,0.062327
652.251580,0.062900
652.565120,0.059530
652.878620,0.060811
653.192080,0.060393
653.505500,0.060309
653.818880,0.059994
654.132220,0.059242
654.445520,0.062110
654.758780,0.060623
655.072000,0.059312
655.385180,0.058203
655.698320,0.060875
656.011420,0.062482
656.324480,0.061790
656.637500,0.058517
656.950480,0.059307
657.263420,0.061188
657.576320,0.059887
657.889180,0.061929
658.202000,0.057065
658.514780,0.060732
658.827520,0.063325
659.140220,0.060533
659.452880,0.057384
659.765500,0.058098
660.078080,0.061691
660.390620,0.061106
660.703120,0.061412
661.015580,0.058589
661.328000,0.061713
661.640380,0.061199
661.952720,0.062597
662.265020,0.059546
662.577280,0.059796
662.889500,0.060864
663.201680,0.063816
663.513820,0.058540
663.825920,0.059878
664.137980,0.064318
664.450000,0.058504
664.761980,0.059574
665.073920,0.060045
665.385820,0.061846
665.697680,0.059504
666.009500,0.061856
666.321280,0.064944
666.633020,0.060173
666.944720,0.058308
667.256380,0.059892
667.568000,0.058764
667.879580,0.058844
668.191120,0.060096
668.502620,0.058884
668.814080,0.060702
669.125500,0.059186
669.436880,0.064315
669.748220,0.059190
670.059520,0.061975
670.370780,0.062630
670.682000,0.061593
670.993180,0.059549
671.304320,0.060830
671.615420,0.058239
671.926480,0.062101
672.237500,0.058950
672.548480,0.062811
672.859420,0.059685
673.170320,0.061299
673.481180,0.063360
673.792000,0.058420
674.102780,0.062118
674.413520,0.060518
674.724220,0.059165
675.034880,0.061606
675.345500,0.060904
675.656080,0.063884
675.966620,0.060022
676.277120,0.058953
676.587580,0.057437
676.898000,0.061217
677.208380,0.057671
677.518720,0.060175
677.829020,0.062823
678.139280,0.059674
678.449500,0.062013
678.759680,0.060697
679.069820,0.061710
679.379920,0.061486
679.689980,0.059413
680.000000,0.060561
680.309980,0.060134
680.619920,0.061340
680.929820,0.062710
681.239680,0.063146
681.549500,0.061481
681.859280,0.063854
682.169020,0.060425
682.478720,0.063201
682.788380,0.056848
683.098000,0.064323
683.407580,0.061538
683.717120,0.062688
684.026620,0.062123
684.336080,0.059113
684.645500,0.057613
684.954880,0.058179
685.264220,0.062665
685.573520,0.064332
685.882780,0.062140
686.192000,0.060196
686.501180,0.059402
686.810320,0.061491
687.119420,0.061574
687.428480,0.058109
687.737500,0.063315
688.046480,0.059049
688.355420,0.061486
688.664320,0.060061
688.973180,0.062021
689.282000,0.059028
689.590780,0.061733
689.899520,0.061527
690.208220,0.063456
690.516880,0.060710
690.825500,0.061509
691.134080,0.058846
691.442620,0.059832
691.751120,0.061813
692.059580,0.061903
692.368000,0.060962
692.676380,0.061069
692.984720,0.061450
693.293020,0.059271
693.601280,0.061045
693.909500,0.062051
694.217680,0.062833
694.525820,0.061310
694.833920,0.059901
695.141980,0.061319
695.450000,0.062214
695.757980,0.063025
696.065920,0.061748
696.373820,0.058507
696.681680,0.060222
696.989500,0.062524
697.297280,0.059121
697.605020,0.062302
697.912720,0.063028
698.220380,0.062967
698.528000,0.063291
698.835580,0.064401
699.143120,0.060795
699.450620,0.062848
699.758080,0.060000
700.065500,0.063847
700.372880,0.059600
700.680220,0.057439
700.987520,0.062698
701.294780,0.059611
701.602000,0.060618
701.909180,0.062401
702.216320,0.060227
702.523420,0.062352
702.830480,0.061386
703.137500,0.061185
703.444480,0.062722
703.751420,0.059566
704.058320,0.061733
704.365180,0.060726
704.672000,0.062970
704.978780,0.059306
705.285520,0.058685
705.592220,0.060000
705.898880,0.062648
706.205500,0.059077
706.512080,0.059637
706.818620,0.062307
707.125120,0.059615
707.431580,0.057054
707.738000,0.061328
708.044380,0.058279
708.350720,0.060374
708.657020,0.061743
708.963280,0.062500
709.269500,0.062622
709.575680,0.064047
709.881820,0.061714
710.187920,0.061868
710.493980,0.063615
710.800000,0.061022
711.105980,0.063253
711.411920,0.060702
711.717820,0.059649
712.023680,0.059464
712.329500,0.061514
712.635280,0.065116
712.941020,0.062234
713.246720,0.057708
713.552380,0.063579
713.858000,0.063855
714.163580,0.060379
714.469120,0.058226
714.774620,0.059613
715.080080,0.061641
715.385500,0.061950
715.690880,0.059961
715.996220,0.061410
716.301520,0.061265
716.606780,0.063286
716.912000,0.061793
717.217180,0.060255
717.522320,0.056859
717.827420,0.064280
718.132480,0.061823
718.437500,0.061150
718.742480,0.062903
719.047420,0.061489
719.352320,0.061021
719.657180,0.061733
719.962000,0.061621
720.266780,0.062318
720.571520,0.060481
720.876220,0.060966
721.180880,0.061873
721.485500,0.059340
721.790080,0.058174
722.094620,0.063036
722.399120,0.063335
722.703580,0.061294
723.008000,0.059508
723.312380,0.058975
723.616720,0.060773
723.921020,0.059333
724.225280,0.059337
724.529500,0.059107
724.833680,0.060943
725.137820,0.059912
725.441920,0.061525
725.745980,0.063087
726.050000,0.060893
726.353980,0.061740
726.657920,0.062978
726.961820,0.061644
727.265680,0.061951
727.569500,0.060329
727.873280,0.059122
728.177020,0.067250
728.480720,0.063426
728.784380,0.064349
729.088000,0.060292
729.391580,0.060635
729.695120,0.062860
729.998620,0.065488
730.302080,0.061989
730.605500,0.058709
730.908880,0.059775
731.212220,0.061214
731.515520,0.064359
731.818780,0.064078
732.122000,0.057579
732.425180,0.060621
732.728320,0.059990
733.031420,0.061654
733.334480,0.060204
733.637500,0.059980
733.940480,0.061412
734.243420,0.064730
734.546320,0.063797
734.849180,0.061467
735.152000,0.058610
735.454780,0.058884
735.757520,0.060590
736.060220,0.058452
736.362880,0.063025
736.665500,0.059530
736.968080,0.062332
737.270620,0.061513
737.573120,0.057860
737.875580,0.064321
738.178000,0.060969
738.480380,0.062703
738.782720,0.057252
739.085020,0.057819
739.387280,0.060421
739.689500,0.061155
739.991680,0.064570
740.293820,0.065229
740.595920,0.058987
740.897980,0.060418
741.200000,0.061133
741.501980,0.066476
741.803920,0.057432
742.105820,0.056402
742.407680,0.060571
742.709500,0.061932
743.011280,0.061547
743.313020,0.060290
743.614720,0.057458
743.916380,0.055233
744.218000,0.068616
744.519580,0.060386
744.821120,0.057485
745.122620,0.061114
745.424080,0.057091
745.725500,0.062764
746.026880,0.063424
746.328220,0.063502
746.629520,0.063215
746.930780,0.066789
747.232000,0.057633
747.533180,0.057962
747.834320,0.059647
748.135420,0.059664
748.436480,0.066750
748.737500,0.061149
749.038480,0.062309
749.339420,0.062228
749.640320,0.059711
749.941180,0.061212
750.242000,0.056533
750.542780,0.062655
750.843520,0.063421
751.144220,0.058974
751.444880,0.063412
751.745500,0.056494
752.046080,0.060295
752.346620,0.056057
752.647120,0.060745
752.947580,0.061449
753.248000,0.067054
753.548380,0.061158
753.848720,0.062460
754.149020,0.057382
754.449280,0.061064
754.749500,0.059721
755.049680,0.058667
755.349820,0.058706
755.649920,0.062789
755.949980,0.065030
756.250000,0.058514
756.549980,0.060066
756.849920,0.059143
757.149820,0.058550
757.449680,0.060066
757.749500,0.062031
758.049280,0.066894
758.349020,0.063978
758.648720,0.064872
758.948380,0.058419
759.248000,0.060647
759.547580,0.059180
759.847120,0.055824
760.146620,0.062246
760.446080,0.059140
760.745500,0.058741
761.044880,0.057528
761.344220,0.064148
761.643520,0.064972
761.942780,0.060182
762.242000,0.064356
762.541180,0.057746
762.840320,0.066011
763.139420,0.063994
763.438480,0.060834
763.737500,0.058580
764.036480,0.062194
764.335420,0.062103
764.634320,0.056133
764.933180,0.067123
765.232000,0.059681
765.530780,0.061053
765.829520,0.060140
766.128220,0.064022
766.426880,0.060412
766.725500,0.064428
767.024080,0.058985
767.322620,0.059474
767.621120,0.055556
767.919580,0.055973
768.218000,0.057456
768.516380,0.058147
768.814720,0.063786
769.113020,0.059959
769.411280,0.064917
769.709500,0.058863
770.007680,0.057260
770.305820,0.062880
770.603920,0.058625
770.901980,0.065574
771.200000,0.064538
771.497980,0.058981
771.795920,0.056856
772.093820,0.060829
772.391680,0.061305
772.689500,0.059459
772.987280,0.063300
773.285020,0.062884
773.582720,0.054730
773.880380,0.054907
774.178000,0.057260
774.475580,0.062960
774.773120,0.059572
775.070620,0.064909
775.368080,0.066800
775.665500,0.060443
775.962880,0.070047
776.260220,0.059892
776.557520,0.063376
776.854780,0.058147
777.152000,0.057029
777.449180,0.063385
777.746320,0.061828
778.043420,0.063438
778.340480,0.059540
778.637500,0.064909
778.934480,0.058507
779.231420,0.056988
779.528320,0.062792
779.825180,0.065217
780.122000,0.060425
780.418780,0.069767
780.715520,0.063716
781.012220,0.063699
781.308880,0.063556
781.605500,0.061644
781.902080,0.060917
782.198620,0.060834
782.495120,0.061043
782.791580,0.063274
783.088000,0.057971
783.384380,0.061898
783.680720,0.062927
783.977020,0.059188
784.273280,0.056643
784.569500,0.055905
784.865680,0.062587
785.161820,0.065972
785.457920,0.058905
785.753980,0.060712
786.050000,0.058702
786.345980,0.065278
786.641920,0.063845
786.937820,0.061966
787.233680,0.061935
787.529500,0.060333
787.825280,0.065864
788.121020,0.056657
788.416720,0.055046
788.712380,0.061354
789.008000,0.060907
789.303580,0.058657
789.599120,0.060364
789.894620,0.063538
790.190080,0.058013
790.485500,0.061915
790.780880,0.058781
791.076220,0.056999
791.371520,0.063181
791.666780,0.067636
791.962000,0.059515
792.257180,0.064422
792.552320,0.065265
792.847420,0.066958
793.142480,0.062271
793.437500,0.059334
793.732480,0.061448
794.027420,0.059347
794.322320,0.060403
794.617180,0.056464
794.912000,0.058692
795.206780,0.062640
795.501520,0.064639
795.796220,0.060000
796.090880,0.061040
796.385500,0.057721
796.680080,0.058340
796.974620,0.064371
797.269120,0.059803
797.563580,0.064885
797.858000,0.066819
798.152380,0.063418
798.446720,0.066923
798.741020,0.064715
799.035280,0.066770
799.329500,0.068514
799.623680,0.060465
