399.985280,0.054054
400.329500,0.094595
400.673680,0.000000
401.017820,-0.014706
401.361920,-0.030303
401.705980,0.073171
402.050000,-0.038961
402.393980,0.058824
402.737920,0.056180
403.081820,0.082474
403.425680,0.011628
403.769500,-0.020833
404.113280,0.000000
404.457020,0.011236
404.800720,0.021739
405.144380,0.080808
405.488000,0.000000
405.831580,0.061856
406.175120,0.021277
406.518620,0.060000
406.862080,0.020619
407.205500,0.052083
407.548880,0.020408
407.892220,0.009804
408.235520,0.031915
408.578780,0.066667
408.922000,0.028846
409.265180,0.030303
409.608320,0.000000
409.951420,0.061856
410.294480,0.098039
410.637500,-0.010870
410.980480,0.029412
411.323420,0.040816
411.666320,0.091743
412.009180,0.072727
412.352000,-0.009901
412.694780,0.036697
413.037520,0.064220
413.380220,0.036036
413.722880,0.017857
414.065500,0.063063
414.408080,0.044248
414.750620,0.044248
415.093120,0.066116
415.435580,0.050420
415.778000,0.060606
416.120380,0.050420
416.462720,0.039683
416.805020,0.037594
417.147280,0.029851
417.489500,0.021429
417.831680,0.047945
418.173820,0.014184
418.515920,0.041958
418.857980,0.050633
419.200000,0.076923
419.541980,0.065089
419.883920,0.044944
420.225820,0.028902
420.567680,0.050279
420.909500,0.049180
421.251280,0.067708
421.593020,0.030612
421.934720,0.030303
422.276380,0.056410
422.618000,0.053922
422.959580,0.044118
423.301120,0.059361
423.642620,0.030435
423.984080,0.037209
424.325500,0.035874
424.666880,0.021552
425.008220,0.033613
425.349520,0.038136
425.690780,0.042308
426.032000,0.047059
426.373180,0.053942
426.714320,0.074219
427.055420,0.046332
427.396480,0.048689
427.737500,0.035573
428.078480,0.047431
428.419420,0.056225
428.760320,0.045977
429.101180,0.059055
429.442000,0.053640
429.782780,0.046154
430.123520,0.050980
430.464220,0.047970
430.804880,0.049808
431.145500,0.029091
431.486080,0.059925
431.826620,0.034884
432.167120,0.044118
432.507580,0.047101
432.848000,0.046763
433.188380,0.036101
433.528720,0.022642
433.869020,0.050000
434.209280,0.045614
434.549500,0.048780
434.889680,0.057239
435.229820,0.037543
435.569920,0.038062
435.909980,0.048544
436.250000,0.050847
436.589980,0.037152
436.929920,0.053968
437.269820,0.050157
437.609680,0.047337
437.949500,0.054217
438.289280,0.042493
438.629020,0.052326
438.968720,0.049419
439.308380,0.035230
439.648000,0.043836
439.987580,0.068783
440.327120,0.050667
440.666620,0.051948
441.006080,0.046036
441.345500,0.041769
441.684880,0.033493
442.024220,0.044665
442.363520,0.040476
442.702780,0.038636
443.042000,0.037445
443.381180,0.056034
443.720320,0.066955
444.059420,0.056723
444.398480,0.041841
444.737500,0.053279
445.076480,0.051587
445.415420,0.047904
445.754320,0.041580
446.093180,0.049541
446.432000,0.045113
446.770780,0.051233
447.109520,0.060662
447.448220,0.051878
447.786880,0.059034
448.125500,0.056897
448.464080,0.050000
448.802620,0.054965
449.141120,0.055363
449.479580,0.050699
449.818000,0.049914
450.156380,0.056856
450.494720,0.054545
450.833020,0.052448
451.171280,0.047945
451.509500,0.062718
451.847680,0.048904
452.185820,0.046472
452.523920,0.063574
452.861980,0.052277
453.200000,0.054817
453.537980,0.053782
453.875920,0.052101
454.213820,0.032534
454.551680,0.056291
454.889500,0.047218
455.227280,0.044484
455.565020,0.055276
455.902720,0.053245
456.240380,0.036606
456.578000,0.050523
456.915580,0.048359
457.253120,0.050987
457.590620,0.052545
457.928080,0.058923
458.265500,0.055743
458.602880,0.053571
458.940220,0.043993
459.277520,0.054400
459.614780,0.057283
459.952000,0.052795
460.289180,0.050633
460.626320,0.048819
460.963420,0.048465
461.300480,0.050459
461.637500,0.046225
461.974480,0.059633
462.311420,0.043219
462.648320,0.039531
462.985180,0.055954
463.322000,0.041667
463.658780,0.048343
463.995520,0.050894
464.332220,0.040166
464.668880,0.063172
465.005500,0.048257
465.342080,0.046095
465.678620,0.059041
466.015120,0.053040
466.351580,0.058154
466.688000,0.047503
467.024380,0.051033
467.360720,0.054545
467.697020,0.053531
468.033280,0.051111
468.369500,0.049669
468.705680,0.051860
469.041820,0.054167
469.377920,0.050976
469.713980,0.048404
470.050000,0.056039
470.385980,0.053816
470.721920,0.047013
471.057820,0.048733
471.393680,0.054256
471.729500,0.050973
472.065280,0.059928
472.401020,0.049645
472.736720,0.051483
473.072380,0.047576
473.408000,0.046997
473.743580,0.051903
474.079120,0.054264
474.414620,0.044953
474.750080,0.050448
475.085500,0.057566
475.420880,0.047460
475.756220,0.049877
476.091520,0.048593
476.426780,0.051780
476.762000,0.046661
477.097180,0.051200
477.432320,0.054120
477.767420,0.052288
478.102480,0.047244
478.437500,0.048440
478.772480,0.051221
479.107420,0.056143
479.442320,0.047162
479.777180,0.050119
480.112000,0.051618
480.446780,0.053001
480.781520,0.047504
481.116220,0.047696
481.450880,0.049180
481.785500,0.051424
482.120080,0.052508
482.454620,0.055167
482.789120,0.052548
483.123580,0.052960
483.458000,0.047468
483.792380,0.055911
484.126720,0.056371
484.461020,0.050742
484.795280,0.052429
485.129500,0.052221
485.463680,0.053488
485.797820,0.051322
486.131920,0.048967
486.465980,0.054826
486.800000,0.049618
487.133980,0.053625
487.467920,0.046672
487.801820,0.055683
488.135680,0.054587
488.469500,0.046899
488.803280,0.052006
489.137020,0.050549
489.470720,0.051187
489.804380,0.051225
490.138000,0.051187
490.471580,0.053795
490.805120,0.051465
491.138620,0.049751
491.472080,0.054417
491.805500,0.057880
492.138880,0.051425
492.472220,0.056055
492.805520,0.048883
493.138780,0.051688
493.472000,0.053512
493.805180,0.055935
494.138320,0.055370
494.471420,0.052734
494.804480,0.054334
495.137500,0.060976
495.470480,0.055449
495.803420,0.052897
496.136320,0.052005
496.469180,0.055862
496.802000,0.050122
497.134780,0.055791
497.467520,0.057492
497.800220,0.054245
498.132880,0.053498
498.465500,0.052723
498.798080,0.049658
499.130620,0.057271
499.463120,0.055587
499.795580,0.054455
500.128000,0.053406
500.460380,0.054898
500.792720,0.050901
501.125020,0.055176
501.457280,0.050653
501.789500,0.054752
502.121680,0.055469
502.453820,0.054564
502.785920,0.052526
503.117980,0.053484
503.450000,0.056755
503.781980,0.055805
504.113920,0.053106
504.445820,0.052990
504.777680,0.050824
505.109500,0.053846
505.441280,0.055449
505.773020,0.052137
506.104720,0.051813
506.436380,0.049692
506.768000,0.056127
507.099580,0.051716
507.431120,0.055269
507.762620,0.051222
508.094080,0.054695
508.425500,0.055089
508.756880,0.051212
509.088220,0.054738
509.419520,0.053538
509.750780,0.053889
510.082000,0.055504
510.413180,0.056195
510.744320,0.053382
511.075420,0.058662
511.406480,0.056417
511.737500,0.055556
512.068480,0.055451
512.399420,0.052582
512.730320,0.054965
513.061180,0.053283
513.392000,0.052532
513.722780,0.052354
514.053520,0.051270
514.384220,0.055186
514.714880,0.056008
515.045500,0.046935
515.376080,0.053753
515.706620,0.055528
516.037120,0.050980
516.367580,0.049778
516.698000,0.050490
517.028380,0.055611
517.358720,0.051358
517.689020,0.058358
518.019280,0.053186
518.349500,0.058287
518.679680,0.053508
519.009820,0.056174
519.339920,0.056613
519.669980,0.054244
520.000000,0.052471
520.329980,0.054432
520.659920,0.058282
520.989820,0.057276
521.319680,0.055556
521.649500,0.055527
521.979280,0.056889
522.309020,0.052386
522.638720,0.050691
522.968380,0.053257
523.298000,0.054802
523.627580,0.057941
523.957120,0.052468
524.286620,0.056279
524.616080,0.058428
524.945500,0.058398
525.274880,0.055413
525.604220,0.054865
525.933520,0.053459
526.262780,0.056260
526.592000,0.053780
526.921180,0.058405
527.250320,0.055302
527.579420,0.055584
527.908480,0.053176
528.237500,0.061072
528.566480,0.058383
528.895420,0.055692
529.224320,0.057949
529.553180,0.057831
529.882000,0.057908
530.210780,0.053089
530.539520,0.055129
530.868220,0.056008
531.196880,0.054945
531.525500,0.060048
531.854080,0.054878
532.182620,0.057917
532.511120,0.053828
532.839580,0.053085
533.168000,0.056974
533.496380,0.057078
533.824720,0.056528
534.153020,0.057512
534.481280,0.057269
534.809500,0.056288
535.137680,0.056424
535.465820,0.054983
535.793920,0.058376
536.121980,0.058330
536.450000,0.056660
536.777980,0.060746
537.105920,0.058115
537.433820,0.057692
537.761680,0.057959
538.089500,0.055848
538.417280,0.056108
538.745020,0.057845
539.072720,0.058571
539.400380,0.058664
539.728000,0.061568
540.055580,0.057303
540.383120,0.059196
540.710620,0.058036
541.038080,0.057543
541.365500,0.054412
541.692880,0.056686
542.020220,0.059734
542.347520,0.057789
542.674780,0.052576
543.002000,0.054584
543.329180,0.058927
543.656320,0.059072
543.983420,0.055726
544.310480,0.058444
544.637500,0.058001
544.964480,0.055855
545.291420,0.056497
545.618320,0.057105
545.945180,0.053395
546.272000,0.057339
546.598780,0.056375
546.925520,0.057039
547.252220,0.056454
547.578880,0.057999
547.905500,0.058170
548.232080,0.056855
548.558620,0.055971
548.885120,0.055610
549.211580,0.060431
549.538000,0.058042
549.864380,0.057878
550.190720,0.055215
550.517020,0.058344
550.843280,0.058632
551.169500,0.059478
551.495680,0.059133
551.821820,0.059112
552.147920,0.057254
552.473980,0.055318
552.800000,0.055919
553.125980,0.057302
553.451920,0.055408
553.777820,0.055963
554.103680,0.054601
554.429500,0.054235
554.755280,0.055407
555.081020,0.058155
555.406720,0.056891
555.732380,0.055236
556.058000,0.056008
556.383580,0.055803
556.709120,0.056857
557.034620,0.057182
557.360080,0.056995
557.685500,0.058437
558.010880,0.054419
558.336220,0.055185
558.661520,0.058135
558.986780,0.059178
559.312000,0.057336
559.637180,0.056732
559.962320,0.059452
560.287420,0.057475
560.612480,0.053463
560.937500,0.055433
561.262480,0.055718
561.587420,0.058034
561.912320,0.059322
562.237180,0.057365
562.562000,0.057613
562.886780,0.057228
563.211520,0.052161
563.536220,0.059369
563.860880,0.056960
564.185500,0.058537
564.510080,0.057938
564.834620,0.057313
565.159120,0.054887
565.483580,0.059673
565.808000,0.056375
566.132380,0.059679
566.456720,0.060091
566.781020,0.055514
567.105280,0.054064
567.429500,0.057663
567.753680,0.059072
568.077820,0.057596
568.401920,0.060351
568.725980,0.063378
569.050000,0.059696
569.373980,0.060906
569.697920,0.057262
570.021820,0.056929
570.345680,0.060084
570.669500,0.059901
570.993280,0.060170
571.317020,0.058824
571.640720,0.058170
571.964380,0.060876
572.288000,0.058976
572.611580,0.058779
572.935120,0.060606
573.258620,0.059835
573.582080,0.057377
573.905500,0.058079
574.228880,0.058278
574.552220,0.060095
574.875520,0.059196
575.198780,0.057102
575.522000,0.056452
575.845180,0.055516
576.168320,0.056414
576.491420,0.060683
576.814480,0.057866
577.137500,0.059163
577.460480,0.059804
577.783420,0.056806
578.106320,0.059117
578.429180,0.059385
578.752000,0.053143
579.074780,0.058328
579.397520,0.059070
579.720220,0.056306
580.042880,0.059134
580.365500,0.056916
580.688080,0.058005
581.010620,0.060749
581.333120,0.061122
581.655580,0.059274
581.978000,0.059860
582.300380,0.059396
582.622720,0.060316
582.945020,0.059818
583.267280,0.060241
583.589500,0.058427
583.911680,0.059066
584.233820,0.058231
584.555920,0.060511
584.877980,0.059673
585.200000,0.062001
585.521980,0.059314
585.843920,0.059793
586.165820,0.055454
586.487680,0.059585
586.809500,0.057006
587.131280,0.057971
587.453020,0.061012
587.774720,0.057363
588.096380,0.058051
588.418000,0.059409
588.739580,0.061224
589.061120,0.060667
589.382620,0.059885
589.704080,0.061150
590.025500,0.060788
590.346880,0.057055
590.668220,0.060487
590.989520,0.057682
591.310780,0.060757
591.632000,0.061475
591.953180,0.061445
592.274320,0.057330
592.595420,0.059537
592.916480,0.060038
593.237500,0.060631
593.558480,0.057842
593.879420,0.059617
594.200320,0.059470
594.521180,0.062151
594.842000,0.062332
595.162780,0.061165
595.483520,0.058229
595.804220,0.059076
596.124880,0.059419
596.445500,0.058423
596.766080,0.059425
597.086620,0.057325
597.407120,0.061875
597.727580,0.060461
598.048000,0.059773
598.368380,0.059968
598.688720,0.059502
599.009020,0.059448
599.329280,0.059340
599.649500,0.058373
599.969680,0.059028
600.289820,0.059028
600.609920,0.061448
600.929980,0.061464
601.250000,0.059189
601.569980,0.059141
601.889920,0.060144
602.209820,0.058712
602.529680,0.060423
602.849500,0.059465
603.169280,0.059245
603.489020,0.058677
603.808720,0.058694
604.128380,0.060430
604.448000,0.057459
604.767580,0.055307
605.087120,0.059003
605.406620,0.061013
605.726080,0.061306
606.045500,0.060184
606.364880,0.061242
606.684220,0.060537
607.003520,0.059346
607.322780,0.059125
607.642000,0.058874
607.961180,0.059266
608.280320,0.058875
608.599420,0.056489
608.918480,0.059531
609.237500,0.060446
609.556480,0.060669
609.875420,0.058771
610.194320,0.057868
610.513180,0.059781
610.832000,0.059261
611.150780,0.058276
611.469520,0.060030
611.788220,0.058948
612.106880,0.061821
612.425500,0.057247
612.744080,0.058787
613.062620,0.059939
613.381120,0.057892
613.699580,0.061312
614.018000,0.061425
614.336380,0.059223
614.654720,0.056124
614.973020,0.061092
615.291280,0.061357
615.609500,0.058954
615.927680,0.059951
616.245820,0.059060
616.563920,0.059061
616.881980,0.060804
617.200000,0.061586
617.517980,0.058805
617.835920,0.058403
618.153820,0.062170
618.471680,0.059845
618.789500,0.057269
619.107280,0.060094
619.425020,0.060260
619.742720,0.058067
620.060380,0.060483
620.378000,0.060415
620.695580,0.060026
621.013120,0.057323
621.330620,0.060245
621.648080,0.060252
621.965500,0.059598
622.282880,0.059899
622.600220,0.059381
622.917520,0.061752
623.234780,0.058824
623.552000,0.061108
623.869180,0.058935
624.186320,0.061445
624.503420,0.060815
624.820480,0.059064
625.137500,0.062835
625.454480,0.060644
625.771420,0.059899
626.088320,0.059269
626.405180,0.060050
626.722000,0.059285
627.038780,0.059524
627.355520,0.060625
627.672220,0.063142
627.988880,0.060964
628.305500,0.058897
628.622080,0.063197
628.938620,0.061162
629.255120,0.060983
629.571580,0.058842
629.888000,0.059527
630.204380,0.059834
630.520720,0.058806
630.837020,0.060130
631.153280,0.059652
631.469500,0.060036
631.785680,0.059976
632.101820,0.060615
632.417920,0.062295
632.733980,0.054922
633.050000,0.061856
633.365980,0.059573
633.681920,0.058473
633.997820,0.060371
634.313680,0.062518
634.629500,0.062518
634.945280,0.060411
635.261020,0.062812
635.576720,0.058133
635.892380,0.060412
636.208000,0.060721
636.523580,0.060509
636.839120,0.061378
637.154620,0.062029
637.470080,0.061406
637.785500,0.064478
638.100880,0.057052
638.416220,0.061835
638.731520,0.061605
639.046780,0.060588
639.362000,0.058773
639.677180,0.059395
639.992320,0.060897
640.307420,0.061534
640.622480,0.060487
640.937500,0.060472
641.252480,0.061994
641.567420,0.058539
641.882320,0.060134
642.197180,0.062044
642.512000,0.059894
642.826780,0.059639
643.141520,0.060295
643.456220,0.060044
643.770880,0.063847
644.085500,0.059810
644.400080,0.060955
644.714620,0.060479
645.029120,0.060781
645.343580,0.060340
645.658000,0.059950
645.972380,0.061935
646.286720,0.059689
646.601020,0.062552
646.915280,0.060049
647.229500,0.060440
647.543680,0.060204
647.857820,0.061932
648.171920,0.063483
648.485980,0.059194
648.800000,0.059245
649.113980,0.060698
649.427920,0.061859
649.741820,0.060181
650.055680,0.060889
650.369500,0.061379
650.683280,0.059378
650.997020,0.059131
651.310720,0.060539
651.624380,0.060165
651.938000,0.062050
652.251580,0.061230
652.565120,0.059530
652.878620,0.060529
653.192080,0.061236
653.505500,0.059187
653.818880,0.060279
654.132220,0.061521
654.445520,0.060692
654.758780,0.060340
655.072000,0.059312
655.385180,0.059629
655.698320,0.061446
656.011420,0.060189
656.324480,0.060041
656.637500,0.059965
656.950480,0.059894
657.263420,0.060597
657.576320,0.059294
657.889180,0.062224
658.202000,0.060085
658.514780,0.058946
658.827520,0.058223
659.140220,0.056937
659.452880,0.060103
659.765500,0.059001
660.078080,0.059585
660.390620,0.058662
660.703120,0.062023
661.015580,0.060429
661.328000,0.062972
661.640380,0.062131
661.952720,0.063220
662.265020,0.061122
662.577280,0.063613
662.889500,0.060864
663.201680,0.061583
663.513820,0.060791
663.825920,0.059878
664.137980,0.062379
664.450000,0.061701
664.761980,0.060556
665.073920,0.060370
665.385820,0.060537
665.697680,0.059174
666.009500,0.060858
666.321280,0.060636
666.633020,0.060173
666.944720,0.059993
667.256380,0.059892
667.568000,0.059103
667.879580,0.060884
668.191120,0.058723
668.502620,0.062992
668.814080,0.062105
669.125500,0.059870
669.436880,0.061203
669.748220,0.058498
670.059520,0.061625
670.370780,0.062978
670.682000,0.060531
670.993180,0.061311
671.304320,0.058368
671.615420,0.057173
671.926480,0.062101
672.237500,0.058235
672.548480,0.059972
672.859420,0.060043
673.170320,0.062387
673.481180,0.060463
673.792000,0.059502
674.102780,0.061759
674.413520,0.059789
674.724220,0.057713
675.034880,0.059773
675.345500,0.058716
675.656080,0.060617
675.966620,0.061477
676.277120,0.061516
676.587580,0.060383
676.898000,0.060097
677.208380,0.059889
677.518720,0.059810
677.829020,0.058758
678.139280,0.056338
678.449500,0.061641
678.759680,0.061072
679.069820,0.060967
679.379920,0.061863
679.689980,0.059785
680.000000,0.060561
680.309980,0.058278
680.619920,0.058311
680.929820,0.061590
681.239680,0.060931
681.549500,0.061111
681.859280,0.061613
682.169020,0.061544
682.478720,0.063949
682.788380,0.058693
683.098000,0.063575
683.407580,0.060038
683.717120,0.062312
684.026620,0.060617
684.336080,0.061766
684.645500,0.059858
684.954880,0.060446
685.264220,0.061155
685.573520,0.062809
685.882780,0.062908
686.192000,0.063582
686.501180,0.060159
686.810320,0.062260
687.119420,0.060053
687.428480,0.059248
687.737500,0.059094
688.046480,0.059816
688.355420,0.060732
688.664320,0.059296
688.973180,0.061639
689.282000,0.058256
689.590780,0.057132
689.899520,0.058488
690.208220,0.061544
690.516880,0.062619
690.825500,0.064528
691.134080,0.059605
691.442620,0.059451
691.751120,0.062571
692.059580,0.060757
692.368000,0.055661
692.676380,0.059160
692.984720,0.059924
693.293020,0.060410
693.601280,0.061427
693.909500,0.057889
694.217680,0.060548
694.525820,0.060929
694.833920,0.059901
695.141980,0.061319
695.450000,0.059924
695.757980,0.060351
696.065920,0.060583
696.373820,0.056582
696.681680,0.063675
696.989500,0.063682
697.297280,0.061066
697.605020,0.061508
697.912720,0.063028
698.220380,0.061787
698.528000,0.066456
698.835580,0.061636
699.143120,0.061964
699.450620,0.063644
699.758080,0.063137
700.065500,0.065842
700.372880,0.060000
700.680220,0.063024
700.987520,0.063095
701.294780,0.061638
701.602000,0.060618
701.909180,0.058426
702.216320,0.061009
702.523420,0.061168
702.830480,0.061782
703.137500,0.061574
703.444480,0.066667
703.751420,0.061144
704.058320,0.060942
704.365180,0.063486
704.672000,0.061782
704.978780,0.059696
705.285520,0.059468
705.592220,0.058824
705.898880,0.063830
706.205500,0.063380
706.512080,0.060032
706.818620,0.060759
707.125120,0.062692
707.431580,0.059398
707.738000,0.066016
708.044380,0.056735
708.350720,0.060374
708.657020,0.062134
708.963280,0.063276
709.269500,0.061448
709.575680,0.063654
709.881820,0.060535
710.187920,0.061479
710.493980,0.062064
710.800000,0.063692
711.105980,0.061370
711.411920,0.057548
711.717820,0.060039
712.023680,0.059075
712.329500,0.064669
712.635280,0.064729
712.941020,0.061461
713.246720,0.059684
713.552380,0.061224
713.858000,0.060307
714.163580,0.060379
714.469120,0.060571
714.774620,0.063956
715.080080,0.062819
715.385500,0.062750
715.690880,0.057988
715.996220,0.058241
716.301520,0.066008
716.606780,0.062500
716.912000,0.060582
717.217180,0.061453
717.522320,0.059642
717.827420,0.061025
718.132480,0.059012
718.437500,0.058296
718.742480,0.060887
719.047420,0.060680
719.352320,0.063097
719.657180,0.062960
719.962000,0.067825
720.266780,0.062734
720.571520,0.057581
720.876220,0.062193
721.180880,0.063545
721.485500,0.061011
721.790080,0.059023
722.094620,0.064322
722.399120,0.058595
722.703580,0.062152
723.008000,0.061665
723.312380,0.059836
723.616720,0.061623
723.921020,0.061498
724.225280,0.059337
724.529500,0.062609
724.833680,0.064057
725.137820,0.062555
725.441920,0.061971
725.745980,0.063982
726.050000,0.062246
726.353980,0.061289
726.657920,0.061179
726.961820,0.061187
727.265680,0.061026
727.569500,0.062157
727.873280,0.059122
728.177020,0.064947
728.480720,0.062500
728.784380,0.065289
729.088000,0.061234
729.391580,0.060161
729.695120,0.060461
729.998620,0.062141
730.302080,0.062470
730.605500,0.060650
730.908880,0.060755
731.212220,0.064643
731.515520,0.060946
731.818780,0.059223
732.122000,0.062992
732.425180,0.061114
732.728320,0.060486
733.031420,0.056140
733.334480,0.056633
733.637500,0.056956
733.940480,0.063460
734.243420,0.063201
734.546320,0.059129
734.849180,0.062500
735.152000,0.062759
735.454780,0.059401
735.757520,0.057956
736.060220,0.059505
736.362880,0.061975
736.665500,0.057441
736.968080,0.056421
737.270620,0.065868
737.573120,0.060590
737.875580,0.063222
738.178000,0.062058
738.480380,0.060000
738.782720,0.061614
739.085020,0.060022
739.387280,0.061530
739.689500,0.058890
739.991680,0.060640
740.293820,0.060807
740.595920,0.061770
740.897980,0.062112
741.200000,0.066181
741.501980,0.064183
741.803920,0.063626
742.105820,0.062042
742.407680,0.062318
742.709500,0.060795
743.011280,0.056272
743.313020,0.060870
743.614720,0.059779
743.916380,0.052907
744.218000,0.063842
744.519580,0.060990
744.821120,0.064072
745.122620,0.058119
745.424080,0.058894
745.725500,0.060350
746.026880,0.061576
746.328220,0.062269
746.629520,0.062613
746.930780,0.066176
747.232000,0.062538
747.533180,0.064674
747.834320,0.059647
748.135420,0.063393
748.436480,0.063631
748.737500,0.059914
749.038480,0.059866
749.339420,0.065961
749.640320,0.060968
749.941180,0.063710
750.242000,0.060302
750.542780,0.058933
750.843520,0.060858
751.144220,0.058974
751.444880,0.068484
751.745500,0.055844
752.046080,0.065427
752.346620,0.061211
752.647120,0.065317
752.947580,0.065330
753.248000,0.059317
753.548380,0.062459
753.848720,0.063748
754.149020,0.057382
754.449280,0.062377
754.749500,0.063703
755.049680,0.060667
755.349820,0.061374
755.649920,0.065433
755.949980,0.058394
756.250000,0.063116
756.549980,0.056766
756.849920,0.063222
757.149820,0.060546
757.449680,0.065347
757.749500,0.060668
758.049280,0.062799
758.349020,0.060501
758.648720,0.069013
758.948380,0.065292
759.248000,0.061995
759.547580,0.061870
759.847120,0.058580
760.146620,0.058187
760.446080,0.064516
760.745500,0.060140
761.044880,0.054687
761.344220,0.060584
761.643520,0.063559
761.942780,0.063681
762.242000,0.065771
762.541180,0.060563
762.840320,0.062500
763.139420,0.062588
763.438480,0.059467
763.737500,0.060648
764.036480,0.064990
764.335420,0.059280
764.634320,0.057519
764.933180,0.067808
765.232000,0.063151
765.530780,0.063158
765.829520,0.065035
766.128220,0.066806
766.426880,0.065387
766.725500,0.061686
767.024080,0.058299
767.322620,0.060166
767.621120,0.064363
767.919580,0.059386
768.218000,0.062244
768.516380,0.062880
768.814720,0.058985
769.113020,0.064094
769.411280,0.060773
769.709500,0.059540
770.007680,0.056578
770.305820,0.066937
770.603920,0.059299
770.901980,0.061475
771.200000,0.059103
771.497980,0.060322
771.795920,0.060201
772.093820,0.067513
772.391680,0.063942
772.689500,0.057432
772.987280,0.059259
773.285020,0.060150
773.582720,0.059459
773.880380,0.056280
774.178000,0.059305
774.475580,0.065640
774.773120,0.058902
775.070620,0.062204
775.368080,0.067468
775.665500,0.061115
775.962880,0.063376
776.260220,0.061238
776.557520,0.062041
776.854780,0.057471
777.152000,0.060345
777.449180,0.062036
777.746320,0.057796
778.043420,0.067531
778.340480,0.059540
778.637500,0.060852
778.934480,0.063215
779.231420,0.059701
779.528320,0.060120
779.825180,0.061265
780.122000,0.064409
780.418780,0.059508
780.715520,0.065728
781.012220,0.063699
781.308880,0.061528
781.605500,0.059589
781.902080,0.067077
782.198620,0.059467
782.495120,0.062414
782.791580,0.061898
783.088000,0.062112
783.384380,0.063274
783.680720,0.062244
783.977020,0.060564
784.273280,0.062937
784.569500,0.056604
784.865680,0.062587
785.161820,0.058333
785.457920,0.056133
785.753980,0.061410
786.050000,0.055939
786.345980,0.066667
786.641920,0.057599
786.937820,0.063390
787.233680,0.060543
787.529500,0.067961
787.825280,0.065156
788.121020,0.057365
788.416720,0.058574
788.712380,0.065585
789.008000,0.058074
789.303580,0.062191
789.599120,0.061818
789.894620,0.062816
790.190080,0.060914
790.485500,0.053996
790.780880,0.064516
791.076220,0.059885
791.371520,0.063181
791.666780,0.066182
791.962000,0.060985
792.257180,0.060029
792.552320,0.065990
792.847420,0.063319
793.142480,0.067399
793.437500,0.060781
793.732480,0.062911
794.027420,0.060089
794.322320,0.061894
794.617180,0.060921
794.912000,0.060178
795.206780,0.057420
795.501520,0.060076
795.796220,0.057037
796.090880,0.063301
796.385500,0.064468
796.680080,0.060583
796.974620,0.062874
797.269120,0.062831
797.563580,0.062595
797.858000,0.063022
798.152380,0.064192
798.446720,0.060000
798.741020,0.060863
799.035280,0.066770
799.329500,0.062356
799.623680,0.062016
