399.985280,0.108108
400.329500,0.000000
400.673680,0.000000
401.017820,0.000000
401.361920,0.015152
401.705980,-0.012195
402.050000,-0.025974
402.393980,0.070588
402.737920,0.022472
403.081820,0.051546
403.425680,0.023256
403.769500,0.010417
404.113280,0.022989
404.457020,0.089888
404.800720,-0.043478
405.144380,0.070707
405.488000,0.064516
405.831580,0.123711
406.175120,-0.010638
406.518620,0.010000
406.862080,0.092784
407.205500,0.020833
407.548880,0.030612
407.892220,0.029412
408.235520,0.031915
408.578780,0.057143
408.922000,-0.009615
409.265180,0.030303
409.608320,0.010101
409.951420,0.041237
410.294480,0.088235
410.637500,0.032609
410.980480,0.068627
411.323420,0.040816
411.666320,0.073394
412.009180,0.063636
412.352000,0.009901
412.694780,0.045872
413.037520,-0.009174
413.380220,0.081081
413.722880,0.053571
414.065500,0.072072
414.408080,0.044248
414.750620,0.017699
415.093120,0.016529
415.435580,0.050420
415.778000,0.083333
416.120380,0.042017
416.462720,0.031746
416.805020,0.022556
417.147280,0.014925
417.489500,0.050000
417.831680,0.061644
418.173820,0.042553
418.515920,0.055944
418.857980,0.056962
419.200000,0.051282
419.541980,0.047337
419.883920,0.061798
420.225820,0.057803
420.567680,0.055866
420.909500,0.071038
421.251280,0.072917
421.593020,0.091837
421.934720,0.035354
422.276380,0.041026
422.618000,0.068627
422.959580,0.078431
423.301120,0.041096
423.642620,0.056522
423.984080,0.046512
424.325500,0.035874
424.666880,0.056034
425.008220,0.042017
425.349520,0.046610
425.690780,0.053846
426.032000,0.035294
426.373180,0.062241
426.714320,0.054687
427.055420,0.061776
427.396480,0.048689
427.737500,0.027668
428.078480,0.055336
428.419420,0.052209
428.760320,0.022989
429.101180,0.047244
429.442000,0.057471
429.782780,0.046154
430.123520,0.035294
430.464220,0.047970
430.804880,0.076628
431.145500,0.032727
431.486080,0.044944
431.826620,0.058140
432.167120,0.036765
432.507580,0.057971
432.848000,0.046763
433.188380,0.057762
433.528720,0.045283
433.869020,0.046429
434.209280,0.049123
434.549500,0.041812
434.889680,0.063973
435.229820,0.054608
435.569920,0.024221
435.909980,0.019417
436.250000,0.061017
436.589980,0.043344
436.929920,0.044444
437.269820,0.037618
437.609680,0.059172
437.949500,0.045181
438.289280,0.056657
438.629020,0.063953
438.968720,0.046512
439.308380,0.035230
439.648000,0.038356
439.987580,0.047619
440.327120,0.042667
440.666620,0.057143
441.006080,0.046036
441.345500,0.039312
441.684880,0.038278
442.024220,0.049628
442.363520,0.052381
442.702780,0.043182
443.042000,0.039648
443.381180,0.049569
443.720320,0.062635
444.059420,0.050420
444.398480,0.048117
444.737500,0.055328
445.076480,0.057540
445.415420,0.055888
445.754320,0.049896
446.093180,0.049541
446.432000,0.046992
446.770780,0.049336
447.109520,0.058824
447.448220,0.064401
447.786880,0.057245
448.125500,0.053448
448.464080,0.042857
448.802620,0.046099
449.141120,0.053633
449.479580,0.055944
449.818000,0.056799
450.156380,0.050167
450.494720,0.052893
450.833020,0.047203
451.171280,0.037671
451.509500,0.048780
451.847680,0.048904
452.185820,0.053356
452.523920,0.061856
452.861980,0.043845
453.200000,0.061462
453.537980,0.047059
453.875920,0.053782
454.213820,0.046233
454.551680,0.054636
454.889500,0.057336
455.227280,0.039146
455.565020,0.063652
455.902720,0.063228
456.240380,0.038270
456.578000,0.054007
456.915580,0.053541
457.253120,0.055921
457.590620,0.055829
457.928080,0.047138
458.265500,0.054054
458.602880,0.050325
458.940220,0.049069
459.277520,0.048000
459.614780,0.055646
459.952000,0.051242
460.289180,0.049051
460.626320,0.044094
460.963420,0.058158
461.300480,0.047401
461.637500,0.050847
461.974480,0.047401
462.311420,0.059613
462.648320,0.052709
462.985180,0.037303
463.322000,0.044643
463.658780,0.049724
463.995520,0.052270
464.332220,0.049861
464.668880,0.049731
465.005500,0.045576
465.342080,0.052497
465.678620,0.051661
466.015120,0.045278
466.351580,0.061947
466.688000,0.058465
467.024380,0.052248
467.360720,0.045455
467.697020,0.052392
468.033280,0.051111
468.369500,0.050773
468.705680,0.056370
469.041820,0.058333
469.377920,0.055315
469.713980,0.050463
470.050000,0.057971
470.385980,0.053816
470.721920,0.048972
471.057820,0.054581
471.393680,0.052385
471.729500,0.046339
472.065280,0.054562
472.401020,0.051418
472.736720,0.048866
473.072380,0.052065
473.408000,0.051349
473.743580,0.045848
474.079120,0.053402
474.414620,0.049194
474.750080,0.051261
475.085500,0.052632
475.420880,0.047460
475.756220,0.051513
476.091520,0.051151
476.426780,0.056634
476.762000,0.048270
477.097180,0.054400
477.432320,0.051696
477.767420,0.046569
478.102480,0.051969
478.437500,0.054187
478.772480,0.052797
479.107420,0.050448
479.442320,0.043965
479.777180,0.046142
480.112000,0.053159
480.446780,0.046765
480.781520,0.049919
481.116220,0.049313
481.450880,0.052303
481.785500,0.053797
482.120080,0.048589
482.454620,0.054390
482.789120,0.052548
483.123580,0.050623
483.458000,0.046677
483.792380,0.049521
484.126720,0.054054
484.461020,0.057767
484.795280,0.053971
485.129500,0.055339
485.463680,0.052713
485.797820,0.053655
486.131920,0.051262
486.465980,0.054054
486.800000,0.053435
487.133980,0.049094
487.467920,0.047437
487.801820,0.051869
488.135680,0.055345
488.469500,0.049924
488.803280,0.054978
489.137020,0.046886
489.470720,0.054154
489.804380,0.055679
490.138000,0.054154
490.471580,0.056006
490.805120,0.052180
491.138620,0.051173
491.472080,0.055124
491.805500,0.051604
492.138880,0.057679
492.472220,0.051903
492.805520,0.053073
493.138780,0.055824
493.472000,0.054181
493.805180,0.055252
494.138320,0.053369
494.471420,0.055339
494.804480,0.051746
495.137500,0.057766
495.470480,0.052900
495.803420,0.051008
496.136320,0.055764
496.469180,0.052793
496.802000,0.050122
497.134780,0.055185
497.467520,0.056881
497.800220,0.050118
498.132880,0.052910
498.465500,0.052723
498.798080,0.054795
499.130620,0.055025
499.463120,0.055587
499.795580,0.052255
500.128000,0.053406
500.460380,0.054360
500.792720,0.053022
501.125020,0.050972
501.457280,0.054308
501.789500,0.051136
502.121680,0.058580
502.453820,0.052524
502.785920,0.050025
503.117980,0.055937
503.450000,0.053742
503.781980,0.054808
504.113920,0.053580
504.445820,0.050073
504.777680,0.052235
505.109500,0.056250
505.441280,0.052581
505.773020,0.054016
506.104720,0.048987
506.436380,0.057265
506.768000,0.053789
507.099580,0.051259
507.431120,0.052927
507.762620,0.054041
508.094080,0.055150
508.425500,0.056956
508.756880,0.053498
509.088220,0.053818
509.419520,0.054004
509.750780,0.049203
510.082000,0.054571
510.413180,0.054813
510.744320,0.053382
511.075420,0.053621
511.406480,0.053597
511.737500,0.050926
512.068480,0.051222
512.399420,0.053052
512.730320,0.053118
513.061180,0.052331
513.392000,0.052059
513.722780,0.054275
514.053520,0.054624
514.384220,0.053758
514.714880,0.056965
515.045500,0.047893
515.376080,0.053269
515.706620,0.055528
516.037120,0.050980
516.367580,0.053721
516.698000,0.054412
517.028380,0.050645
517.358720,0.053333
517.689020,0.059347
518.019280,0.054190
518.349500,0.054739
518.679680,0.055528
519.009820,0.052126
519.339920,0.060621
519.669980,0.053240
520.000000,0.050942
520.329980,0.053396
520.659920,0.058282
520.989820,0.056760
521.319680,0.056070
521.649500,0.056041
521.979280,0.055846
522.309020,0.048237
522.638720,0.051203
522.968380,0.056877
523.298000,0.056367
523.627580,0.050698
523.957120,0.054026
524.286620,0.055758
524.616080,0.053775
524.945500,0.053230
525.274880,0.061057
525.604220,0.052277
525.933520,0.058176
526.262780,0.056766
526.592000,0.054287
526.921180,0.054850
527.250320,0.056824
527.579420,0.056594
527.908480,0.055638
528.237500,0.061072
528.566480,0.057884
528.895420,0.059142
529.224320,0.059931
529.553180,0.055422
529.882000,0.055474
530.210780,0.056950
530.539520,0.055129
530.868220,0.057922
531.196880,0.056856
531.525500,0.061017
531.854080,0.055816
532.182620,0.056983
532.511120,0.054292
532.839580,0.059437
533.168000,0.056974
533.496380,0.058447
533.824720,0.055630
534.153020,0.054837
534.481280,0.056388
534.809500,0.056288
535.137680,0.059028
535.465820,0.054983
535.793920,0.055415
536.121980,0.054133
536.450000,0.057928
536.777980,0.058651
537.105920,0.058115
537.433820,0.059329
537.761680,0.057143
538.089500,0.053824
538.417280,0.054914
538.745020,0.057845
539.072720,0.054276
539.400380,0.055556
539.728000,0.057361
540.055580,0.055805
540.383120,0.058824
540.710620,0.056920
541.038080,0.060125
541.365500,0.058824
541.692880,0.057413
542.020220,0.057935
542.347520,0.057789
542.674780,0.058574
543.002000,0.058432
543.329180,0.058927
543.656320,0.059775
543.983420,0.056752
544.310480,0.057085
544.637500,0.055954
544.964480,0.056864
545.291420,0.057827
545.618320,0.058433
545.945180,0.058998
546.272000,0.054718
546.598780,0.056047
546.925520,0.054072
547.252220,0.054473
547.578880,0.057022
547.905500,0.054902
548.232080,0.057180
548.558620,0.057598
548.885120,0.054956
549.211580,0.054966
549.538000,0.055123
549.864380,0.056270
550.190720,0.056829
550.517020,0.057366
550.843280,0.057980
551.169500,0.057888
551.495680,0.060775
551.821820,0.061071
552.147920,0.058556
552.473980,0.055647
552.800000,0.056900
553.125980,0.056647
553.451920,0.056403
553.777820,0.054963
554.103680,0.055949
554.429500,0.055574
554.755280,0.056409
555.081020,0.055481
555.406720,0.054521
555.732380,0.055574
556.058000,0.056687
556.383580,0.056488
556.709120,0.060303
557.034620,0.058560
557.360080,0.056995
557.685500,0.060858
558.010880,0.055806
558.336220,0.055185
558.661520,0.058490
558.986780,0.060241
559.312000,0.058761
559.637180,0.056373
559.962320,0.057672
560.287420,0.057123
560.612480,0.057768
560.937500,0.056167
561.262480,0.055718
561.587420,0.056583
561.912320,0.056006
562.237180,0.059215
562.562000,0.058361
562.886780,0.055370
563.211520,0.056632
563.536220,0.060111
563.860880,0.059223
564.185500,0.057786
564.510080,0.057938
564.834620,0.060290
565.159120,0.056767
565.483580,0.056632
565.808000,0.057510
566.132380,0.055949
566.456720,0.059335
566.781020,0.056264
567.105280,0.056333
567.429500,0.060319
567.753680,0.057921
568.077820,0.060302
568.401920,0.060733
568.725980,0.060721
569.050000,0.060076
569.373980,0.062809
569.697920,0.056504
570.021820,0.056929
570.345680,0.056257
570.669500,0.056467
570.993280,0.060170
571.317020,0.057727
571.640720,0.060022
571.964380,0.057535
572.288000,0.063798
572.611580,0.058405
572.935120,0.061728
573.258620,0.060209
573.582080,0.057004
573.905500,0.055845
574.228880,0.060134
574.552220,0.058263
574.875520,0.057334
575.198780,0.058186
575.522000,0.058284
575.845180,0.059456
576.168320,0.058211
576.491420,0.059956
576.814480,0.057143
577.137500,0.059885
577.460480,0.057992
577.783420,0.059307
578.106320,0.059829
578.429180,0.061152
578.752000,0.056964
579.074780,0.059676
579.397520,0.061653
579.720220,0.060811
580.042880,0.058474
580.365500,0.058901
580.688080,0.058684
581.010620,0.058724
581.333120,0.060120
581.655580,0.059940
581.978000,0.055205
582.300380,0.061344
582.622720,0.059328
582.945020,0.061118
583.267280,0.058287
583.589500,0.059069
583.911680,0.058431
584.233820,0.058231
584.555920,0.061771
584.877980,0.058731
585.200000,0.059546
585.521980,0.059314
585.843920,0.058877
586.165820,0.057282
586.487680,0.057779
586.809500,0.057306
587.131280,0.058563
587.453020,0.058929
587.774720,0.058841
588.096380,0.058635
588.418000,0.058238
588.739580,0.061224
589.061120,0.060092
589.382620,0.058739
589.704080,0.058626
590.025500,0.059646
590.346880,0.059022
590.668220,0.057407
590.989520,0.057127
591.310780,0.059376
591.632000,0.062295
591.953180,0.057847
592.274320,0.060060
592.595420,0.057920
592.916480,0.060853
593.237500,0.059553
593.558480,0.059995
593.879420,0.057729
594.200320,0.061881
594.521180,0.060292
594.842000,0.062063
595.162780,0.057692
595.483520,0.055836
595.804220,0.059076
596.124880,0.059153
596.445500,0.057113
596.766080,0.063458
597.086620,0.059713
597.407120,0.059242
597.727580,0.057810
598.048000,0.060566
598.368380,0.058916
598.688720,0.057667
599.009020,0.059979
599.329280,0.060937
599.649500,0.061543
599.969680,0.057692
600.289820,0.060363
600.609920,0.059311
600.929980,0.057723
601.250000,0.057838
601.569980,0.056711
601.889920,0.062550
602.209820,0.057630
602.529680,0.057951
602.849500,0.060829
603.169280,0.058969
603.489020,0.057293
603.808720,0.059243
604.128380,0.060706
604.448000,0.059116
604.767580,0.060056
605.087120,0.060388
605.406620,0.059894
605.726080,0.060165
606.045500,0.058512
606.364880,0.060108
606.684220,0.060822
607.003520,0.059633
607.322780,0.057419
607.642000,0.060310
607.961180,0.057242
608.280320,0.058005
608.599420,0.057068
608.918480,0.060117
609.237500,0.059859
609.556480,0.061261
609.875420,0.059953
610.194320,0.060821
610.513180,0.061261
610.832000,0.059261
611.150780,0.060378
611.469520,0.060332
611.788220,0.058646
612.106880,0.059409
612.425500,0.061206
612.744080,0.060942
613.062620,0.059939
613.381120,0.057282
613.699580,0.058553
614.018000,0.058661
614.336380,0.060457
614.654720,0.058915
614.973020,0.058624
615.291280,0.059188
615.609500,0.059588
615.927680,0.058714
616.245820,0.060297
616.563920,0.057818
616.881980,0.059245
617.200000,0.058787
617.517980,0.056316
617.835920,0.060267
618.153820,0.059372
618.471680,0.060465
618.789500,0.061359
619.107280,0.060094
619.425020,0.059309
619.742720,0.060264
620.060380,0.060796
620.378000,0.059157
620.695580,0.061622
621.013120,0.058268
621.330620,0.059931
621.648080,0.059937
621.965500,0.058657
622.282880,0.059269
622.600220,0.063171
622.917520,0.060491
623.234780,0.059466
623.552000,0.061108
623.869180,0.058935
624.186320,0.062401
624.503420,0.062069
624.820480,0.059064
625.137500,0.061257
625.454480,0.058456
625.771420,0.061160
626.088320,0.060214
626.405180,0.059428
626.722000,0.061481
627.038780,0.059837
627.355520,0.058750
627.672220,0.060653
627.988880,0.056299
628.305500,0.060767
628.622080,0.061958
628.938620,0.058410
629.255120,0.063161
629.571580,0.059454
629.888000,0.060448
630.204380,0.060141
630.520720,0.061548
630.837020,0.056738
631.153280,0.059053
631.469500,0.060643
631.785680,0.062990
632.101820,0.062726
632.417920,0.059613
632.733980,0.058824
633.050000,0.060643
633.365980,0.061055
633.681920,0.063246
633.997820,0.060371
634.313680,0.059864
634.629500,0.059864
634.945280,0.060117
635.261020,0.061931
635.576720,0.061950
635.892380,0.060122
636.208000,0.061592
636.523580,0.059047
636.839120,0.059351
637.154620,0.060580
637.470080,0.060258
637.785500,0.059789
638.100880,0.061106
638.416220,0.063561
638.731520,0.062178
639.046780,0.060588
639.362000,0.058773
639.677180,0.061108
639.992320,0.059487
640.307420,0.060972
640.622480,0.060767
640.937500,0.061304
641.252480,0.061715
641.567420,0.060813
641.882320,0.060412
642.197180,0.062605
642.512000,0.062133
642.826780,0.060749
643.141520,0.060572
643.456220,0.058384
643.770880,0.060531
644.085500,0.060648
644.400080,0.060674
644.714620,0.059365
645.029120,0.061331
645.343580,0.059792
645.658000,0.058840
645.972380,0.062483
646.286720,0.058872
646.601020,0.060614
646.915280,0.062791
647.229500,0.060989
647.543680,0.061309
647.857820,0.061382
648.171920,0.060770
648.485980,0.060016
648.800000,0.061725
649.113980,0.060421
649.427920,0.060472
649.741820,0.059082
650.055680,0.060614
650.369500,0.059137
650.683280,0.059101
650.997020,0.059681
651.310720,0.060264
651.624380,0.060165
651.938000,0.060388
652.251580,0.062343
652.565120,0.057854
652.878620,0.059122
653.192080,0.060955
653.505500,0.059748
653.818880,0.061416
654.132220,0.061236
654.445520,0.060692
654.758780,0.061473
655.072000,0.058739
655.385180,0.059344
655.698320,0.061732
656.011420,0.060189
656.324480,0.061498
656.637500,0.060255
656.950480,0.060188
657.263420,0.061188
657.576320,0.060777
657.889180,0.061044
658.202000,0.061292
658.514780,0.062519
658.827520,0.060924
659.140220,0.059335
659.452880,0.059499
659.765500,0.062613
660.078080,0.058983
660.390620,0.058967
660.703120,0.062939
661.015580,0.060736
661.328000,0.062028
661.640380,0.059957
661.952720,0.063843
662.265020,0.060491
662.577280,0.061069
662.889500,0.059918
663.201680,0.060944
663.513820,0.058540
663.825920,0.059558
664.137980,0.062702
664.450000,0.061061
664.761980,0.061538
665.073920,0.060695
665.385820,0.062500
665.697680,0.058843
666.009500,0.060193
666.321280,0.063287
666.633020,0.060838
666.944720,0.061004
667.256380,0.059219
667.568000,0.057405
667.879580,0.064966
668.191120,0.060440
668.502620,0.058542
668.814080,0.058246
669.125500,0.060554
669.436880,0.061895
669.748220,0.059190
670.059520,0.061625
670.370780,0.059151
670.682000,0.060531
670.993180,0.062720
671.304320,0.060830
671.615420,0.059304
671.926480,0.058907
672.237500,0.056806
672.548480,0.061746
672.859420,0.062545
673.170320,0.060936
673.481180,0.059015
673.792000,0.058781
674.102780,0.061400
674.413520,0.059789
674.724220,0.060254
675.034880,0.061239
675.345500,0.059446
675.656080,0.064247
675.966620,0.060749
676.277120,0.061150
676.587580,0.059647
676.898000,0.057857
677.208380,0.059150
677.518720,0.057987
677.829020,0.063932
678.139280,0.060786
678.449500,0.064983
678.759680,0.059948
679.069820,0.059480
679.379920,0.061863
679.689980,0.061270
680.000000,0.061308
680.309980,0.060134
680.619920,0.060204
680.929820,0.060097
681.239680,0.062408
681.549500,0.060741
681.859280,0.058252
682.169020,0.061171
682.478720,0.060209
682.788380,0.062754
683.098000,0.062453
683.407580,0.063790
683.717120,0.060435
684.026620,0.062500
684.336080,0.060629
684.645500,0.057987
684.954880,0.061957
685.264220,0.062665
685.573520,0.061667
685.882780,0.060606
686.192000,0.062829
686.501180,0.060537
686.810320,0.064566
687.119420,0.060433
687.428480,0.059628
687.737500,0.060246
688.046480,0.060199
688.355420,0.060355
688.664320,0.061591
688.973180,0.059342
689.282000,0.058256
689.590780,0.060583
689.899520,0.058868
690.208220,0.064220
690.516880,0.061856
690.825500,0.063396
691.134080,0.062263
691.442620,0.060213
691.751120,0.061054
692.059580,0.060374
692.368000,0.058690
692.676380,0.060305
692.984720,0.059924
693.293020,0.060410
693.601280,0.062190
693.909500,0.062051
694.217680,0.060168
694.525820,0.062452
694.833920,0.063335
695.141980,0.061319
695.450000,0.062977
695.757980,0.061879
696.065920,0.062136
696.373820,0.061586
696.681680,0.061757
696.989500,0.065226
697.297280,0.064177
697.605020,0.061111
697.912720,0.062644
698.220380,0.059032
698.528000,0.064082
698.835580,0.061636
699.143120,0.060016
699.450620,0.065235
699.758080,0.058039
700.065500,0.065044
700.372880,0.057600
700.680220,0.059832
700.987520,0.058730
701.294780,0.062044
701.602000,0.061807
701.909180,0.060413
702.216320,0.062573
702.523420,0.063536
702.830480,0.062178
703.137500,0.061185
703.444480,0.063116
703.751420,0.060750
704.058320,0.059359
704.365180,0.062303
704.672000,0.063762
704.978780,0.058135
705.285520,0.060642
705.592220,0.061176
705.898880,0.060284
706.205500,0.062207
706.512080,0.060032
706.818620,0.057276
707.125120,0.063077
707.431580,0.061743
707.738000,0.064453
708.044380,0.059822
708.350720,0.058464
708.657020,0.059789
708.963280,0.059783
709.269500,0.063014
709.575680,0.062475
709.881820,0.060928
710.187920,0.064202
710.493980,0.057797
710.800000,0.061404
711.105980,0.059488
711.411920,0.062672
711.717820,0.060039
712.023680,0.061796
712.329500,0.060726
712.635280,0.063953
712.941020,0.063007
713.246720,0.060870
713.552380,0.060832
713.858000,0.059519
714.163580,0.062747
714.469120,0.059789
714.774620,0.061982
715.080080,0.060463
715.385500,0.061551
715.690880,0.059566
715.996220,0.059033
716.301520,0.058498
716.606780,0.058962
716.912000,0.059774
717.217180,0.058260
717.522320,0.057654
717.827420,0.060618
718.132480,0.061421
718.437500,0.064003
718.742480,0.059274
719.047420,0.059061
719.352320,0.063512
719.657180,0.062551
719.962000,0.060380
720.266780,0.060656
720.571520,0.060481
720.876220,0.063011
721.180880,0.061037
721.485500,0.063519
721.790080,0.059873
722.094620,0.060463
722.399120,0.063335
722.703580,0.061294
723.008000,0.062527
723.312380,0.062850
723.616720,0.059924
723.921020,0.058900
724.225280,0.060646
724.529500,0.059545
724.833680,0.062722
725.137820,0.058590
725.441920,0.059296
725.745980,0.060850
726.050000,0.060893
726.353980,0.059036
726.657920,0.061628
726.961820,0.063927
727.265680,0.061951
727.569500,0.062157
727.873280,0.059584
728.177020,0.064486
728.480720,0.060648
728.784380,0.062940
729.088000,0.062176
729.391580,0.063003
729.695120,0.059981
729.998620,0.063098
730.302080,0.061509
730.605500,0.062106
730.908880,0.059285
731.212220,0.060235
731.515520,0.058996
731.818780,0.063592
732.122000,0.062500
732.425180,0.061114
732.728320,0.060486
733.031420,0.060652
733.334480,0.060714
733.637500,0.062500
733.940480,0.061924
734.243420,0.063710
734.546320,0.058610
734.849180,0.059401
735.152000,0.060166
735.454780,0.061467
735.757520,0.063751
736.060220,0.057925
736.362880,0.063550
736.665500,0.059530
736.968080,0.060720
737.270620,0.063146
737.573120,0.063319
737.875580,0.069819
738.178000,0.062058
738.480380,0.058919
738.782720,0.057797
739.085020,0.058921
739.387280,0.058758
739.689500,0.060589
739.991680,0.062325
740.293820,0.063018
740.595920,0.061213
740.897980,0.062112
741.200000,0.061694
741.501980,0.067622
741.803920,0.059685
742.105820,0.064862
742.407680,0.059406
742.709500,0.061364
743.011280,0.060375
743.313020,0.058551
743.614720,0.055136
743.916380,0.061047
744.218000,0.064439
744.519580,0.060990
744.821120,0.064072
745.122620,0.064110
745.424080,0.063702
745.725500,0.061557
746.026880,0.061576
746.328220,0.060419
746.629520,0.062613
746.930780,0.060049
747.232000,0.064378
747.533180,0.062233
747.834320,0.061473
748.135420,0.059043
748.436480,0.064255
748.737500,0.061767
749.038480,0.061087
749.339420,0.062228
749.640320,0.059082
749.941180,0.062461
750.242000,0.060302
750.542780,0.057072
750.843520,0.060858
751.144220,0.061538
751.444880,0.059607
751.745500,0.059740
752.046080,0.066068
752.346620,0.058634
752.647120,0.060091
752.947580,0.065330
753.248000,0.065119
753.548380,0.057254
753.848720,0.063104
754.149020,0.054803
754.449280,0.061720
754.749500,0.063039
755.049680,0.060667
755.349820,0.060040
755.649920,0.064111
755.949980,0.061712
756.250000,0.061144
756.549980,0.058086
756.849920,0.068661
757.149820,0.058550
757.449680,0.060726
757.749500,0.060668
758.049280,0.054608
758.349020,0.059805
758.648720,0.064872
758.948380,0.063230
759.248000,0.059299
759.547580,0.061197
759.847120,0.060648
760.146620,0.062923
760.446080,0.063844
760.745500,0.063636
761.044880,0.062500
761.344220,0.066287
761.643520,0.064266
761.942780,0.055983
762.242000,0.062942
762.541180,0.061268
762.840320,0.066713
763.139420,0.059775
763.438480,0.060150
763.737500,0.058580
764.036480,0.065688
764.335420,0.057163
764.634320,0.058905
764.933180,0.063699
765.232000,0.059681
765.530780,0.063860
765.829520,0.063636
766.128220,0.061935
766.426880,0.058991
766.725500,0.067169
767.024080,0.056241
767.322620,0.057400
767.621120,0.058266
767.919580,0.064846
768.218000,0.062244
768.516380,0.066937
768.814720,0.057613
769.113020,0.059959
769.411280,0.068370
769.709500,0.062246
770.007680,0.055896
770.305820,0.060176
770.603920,0.059973
770.901980,0.063525
771.200000,0.056386
771.497980,0.062332
771.795920,0.061538
772.093820,0.062166
772.391680,0.065260
772.689500,0.055405
772.987280,0.057239
773.285020,0.058783
773.582720,0.058784
773.880380,0.058339
774.178000,0.062031
774.475580,0.066309
774.773120,0.058902
775.070620,0.062880
775.368080,0.062792
775.665500,0.057085
775.962880,0.060707
776.260220,0.057873
776.557520,0.066044
776.854780,0.067613
777.152000,0.058355
777.449180,0.066082
777.746320,0.054435
778.043420,0.064120
778.340480,0.062923
778.637500,0.062204
778.934480,0.061197
779.231420,0.061737
779.528320,0.058784
779.825180,0.064559
780.122000,0.057769
780.418780,0.063611
780.715520,0.065057
781.012220,0.065068
781.308880,0.064233
781.605500,0.058904
781.902080,0.061602
782.198620,0.060150
782.495120,0.058299
782.791580,0.060523
783.088000,0.060041
783.384380,0.062586
783.680720,0.069083
783.977020,0.065382
784.273280,0.059441
784.569500,0.063592
784.865680,0.061196
785.161820,0.059028
785.457920,0.058905
785.753980,0.060712
786.050000,0.055249
786.345980,0.060417
786.641920,0.066620
786.937820,0.064103
787.233680,0.060543
787.529500,0.058252
787.825280,0.063739
788.121020,0.058782
788.416720,0.059986
788.712380,0.059944
789.008000,0.063739
789.303580,0.058657
789.599120,0.063273
789.894620,0.059928
790.190080,0.056563
790.485500,0.061915
790.780880,0.060215
791.076220,0.057720
791.371520,0.063907
791.666780,0.067636
791.962000,0.061719
792.257180,0.057833
792.552320,0.064540
792.847420,0.064047
793.142480,0.064469
793.437500,0.060058
793.732480,0.064375
794.027420,0.058605
794.322320,0.063386
794.617180,0.062407
794.912000,0.058692
795.206780,0.054437
795.501520,0.063118
795.796220,0.061481
796.090880,0.058779
796.385500,0.053973
796.680080,0.061331
796.974620,0.066617
797.269120,0.059803
797.563580,0.061832
797.858000,0.066059
798.152380,0.065739
798.446720,0.065385
798.741020,0.063945
799.035280,0.063665
799.329500,0.059276
799.623680,0.066667
