399.985280,-0.027027
400.329500,0.067568
400.673680,0.025316
401.017820,-0.044118
401.361920,-0.075758
401.705980,0.012195
402.050000,-0.025974
402.393980,0.082353
402.737920,0.056180
403.081820,0.072165
403.425680,0.046512
403.769500,-0.010417
404.113280,0.000000
404.457020,0.056180
404.800720,-0.021739
405.144380,0.080808
405.488000,0.000000
405.831580,0.061856
406.175120,0.063830
406.518620,0.030000
406.862080,0.103093
407.205500,0.000000
407.548880,0.010204
407.892220,0.029412
408.235520,0.000000
408.578780,0.066667
408.922000,0.057692
409.265180,0.070707
409.608320,0.060606
409.951420,0.072165
410.294480,0.039216
410.637500,0.054348
410.980480,0.058824
411.323420,-0.030612
411.666320,0.100917
412.009180,0.054545
412.352000,0.000000
412.694780,0.036697
413.037520,0.045872
413.380220,0.054054
413.722880,0.053571
414.065500,0.027027
414.408080,0.035398
414.750620,0.053097
415.093120,0.024793
415.435580,0.084034
415.778000,0.083333
416.120380,-0.008403
416.462720,0.039683
416.805020,0.052632
417.147280,0.029851
417.489500,0.078571
417.831680,0.041096
418.173820,0.035461
418.515920,0.048951
418.857980,0.050633
419.200000,0.051282
419.541980,0.047337
419.883920,0.039326
420.225820,0.034682
420.567680,0.061453
420.909500,0.038251
421.251280,0.062500
421.593020,0.056122
421.934720,0.030303
422.276380,0.030769
422.618000,0.073529
422.959580,0.063725
423.301120,0.050228
423.642620,0.043478
423.984080,0.027907
424.325500,0.026906
424.666880,0.068966
425.008220,0.037815
425.349520,0.038136
425.690780,0.057692
426.032000,0.019608
426.373180,0.045643
426.714320,0.046875
427.055420,0.034749
427.396480,0.067416
427.737500,0.063241
428.078480,0.043478
428.419420,0.036145
428.760320,0.045977
429.101180,0.078740
429.442000,0.042146
429.782780,0.050000
430.123520,0.047059
430.464220,0.044280
430.804880,0.053640
431.145500,0.047273
431.486080,0.048689
431.826620,0.034884
432.167120,0.047794
432.507580,0.072464
432.848000,0.053957
433.188380,0.068592
433.528720,0.052830
433.869020,0.050000
434.209280,0.038596
434.549500,0.055749
434.889680,0.067340
435.229820,0.044369
435.569920,0.048443
435.909980,0.042071
436.250000,0.057627
436.589980,0.046440
436.929920,0.057143
437.269820,0.050157
437.609680,0.059172
437.949500,0.039157
438.289280,0.050992
438.629020,0.069767
438.968720,0.058140
439.308380,0.029810
439.648000,0.052055
439.987580,0.050265
440.327120,0.053333
440.666620,0.054545
441.006080,0.035806
441.345500,0.046683
441.684880,0.043062
442.024220,0.034739
442.363520,0.028571
442.702780,0.038636
443.042000,0.039648
443.381180,0.049569
443.720320,0.056156
444.059420,0.044118
444.398480,0.023013
444.737500,0.053279
445.076480,0.041667
445.415420,0.041916
445.754320,0.039501
446.093180,0.058716
446.432000,0.052632
446.770780,0.041746
447.109520,0.064338
447.448220,0.059034
447.786880,0.059034
448.125500,0.056897
448.464080,0.046429
448.802620,0.047872
449.141120,0.050173
449.479580,0.048951
449.818000,0.061962
450.156380,0.048495
450.494720,0.047934
450.833020,0.054196
451.171280,0.046233
451.509500,0.052265
451.847680,0.052277
452.185820,0.056799
452.523920,0.061856
452.861980,0.043845
453.200000,0.051495
453.537980,0.050420
453.875920,0.060504
454.213820,0.030822
454.551680,0.051325
454.889500,0.045531
455.227280,0.040925
455.565020,0.060302
455.902720,0.063228
456.240380,0.043261
456.578000,0.043554
456.915580,0.041451
457.253120,0.046053
457.590620,0.055829
457.928080,0.060606
458.265500,0.050676
458.602880,0.050325
458.940220,0.038917
459.277520,0.048000
459.614780,0.047463
459.952000,0.052795
460.289180,0.056962
460.626320,0.055118
460.963420,0.053312
461.300480,0.056575
461.637500,0.036980
461.974480,0.053517
462.311420,0.043219
462.648320,0.049780
462.985180,0.050215
463.322000,0.053571
463.658780,0.040055
463.995520,0.045392
464.332220,0.047091
464.668880,0.059140
465.005500,0.044236
465.342080,0.051216
465.678620,0.054121
466.015120,0.049159
466.351580,0.055626
466.688000,0.049939
467.024380,0.057108
467.360720,0.050000
467.697020,0.051253
468.033280,0.050000
468.369500,0.048565
468.705680,0.050733
469.041820,0.053125
469.377920,0.042299
469.713980,0.051493
470.050000,0.054106
470.385980,0.053816
470.721920,0.054848
471.057820,0.051657
471.393680,0.051450
471.729500,0.044486
472.065280,0.053667
472.401020,0.050532
472.736720,0.052356
473.072380,0.051167
473.408000,0.049608
473.743580,0.048443
474.079120,0.053402
474.414620,0.047498
474.750080,0.051261
475.085500,0.052632
475.420880,0.048293
475.756220,0.053966
476.091520,0.049446
476.426780,0.054207
476.762000,0.046661
477.097180,0.052000
477.432320,0.053312
477.767420,0.047386
478.102480,0.050394
478.437500,0.052545
478.772480,0.048069
479.107420,0.049634
479.442320,0.049560
479.777180,0.047733
480.112000,0.050077
480.446780,0.052221
480.781520,0.045089
481.116220,0.048504
481.450880,0.049961
481.785500,0.053797
482.120080,0.055643
482.454620,0.051282
482.789120,0.054936
483.123580,0.052181
483.458000,0.054589
483.792380,0.047923
484.126720,0.053282
484.461020,0.053084
484.795280,0.051658
485.129500,0.053001
485.463680,0.047287
485.797820,0.052877
486.131920,0.054323
486.465980,0.054054
486.800000,0.049618
487.133980,0.055891
487.467920,0.052793
487.801820,0.051869
488.135680,0.054587
488.469500,0.054463
488.803280,0.054235
489.137020,0.051282
489.470720,0.051929
489.804380,0.055679
490.138000,0.052671
490.471580,0.055269
490.805120,0.056469
491.138620,0.051173
491.472080,0.053710
491.805500,0.054393
492.138880,0.053509
492.472220,0.053287
492.805520,0.050279
493.138780,0.056513
493.472000,0.055518
493.805180,0.052524
494.138320,0.052702
494.471420,0.050130
494.804480,0.054334
495.137500,0.053915
495.470480,0.060548
495.803420,0.051008
496.136320,0.055764
496.469180,0.052179
496.802000,0.053178
497.134780,0.055791
497.467520,0.055657
497.800220,0.054245
498.132880,0.049971
498.465500,0.051564
498.798080,0.049087
499.130620,0.052779
499.463120,0.057833
499.795580,0.057206
500.128000,0.057221
500.460380,0.053821
500.792720,0.053022
501.125020,0.056227
501.457280,0.049608
501.789500,0.053719
502.121680,0.053914
502.453820,0.054054
502.785920,0.050525
503.117980,0.055937
503.450000,0.055249
503.781980,0.056303
504.113920,0.052632
504.445820,0.052504
504.777680,0.049412
505.109500,0.053846
505.441280,0.052103
505.773020,0.049789
506.104720,0.049458
506.436380,0.051112
506.768000,0.052853
507.099580,0.053089
507.431120,0.056674
507.762620,0.053102
508.094080,0.055606
508.425500,0.052754
508.756880,0.052583
509.088220,0.051518
509.419520,0.053073
509.750780,0.054358
510.082000,0.054104
510.413180,0.053432
510.744320,0.056604
511.075420,0.052704
511.406480,0.050776
511.737500,0.055556
512.068480,0.054511
512.399420,0.053052
512.730320,0.049885
513.061180,0.052331
513.392000,0.054898
513.722780,0.053794
514.053520,0.057020
514.384220,0.053758
514.714880,0.056486
515.045500,0.050287
515.376080,0.051332
515.706620,0.054554
516.037120,0.057353
516.367580,0.052242
516.698000,0.055882
517.028380,0.056107
517.358720,0.051852
517.689020,0.053412
518.019280,0.054190
518.349500,0.052712
518.679680,0.055023
519.009820,0.053138
519.339920,0.056112
519.669980,0.054244
520.000000,0.053999
520.329980,0.052359
520.659920,0.054192
520.989820,0.059856
521.319680,0.052469
521.649500,0.052442
521.979280,0.053236
522.309020,0.053423
522.638720,0.053763
522.968380,0.057394
523.298000,0.054802
523.627580,0.051733
523.957120,0.055584
524.286620,0.054195
524.616080,0.057911
524.945500,0.057881
525.274880,0.056439
525.604220,0.056936
525.933520,0.053459
526.262780,0.053725
526.592000,0.057839
526.921180,0.058913
527.250320,0.053780
527.579420,0.057605
527.908480,0.059084
528.237500,0.053128
528.566480,0.052894
528.895420,0.054707
529.224320,0.053492
529.553180,0.054458
529.882000,0.058394
530.210780,0.055502
530.539520,0.057047
530.868220,0.056008
531.196880,0.053512
531.525500,0.061017
531.854080,0.053940
532.182620,0.057450
532.511120,0.052900
532.839580,0.055354
533.168000,0.052871
533.496380,0.059361
533.824720,0.058322
534.153020,0.053054
534.481280,0.061233
534.809500,0.058927
535.137680,0.057726
535.465820,0.054553
535.793920,0.054992
536.121980,0.057491
536.450000,0.055814
536.777980,0.055300
537.105920,0.057700
537.433820,0.060147
537.761680,0.057143
538.089500,0.059085
538.417280,0.057700
538.745020,0.059033
539.072720,0.053885
539.400380,0.055556
539.728000,0.056214
540.055580,0.058052
540.383120,0.059568
540.710620,0.056920
541.038080,0.056068
541.365500,0.055147
541.692880,0.055959
542.020220,0.056135
542.347520,0.057430
542.674780,0.058222
543.002000,0.057383
543.329180,0.058225
543.656320,0.059423
543.983420,0.054701
544.310480,0.055725
544.637500,0.058001
544.964480,0.056864
545.291420,0.057494
545.618320,0.057769
545.945180,0.056361
546.272000,0.055374
546.598780,0.056047
546.925520,0.056050
547.252220,0.056124
547.578880,0.058651
547.905500,0.054902
548.232080,0.056205
548.558620,0.058575
548.885120,0.055283
549.211580,0.057538
549.538000,0.056744
549.864380,0.054341
550.190720,0.055538
550.517020,0.056389
550.843280,0.059609
551.169500,0.057252
551.495680,0.057819
551.821820,0.058785
552.147920,0.055303
552.473980,0.050708
552.800000,0.055265
553.125980,0.059594
553.451920,0.059390
553.777820,0.056962
554.103680,0.056286
554.429500,0.052561
554.755280,0.056409
555.081020,0.057487
555.406720,0.056214
555.732380,0.054558
556.058000,0.059403
556.383580,0.056830
556.709120,0.055134
557.034620,0.055460
557.360080,0.055613
557.685500,0.059129
558.010880,0.055806
558.336220,0.056942
558.661520,0.057426
558.986780,0.057760
559.312000,0.056268
559.637180,0.058169
559.962320,0.058740
560.287420,0.057475
560.612480,0.054180
560.937500,0.058737
561.262480,0.059018
561.587420,0.058397
561.912320,0.057480
562.237180,0.060696
562.562000,0.059484
562.886780,0.058343
563.211520,0.057377
563.536220,0.059369
563.860880,0.054696
564.185500,0.058537
564.510080,0.058315
564.834620,0.059174
565.159120,0.059023
565.483580,0.059673
565.808000,0.056754
566.132380,0.057814
566.456720,0.058957
566.781020,0.055514
567.105280,0.059735
567.429500,0.058422
567.753680,0.056770
568.077820,0.059528
568.401920,0.057678
568.725980,0.060721
569.050000,0.060076
569.373980,0.060525
569.697920,0.059917
570.021820,0.058801
570.345680,0.057788
570.669500,0.061045
570.993280,0.059062
571.317020,0.061016
571.640720,0.056317
571.964380,0.060134
572.288000,0.061202
572.611580,0.061775
572.935120,0.059858
573.258620,0.056470
573.582080,0.056259
573.905500,0.057707
574.228880,0.056422
574.552220,0.058996
574.875520,0.058079
575.198780,0.059631
575.522000,0.057551
575.845180,0.054441
576.168320,0.058929
576.491420,0.058866
576.814480,0.060398
577.137500,0.060606
577.460480,0.058717
577.783420,0.058950
578.106320,0.059829
578.429180,0.061506
578.752000,0.060438
579.074780,0.056642
579.397520,0.059070
579.720220,0.059202
580.042880,0.061777
580.365500,0.059894
580.688080,0.058005
581.010620,0.059737
581.333120,0.058450
581.655580,0.058941
581.978000,0.058863
582.300380,0.058098
582.622720,0.059328
582.945020,0.061118
583.267280,0.059590
583.589500,0.057785
583.911680,0.057161
584.233820,0.058546
584.555920,0.058620
584.877980,0.057161
585.200000,0.057397
585.521980,0.060859
585.843920,0.060098
586.165820,0.057282
586.487680,0.058682
586.809500,0.058206
587.131280,0.058858
587.453020,0.060714
587.774720,0.057363
588.096380,0.057468
588.418000,0.057653
588.739580,0.062374
589.061120,0.060092
589.382620,0.056734
589.704080,0.057784
590.025500,0.060217
590.346880,0.057055
590.668220,0.060767
590.989520,0.058236
591.310780,0.060481
591.632000,0.059290
591.953180,0.060614
592.274320,0.058149
592.595420,0.058728
592.916480,0.058136
593.237500,0.059283
593.558480,0.059995
593.879420,0.060426
594.200320,0.060541
594.521180,0.060292
594.842000,0.060451
595.162780,0.060096
595.483520,0.059027
595.804220,0.057465
596.124880,0.060751
596.445500,0.060257
596.766080,0.059693
597.086620,0.059713
597.407120,0.058189
597.727580,0.061522
598.048000,0.060566
598.368380,0.057864
598.688720,0.058453
599.009020,0.058917
599.329280,0.060404
599.649500,0.059429
599.969680,0.059562
600.289820,0.060096
600.609920,0.059311
600.929980,0.056921
601.250000,0.059730
601.569980,0.059681
601.889920,0.058273
602.209820,0.058171
602.529680,0.060698
602.849500,0.056192
603.169280,0.058969
603.489020,0.059231
603.808720,0.060340
604.128380,0.057947
604.448000,0.058287
604.767580,0.058939
605.087120,0.060665
605.406620,0.059334
605.726080,0.061876
606.045500,0.057955
606.364880,0.057840
606.684220,0.062536
607.003520,0.061927
607.322780,0.057703
607.642000,0.059449
607.961180,0.060711
608.280320,0.059745
608.599420,0.055041
608.918480,0.058358
609.237500,0.058392
609.556480,0.057709
609.875420,0.061725
610.194320,0.060230
610.513180,0.059189
610.832000,0.060155
611.150780,0.058877
611.469520,0.059125
611.788220,0.058041
612.106880,0.056393
612.425500,0.056334
612.744080,0.062173
613.062620,0.059021
613.381120,0.058196
613.699580,0.059473
614.018000,0.060197
614.336380,0.058297
614.654720,0.059225
614.973020,0.059241
615.291280,0.059808
615.609500,0.062441
615.927680,0.057787
616.245820,0.059678
616.563920,0.060926
616.881980,0.059869
617.200000,0.060031
617.517980,0.060361
617.835920,0.059646
618.153820,0.058440
618.471680,0.061705
618.789500,0.059786
619.107280,0.059781
619.425020,0.063749
619.742720,0.058694
620.060380,0.058916
620.378000,0.058842
620.695580,0.059706
621.013120,0.059843
621.330620,0.060559
621.648080,0.059306
621.965500,0.060853
622.282880,0.058638
622.600220,0.059697
622.917520,0.059231
623.234780,0.063967
623.552000,0.061108
623.869180,0.060511
624.186320,0.059535
624.503420,0.057994
624.820480,0.058750
625.137500,0.058415
625.454480,0.062207
625.771420,0.059269
626.088320,0.057377
626.405180,0.059428
626.722000,0.059598
627.038780,0.059211
627.355520,0.060000
627.672220,0.061586
627.988880,0.060342
628.305500,0.062325
628.622080,0.058860
628.938620,0.058104
629.255120,0.060983
629.571580,0.062519
629.888000,0.061369
630.204380,0.059834
630.520720,0.059110
630.837020,0.058896
631.153280,0.059652
631.469500,0.062159
631.785680,0.062990
632.101820,0.063028
632.417920,0.062295
632.733980,0.060024
633.050000,0.059733
633.365980,0.058684
633.681920,0.062351
633.997820,0.058577
634.313680,0.063108
634.629500,0.059275
634.945280,0.059824
635.261020,0.063399
635.576720,0.063124
635.892380,0.060412
636.208000,0.062754
636.523580,0.060216
636.839120,0.061668
637.154620,0.061739
637.470080,0.061980
637.785500,0.064771
638.100880,0.063713
638.416220,0.058384
638.731520,0.062178
639.046780,0.060588
639.362000,0.059633
639.677180,0.063678
639.992320,0.062870
640.307420,0.061815
640.622480,0.060487
640.937500,0.061581
641.252480,0.062273
641.567420,0.058255
641.882320,0.061804
642.197180,0.059517
642.512000,0.059614
642.826780,0.062413
643.141520,0.058905
643.456220,0.060874
643.770880,0.060254
644.085500,0.060089
644.400080,0.060955
644.714620,0.060201
645.029120,0.061606
645.343580,0.059792
645.658000,0.060228
645.972380,0.060290
646.286720,0.059962
646.601020,0.060338
646.915280,0.060598
647.229500,0.061538
647.543680,0.059652
647.857820,0.058904
648.171920,0.062941
648.485980,0.059742
648.800000,0.062552
649.113980,0.061807
649.427920,0.062136
649.741820,0.058807
650.055680,0.061437
650.369500,0.060538
650.683280,0.060766
650.997020,0.059406
651.310720,0.061090
651.624380,0.059615
651.938000,0.060942
652.251580,0.062343
652.565120,0.060369
652.878620,0.059122
653.192080,0.061798
653.505500,0.061711
653.818880,0.063975
654.132220,0.061521
654.445520,0.061543
654.758780,0.060057
655.072000,0.060458
655.385180,0.059629
655.698320,0.060589
656.011420,0.059329
656.324480,0.058875
656.637500,0.057358
656.950480,0.060188
657.263420,0.058528
657.576320,0.056626
657.889180,0.061634
658.202000,0.061292
658.514780,0.063412
658.827520,0.061224
659.140220,0.059634
659.452880,0.060103
659.765500,0.060506
660.078080,0.058381
660.390620,0.057440
660.703120,0.061106
661.015580,0.061043
661.328000,0.061083
661.640380,0.062752
661.952720,0.060729
662.265020,0.059546
662.577280,0.062659
662.889500,0.061495
663.201680,0.061583
663.513820,0.059826
663.825920,0.060199
664.137980,0.062702
664.450000,0.060102
664.761980,0.061538
665.073920,0.061668
665.385820,0.061191
665.697680,0.057521
666.009500,0.061191
666.321280,0.062293
666.633020,0.063830
666.944720,0.062690
667.256380,0.061238
667.568000,0.061481
667.879580,0.063605
668.191120,0.062500
668.502620,0.058199
668.814080,0.057544
669.125500,0.060554
669.436880,0.061203
669.748220,0.061613
670.059520,0.058473
670.370780,0.063674
670.682000,0.059823
670.993180,0.060958
671.304320,0.059423
671.615420,0.060724
671.926480,0.063875
672.237500,0.059664
672.548480,0.063520
672.859420,0.061472
673.170320,0.059122
673.481180,0.060463
673.792000,0.056978
674.102780,0.059605
674.413520,0.060882
674.724220,0.060254
675.034880,0.064540
675.345500,0.059810
675.656080,0.063884
675.966620,0.062932
676.277120,0.060417
676.587580,0.061856
676.898000,0.057857
677.208380,0.060628
677.518720,0.061269
677.829020,0.062454
678.139280,0.058562
678.449500,0.064241
678.759680,0.062196
679.069820,0.058736
679.379920,0.061109
679.689980,0.060899
680.000000,0.054579
680.309980,0.059391
680.619920,0.059447
680.929820,0.059351
681.239680,0.060192
681.549500,0.060741
681.859280,0.060119
682.169020,0.061171
682.478720,0.061705
682.788380,0.060908
683.098000,0.065071
683.407580,0.063039
683.717120,0.062688
684.026620,0.060617
684.336080,0.059871
684.645500,0.060606
684.954880,0.060068
685.264220,0.064553
685.573520,0.065093
685.882780,0.061373
686.192000,0.063205
686.501180,0.059781
686.810320,0.061491
687.119420,0.060813
687.428480,0.060767
687.737500,0.062932
688.046480,0.055982
688.355420,0.059223
688.664320,0.058914
688.973180,0.065084
689.282000,0.060571
689.590780,0.059816
689.899520,0.060767
690.208220,0.064602
690.516880,0.061092
690.825500,0.060000
691.134080,0.061124
691.442620,0.059451
691.751120,0.061813
692.059580,0.059992
692.368000,0.058690
692.676380,0.061832
692.984720,0.059924
693.293020,0.062690
693.601280,0.063716
693.909500,0.057889
694.217680,0.058264
694.525820,0.062833
694.833920,0.062572
695.141980,0.061705
695.450000,0.064122
695.757980,0.063407
696.065920,0.064466
696.373820,0.062356
696.681680,0.061373
696.989500,0.062524
697.297280,0.060288
697.605020,0.059921
697.912720,0.062644
698.220380,0.060213
698.528000,0.064082
698.835580,0.062426
699.143120,0.060016
699.450620,0.066030
699.758080,0.060784
700.065500,0.068236
700.372880,0.064000
700.680220,0.060231
700.987520,0.058730
701.294780,0.061638
701.602000,0.059826
701.909180,0.060413
702.216320,0.059836
702.523420,0.059195
702.830480,0.063762
703.137500,0.061574
703.444480,0.063905
703.751420,0.059961
704.058320,0.062920
704.365180,0.063486
704.672000,0.061782
704.978780,0.059696
705.285520,0.060642
705.592220,0.061569
705.898880,0.062254
706.205500,0.060642
706.512080,0.062796
706.818620,0.060759
707.125120,0.063462
707.431580,0.058617
707.738000,0.062500
708.044380,0.058279
708.350720,0.059610
708.657020,0.060571
708.963280,0.061335
709.269500,0.060274
709.575680,0.062868
709.881820,0.062500
710.187920,0.063035
710.493980,0.060900
710.800000,0.058734
711.105980,0.060617
711.411920,0.062672
711.717820,0.061598
712.023680,0.058686
712.329500,0.058360
712.635280,0.064729
712.941020,0.061461
713.246720,0.062055
713.552380,0.060832
713.858000,0.059913
714.163580,0.063141
714.469120,0.060180
714.774620,0.062377
715.080080,0.064389
715.385500,0.058753
715.690880,0.059961
715.996220,0.060618
716.301520,0.062451
716.606780,0.061714
716.912000,0.064216
717.217180,0.059856
717.522320,0.057654
717.827420,0.061025
718.132480,0.063027
718.437500,0.062373
718.742480,0.058468
719.047420,0.060680
719.352320,0.064757
719.657180,0.062142
719.962000,0.061621
720.266780,0.061487
720.571520,0.059652
720.876220,0.059329
721.180880,0.059365
721.485500,0.059340
721.790080,0.058174
722.094620,0.064322
722.399120,0.062904
722.703580,0.060866
723.008000,0.060371
723.312380,0.060697
723.616720,0.059924
723.921020,0.062798
724.225280,0.058901
724.529500,0.056918
724.833680,0.062278
725.137820,0.062555
725.441920,0.062862
725.745980,0.062192
726.050000,0.061795
726.353980,0.062190
726.657920,0.062978
726.961820,0.063470
727.265680,0.061489
727.569500,0.060329
727.873280,0.054965
728.177020,0.066789
728.480720,0.061111
728.784380,0.069047
729.088000,0.059350
729.391580,0.059687
729.695120,0.063340
729.998620,0.064054
730.302080,0.061028
730.605500,0.060650
730.908880,0.060755
731.212220,0.060235
731.515520,0.059971
731.818780,0.060194
732.122000,0.060531
732.425180,0.060128
732.728320,0.065444
733.031420,0.060150
733.334480,0.059184
733.637500,0.054940
733.940480,0.058342
734.243420,0.062691
734.546320,0.059129
734.849180,0.063017
735.152000,0.059647
735.454780,0.058368
735.757520,0.060590
736.060220,0.062665
736.362880,0.063025
736.665500,0.056397
736.968080,0.060183
737.270620,0.062058
737.573120,0.061135
737.875580,0.064321
738.178000,0.060969
738.480380,0.062162
738.782720,0.061069
739.085020,0.062225
739.387280,0.060976
739.689500,0.058324
739.991680,0.062325
740.293820,0.061913
740.595920,0.064552
740.897980,0.063241
741.200000,0.070107
741.501980,0.064183
741.803920,0.059685
742.105820,0.061478
742.407680,0.066395
742.709500,0.062500
743.011280,0.060375
743.313020,0.063188
743.614720,0.059199
743.916380,0.057558
744.218000,0.066229
744.519580,0.060386
744.821120,0.061677
745.122620,0.061114
745.424080,0.055288
745.725500,0.062161
746.026880,0.062192
746.328220,0.059803
746.629520,0.060205
746.930780,0.061887
747.232000,0.064378
747.533180,0.060403
747.834320,0.058430
748.135420,0.059043
748.436480,0.063631
748.737500,0.064855
749.038480,0.062309
749.339420,0.064095
749.640320,0.060339
749.941180,0.058713
750.242000,0.057789
750.542780,0.062655
750.843520,0.060858
751.144220,0.061538
751.444880,0.066582
751.745500,0.055844
752.046080,0.062219
752.346620,0.059923
752.647120,0.060091
752.947580,0.064036
753.248000,0.063185
753.548380,0.059857
753.848720,0.059884
754.149020,0.055448
754.449280,0.064347
754.749500,0.058394
755.049680,0.058000
755.349820,0.064043
755.649920,0.063450
755.949980,0.060385
756.250000,0.059172
756.549980,0.062046
756.849920,0.064582
757.149820,0.063207
757.449680,0.058086
757.749500,0.058623
758.049280,0.056655
758.349020,0.059805
758.648720,0.060732
758.948380,0.058419
759.248000,0.059973
759.547580,0.063887
759.847120,0.058580
760.146620,0.063599
760.446080,0.062500
760.745500,0.058042
761.044880,0.060369
761.344220,0.062010
761.643520,0.062147
761.942780,0.061582
762.242000,0.061528
762.541180,0.060563
762.840320,0.063202
763.139420,0.058368
763.438480,0.058783
763.737500,0.062026
764.036480,0.063592
764.335420,0.059280
764.634320,0.058212
764.933180,0.067123
765.232000,0.062457
765.530780,0.064561
765.829520,0.065734
766.128220,0.060543
766.426880,0.061123
766.725500,0.063742
767.024080,0.058985
767.322620,0.060166
767.621120,0.059621
767.919580,0.057338
768.218000,0.064979
768.516380,0.065585
768.814720,0.059671
769.113020,0.062026
769.411280,0.063536
769.709500,0.062246
770.007680,0.057941
770.305820,0.062880
770.603920,0.058625
770.901980,0.063525
771.200000,0.060462
771.497980,0.064343
771.795920,0.060201
772.093820,0.064840
772.391680,0.058668
772.689500,0.056757
772.987280,0.060606
773.285020,0.064252
773.582720,0.062162
773.880380,0.055594
774.178000,0.059305
774.475580,0.062291
774.773120,0.056894
775.070620,0.066261
775.368080,0.066132
775.665500,0.058428
775.962880,0.062708
776.260220,0.059219
776.557520,0.063376
776.854780,0.061528
777.152000,0.057029
777.449180,0.062036
777.746320,0.054435
778.043420,0.065484
778.340480,0.060893
778.637500,0.061528
778.934480,0.064560
779.231420,0.059701
779.528320,0.056780
779.825180,0.057971
780.122000,0.061089
780.418780,0.063611
780.715520,0.063045
781.012220,0.065753
781.308880,0.058824
781.605500,0.057534
781.902080,0.060917
782.198620,0.060834
782.495120,0.061728
782.791580,0.066025
783.088000,0.064182
783.384380,0.061898
783.680720,0.062244
783.977020,0.061941
784.273280,0.061538
784.569500,0.060797
784.865680,0.066064
785.161820,0.062500
785.457920,0.056826
785.753980,0.059316
786.050000,0.058702
786.345980,0.064583
786.641920,0.060375
786.937820,0.067664
787.233680,0.063326
787.529500,0.061720
787.825280,0.064448
788.121020,0.067989
788.416720,0.056457
788.712380,0.055712
789.008000,0.059490
789.303580,0.063604
789.599120,0.061818
789.894620,0.065704
790.190080,0.054387
790.485500,0.060475
790.780880,0.058065
791.076220,0.061328
791.371520,0.066086
791.666780,0.066182
791.962000,0.060985
792.257180,0.059297
792.552320,0.064540
792.847420,0.069141
793.142480,0.068132
793.437500,0.060781
793.732480,0.059254
794.027420,0.060831
794.322320,0.058911
794.617180,0.062407
794.912000,0.061664
795.206780,0.055928
795.501520,0.060837
795.796220,0.060741
796.090880,0.061040
796.385500,0.062219
796.680080,0.062827
796.974620,0.064371
797.269120,0.059803
797.563580,0.058779
797.858000,0.061503
798.152380,0.063418
798.446720,0.060000
798.741020,0.053929
799.035280,0.062888
799.329500,0.063125
799.623680,0.059690
