400,1.0000
401,0.5624
402,1.0000
403,1.0000
404,0.0000
405,1.0000
406,0.7600
407,0.0000
408,0.0000
409,1.0000
410,0.5160
411,0.3483
412,0.4112
413,0.2916
414,0.3958
415,0.2798
416,0.4040
417,0.3164
418,0.3133
419,0.3261
420,0.3021
421,0.2756
422,0.1993
423,0.2389
424,0.2080
425,0.2346
426,0.2118
427,0.2425
428,0.1840
429,0.1171
430,0.1437
431,0.1384
432,0.1538
433,0.1158
434,0.1258
435,0.1510
436,0.1400
437,0.1313
438,0.1598
439,0.1319
440,0.1627
441,0.1417
442,0.1378
443,0.1496
444,0.1552
445,0.1547
446,0.1486
447,0.1287
448,0.1257
449,0.1222
450,0.1219
451,0.1265
452,0.1108
453,0.1057
454,0.1020
455,0.1215
456,0.1173
457,0.1083
458,0.1004
459,0.1251
460,0.1160
461,0.1286
462,0.1343
463,0.1348
464,0.1400
465,0.1355
466,0.1552
467,0.1516
468,0.1514
469,0.1526
470,0.1550
471,0.1561
472,0.1511
473,0.1443
474,0.1401
475,0.1377
476,0.1331
477,0.1367
478,0.1338
479,0.1352
480,0.1389
481,0.1327
482,0.1378
483,0.1373
484,0.1350
485,0.1373
486,0.1408
487,0.1421
488,0.1462
489,0.1466
490,0.1453
491,0.1464
492,0.1404
493,0.1448
494,0.1398
495,0.1412
496,0.1311
497,0.1347
498,0.1302
499,0.1329
500,0.1251
501,0.1250
502,0.1235
503,0.1205
504,0.1220
505,0.1203
506,0.1237
507,0.1227
508,0.1226
509,0.1212
510,0.1199
511,0.1228
512,0.1214
513,0.1217
514,0.1193
515,0.1175
516,0.1140
517,0.1125
518,0.1141
519,0.1128
520,0.1113
521,0.1122
522,0.1121
523,0.1118
524,0.1116
525,0.1133
526,0.1124
527,0.1095
528,0.1086
529,0.1113
530,0.1119
531,0.1114
532,0.1118
533,0.1120
534,0.1142
535,0.1133
536,0.1168
537,0.1157
538,0.1184
539,0.1202
540,0.1183
541,0.1204
542,0.1200
543,0.1230
544,0.1278
545,0.1263
546,0.1273
547,0.1286
548,0.1263
549,0.1280
550,0.1264
551,0.1283
552,0.1287
553,0.1261
554,0.1263
555,0.1248
556,0.1236
557,0.1238
558,0.1228
559,0.1215
560,0.1190
561,0.1168
562,0.1135
563,0.1116
564,0.1104
565,0.1080
566,0.1042
567,0.1048
568,0.1014
569,0.1016
570,0.0987
571,0.0949
572,0.0948
573,0.0915
574,0.0895
575,0.0893
576,0.0864
577,0.0866
578,0.0862
579,0.0827
580,0.0825
581,0.0808
582,0.0789
583,0.0773
584,0.0775
585,0.0751
586,0.0724
587,0.0715
588,0.0710
589,0.0702
590,0.0708
591,0.0689
592,0.0664
593,0.0653
594,0.0651
595,0.0649
596,0.0653
597,0.0639
598,0.0632
599,0.0620
600,0.0610
601,0.0601
602,0.0591
603,0.0581
604,0.0560
605,0.0555
606,0.0550
607,0.0537
608,0.0514
609,0.0497
610,0.0488
611,0.0479
612,0.0458
613,0.0441
614,0.0425
615,0.0423
616,0.0388
617,0.0392
618,0.0383
619,0.0346
620,0.0338
621,0.0337
622,0.0317
623,0.0315
624,0.0289
625,0.0302
626,0.0292
627,0.0274
628,0.0264
629,0.0258
630,0.0243
631,0.0231
632,0.0227
633,0.0223
634,0.0220
635,0.0214
636,0.0208
637,0.0205
638,0.0199
639,0.0196
640,0.0191
641,0.0193
642,0.0170
643,0.0190
644,0.0185
645,0.0177
646,0.0183
647,0.0182
648,0.0179
649,0.0182
650,0.0173
651,0.0183
652,0.0173
653,0.0172
654,0.0186
655,0.0184
656,0.0180
657,0.0194
658,0.0189
659,0.0189
660,0.0187
661,0.0198
662,0.0194
663,0.0194
664,0.0189
665,0.0209
666,0.0213
667,0.0205
668,0.0214
669,0.0221
670,0.0225
671,0.0235
672,0.0221
673,0.0243
674,0.0244
675,0.0249
676,0.0246
677,0.0255
678,0.0263
679,0.0263
680,0.0263
681,0.0279
682,0.0282
683,0.0278
684,0.0293
685,0.0293
686,0.0322
687,0.0312
688,0.0324
689,0.0321
690,0.0341
691,0.0344
692,0.0344
693,0.0359
694,0.0363
695,0.0382
696,0.0380
697,0.0389
698,0.0397
699,0.0401
700,0.0410
701,0.0431
702,0.0456
703,0.0448
704,0.0456
705,0.0476
706,0.0476
707,0.0476
708,0.0505
709,0.0510
710,0.0535
711,0.0532
712,0.0535
713,0.0556
714,0.0569
715,0.0576
716,0.0600
717,0.0596
718,0.0587
719,0.0595
720,0.0593
721,0.0623
722,0.0613
723,0.0631
724,0.0642
725,0.0655
726,0.0653
727,0.0656
728,0.0680
729,0.0701
730,0.0698
731,0.0713
732,0.0744
733,0.0734
734,0.0751
735,0.0775
736,0.0765
737,0.0790
738,0.0784
739,0.0786
740,0.0790
741,0.0777
742,0.0809
743,0.0823
744,0.0808
745,0.0810
746,0.0811
747,0.0821
748,0.0843
749,0.0838
750,0.0833
751,0.0840
752,0.0837
753,0.0838
754,0.0854
755,0.0849
756,0.0851
757,0.0857
758,0.0846
759,0.0854
760,0.0866
761,0.0853
762,0.0854
763,0.0872
764,0.0875
765,0.0867
766,0.0878
767,0.0883
768,0.0908
769,0.0890
770,0.0894
771,0.0891
772,0.0908
773,0.0892
774,0.0877
775,0.0896
776,0.0921
777,0.0896
778,0.0896
779,0.0910
780,0.0919
781,0.0889
782,0.0903
783,0.0916
784,0.0904
785,0.0904
786,0.0916
787,0.0902
788,0.0921
789,0.0931
790,0.0953
791,0.0925
792,0.0934
793,0.0938
794,0.0991
795,0.0981
796,0.0990
797,0.0994
798,0.1011
799,0.1014
800,0.1037
801,0.1045
802,0.1043
803,0.1048
804,0.1054
805,0.1069
806,0.1068
807,0.1074
808,0.1065
809,0.1057
810,0.1075
811,0.1061
812,0.1061
813,0.1063
814,0.1049
815,0.1056
816,0.1044
817,0.1047
818,0.1031
819,0.1040
820,0.1031
821,0.1042
822,0.1025
823,0.0997
824,0.1021
825,0.0990
826,0.1000
827,0.1004
828,0.0980
829,0.0991
830,0.0986
831,0.0982
832,0.0977
833,0.0949
834,0.0939
835,0.0954
836,0.0936
837,0.0947
838,0.0920
839,0.0930
840,0.0906
841,0.0927
842,0.0913
843,0.0892
844,0.0885
845,0.0866
846,0.0876
847,0.0862
848,0.0854
849,0.0834
850,0.0850
851,0.0839
852,0.0820
853,0.0815
854,0.0804
855,0.0809
856,0.0808
857,0.0774
858,0.0772
859,0.0776
860,0.0754
861,0.0735
862,0.0747
863,0.0734
864,0.0719
865,0.0725
866,0.0721
867,0.0698
868,0.0685
869,0.0690
870,0.0665
871,0.0643
872,0.0644
873,0.0631
874,0.0613
875,0.0601
876,0.0597
877,0.0612
878,0.0594
879,0.0595
880,0.0602
881,0.0617
882,0.0606
883,0.0627
884,0.0621
885,0.0625
886,0.0629
887,0.0625
888,0.0647
889,0.0651
890,0.0648
891,0.0656
892,0.0655
893,0.0639
894,0.0646
895,0.0644
896,0.0643
897,0.0650
898,0.0634
899,0.0635
900,0.0631
901,0.0635
902,0.0638
903,0.0614
904,0.0603
905,0.0626
906,0.0608
907,0.0595
908,0.0570
909,0.0563
910,0.0586
911,0.0572
912,0.0554
913,0.0551
914,0.0533
915,0.0528
916,0.0534
917,0.0520
918,0.0512
919,0.0496
920,0.0475
921,0.0496
922,0.0483
923,0.0482
924,0.0472
925,0.0462
926,0.0456
927,0.0451
928,0.0428
929,0.0412
930,0.0401
931,0.0382
932,0.0358
933,0.0327
934,0.0301
935,0.0283
936,0.0248
937,0.0212
938,0.0178
939,0.0153
940,0.0141
941,0.0112
942,0.0098
