400,1.0000
401,0.2250
402,1.0000
403,1.0000
404,0.0000
405,0.8750
406,0.6000
407,0.0000
408,0.7000
409,1.0000
410,0.2624
411,0.0638
412,0.2176
413,0.1911
414,0.2277
415,0.1841
416,0.2288
417,0.1697
418,0.1709
419,0.1986
420,0.3015
421,0.1589
422,0.2531
423,0.2825
424,0.2650
425,0.2546
426,0.2765
427,0.3352
428,0.3210
429,0.2817
430,0.3313
431,0.3243
432,0.3065
433,0.3195
434,0.3940
435,0.3976
436,0.3924
437,0.4011
438,0.4040
439,0.4113
440,0.4749
441,0.4174
442,0.4243
443,0.4370
444,0.4284
445,0.4449
446,0.4236
447,0.3723
448,0.3772
449,0.3534
450,0.3559
451,0.3321
452,0.3321
453,0.2967
454,0.2880
455,0.2802
456,0.2808
457,0.2685
458,0.2789
459,0.2795
460,0.2761
461,0.2662
462,0.2782
463,0.2777
464,0.2753
465,0.2868
466,0.2761
467,0.2810
468,0.2753
469,0.2761
470,0.2697
471,0.2684
472,0.2624
473,0.2484
474,0.2388
475,0.2266
476,0.2154
477,0.2090
478,0.2009
479,0.1946
480,0.2083
481,0.1917
482,0.1907
483,0.1868
484,0.1847
485,0.1858
486,0.1818
487,0.1795
488,0.1789
489,0.1757
490,0.1779
491,0.1676
492,0.1635
493,0.1640
494,0.1590
495,0.1521
496,0.1421
497,0.1451
498,0.1366
499,0.1404
500,0.1291
501,0.1243
502,0.1205
503,0.1166
504,0.1165
505,0.1151
506,0.1149
507,0.1116
508,0.1113
509,0.1080
510,0.1067
511,0.1090
512,0.1062
513,0.1047
514,0.1024
515,0.0961
516,0.0917
517,0.0906
518,0.0881
519,0.0873
520,0.0840
521,0.0832
522,0.0834
523,0.0818
524,0.0799
525,0.0794
526,0.0783
527,0.0745
528,0.0741
529,0.0747
530,0.0740
531,0.0712
532,0.0706
533,0.0706
534,0.0697
535,0.0689
536,0.0681
537,0.0681
538,0.0681
539,0.0678
540,0.0652
541,0.0650
542,0.0643
543,0.0645
544,0.0652
545,0.0663
546,0.0634
547,0.0630
548,0.0623
549,0.0615
550,0.0610
551,0.0607
552,0.0596
553,0.0591
554,0.0569
555,0.0555
556,0.0543
557,0.0529
558,0.0539
559,0.0509
560,0.0495
561,0.0478
562,0.0457
563,0.0447
564,0.0425
565,0.0409
566,0.0396
567,0.0391
568,0.0374
569,0.0372
570,0.0346
571,0.0330
572,0.0321
573,0.0311
574,0.0302
575,0.0294
576,0.0297
577,0.0278
578,0.0274
579,0.0264
580,0.0251
581,0.0245
582,0.0247
583,0.0234
584,0.0245
585,0.0219
586,0.0219
587,0.0216
588,0.0209
589,0.0202
590,0.0216
591,0.0212
592,0.0209
593,0.0201
594,0.0189
595,0.0210
596,0.0196
597,0.0203
598,0.0194
599,0.0201
600,0.0197
601,0.0197
602,0.0206
603,0.0212
604,0.0207
605,0.0191
606,0.0197
607,0.0211
608,0.0211
609,0.0206
610,0.0213
611,0.0215
612,0.0208
613,0.0218
614,0.0216
615,0.0228
616,0.0225
617,0.0237
618,0.0232
619,0.0228
620,0.0232
621,0.0231
622,0.0249
623,0.0254
624,0.0254
625,0.0262
626,0.0273
627,0.0279
628,0.0279
629,0.0298
630,0.0304
631,0.0312
632,0.0317
633,0.0328
634,0.0325
635,0.0333
636,0.0364
637,0.0367
638,0.0387
639,0.0387
640,0.0399
641,0.0422
642,0.0423
643,0.0442
644,0.0453
645,0.0460
646,0.0469
647,0.0488
648,0.0484
649,0.0511
650,0.0532
651,0.0542
652,0.0550
653,0.0557
654,0.0566
655,0.0600
656,0.0596
657,0.0632
658,0.0630
659,0.0678
660,0.0672
661,0.0672
662,0.0676
663,0.0698
664,0.0703
665,0.0733
666,0.0748
667,0.0746
668,0.0747
669,0.0789
670,0.0771
671,0.0794
672,0.0805
673,0.0823
674,0.0819
675,0.0825
676,0.0837
677,0.0845
678,0.0865
679,0.0865
680,0.0863
681,0.0903
682,0.0911
683,0.0905
684,0.0901
685,0.0918
686,0.0918
687,0.0938
688,0.0949
689,0.0948
690,0.0981
691,0.0998
692,0.0998
693,0.0985
694,0.1011
695,0.1030
696,0.1012
697,0.1029
698,0.1044
699,0.1067
700,0.1072
701,0.1099
702,0.1111
703,0.1108
704,0.1108
705,0.1139
706,0.1145
707,0.1137
708,0.1160
709,0.1145
710,0.1193
711,0.1186
712,0.1176
713,0.1198
714,0.1221
715,0.1203
716,0.1219
717,0.1265
718,0.1250
719,0.1245
720,0.1236
721,0.1232
722,0.1236
723,0.1248
724,0.1262
725,0.1255
726,0.1281
727,0.1277
728,0.1292
729,0.1313
730,0.1298
731,0.1319
732,0.1332
733,0.1326
734,0.1344
735,0.1350
736,0.1362
737,0.1348
738,0.1354
739,0.1364
740,0.1343
741,0.1344
742,0.1342
743,0.1341
744,0.1357
745,0.1357
746,0.1336
747,0.1333
748,0.1348
749,0.1331
750,0.1306
751,0.1315
752,0.1324
753,0.1318
754,0.1320
755,0.1286
756,0.1312
757,0.1315
758,0.1282
759,0.1280
760,0.1282
761,0.1288
762,0.1255
763,0.1265
764,0.1281
765,0.1264
766,0.1255
767,0.1249
768,0.1251
769,0.1252
770,0.1235
771,0.1244
772,0.1233
773,0.1220
774,0.1207
775,0.1216
776,0.1221
777,0.1200
778,0.1175
779,0.1184
780,0.1194
781,0.1174
782,0.1189
783,0.1168
784,0.1183
785,0.1159
786,0.1180
787,0.1148
788,0.1137
789,0.1174
790,0.1175
791,0.1179
792,0.1158
793,0.1170
794,0.1175
795,0.1184
796,0.1196
797,0.1201
798,0.1226
799,0.1213
800,0.1212
801,0.1215
802,0.1223
803,0.1222
804,0.1220
805,0.1222
806,0.1243
807,0.1229
808,0.1221
809,0.1208
810,0.1221
811,0.1202
812,0.1194
813,0.1181
814,0.1166
815,0.1176
816,0.1154
817,0.1148
818,0.1134
819,0.1125
820,0.1141
821,0.1121
822,0.1097
823,0.1093
824,0.1085
825,0.1071
826,0.1062
827,0.1058
828,0.1043
829,0.1049
830,0.1028
831,0.1017
832,0.1014
833,0.0980
834,0.0978
835,0.0974
836,0.0972
837,0.0967
838,0.0959
839,0.0951
840,0.0936
841,0.0906
842,0.0909
843,0.0894
844,0.0889
845,0.0882
846,0.0847
847,0.0855
848,0.0828
849,0.0819
850,0.0820
851,0.0798
852,0.0797
853,0.0808
854,0.0781
855,0.0777
856,0.0776
857,0.0744
858,0.0750
859,0.0731
860,0.0711
861,0.0708
862,0.0697
863,0.0677
864,0.0666
865,0.0671
866,0.0667
867,0.0649
868,0.0629
869,0.0625
870,0.0600
871,0.0594
872,0.0574
873,0.0548
874,0.0555
875,0.0555
876,0.0546
877,0.0546
878,0.0524
879,0.0520
880,0.0533
881,0.0542
882,0.0540
883,0.0539
884,0.0544
885,0.0546
886,0.0548
887,0.0537
888,0.0557
889,0.0542
890,0.0553
891,0.0557
892,0.0563
893,0.0556
894,0.0561
895,0.0544
896,0.0540
897,0.0533
898,0.0535
899,0.0527
900,0.0519
901,0.0519
902,0.0511
903,0.0506
904,0.0499
905,0.0504
906,0.0499
907,0.0482
908,0.0456
909,0.0464
910,0.0468
911,0.0455
912,0.0434
913,0.0448
914,0.0416
915,0.0423
916,0.0419
917,0.0406
918,0.0403
919,0.0381
920,0.0374
921,0.0387
922,0.0364
923,0.0378
924,0.0358
925,0.0346
926,0.0353
927,0.0341
928,0.0330
929,0.0304
930,0.0308
931,0.0283
932,0.0259
933,0.0254
934,0.0227
935,0.0213
936,0.0177
937,0.0156
938,0.0124
939,0.0108
940,0.0094
941,0.0080
942,0.0072
