399.985280,0.310811
400.329500,0.283784
400.673680,0.341772
401.017820,0.205882
401.361920,0.242424
401.705980,0.280488
402.050000,0.272727
402.393980,0.341176
402.737920,0.247191
403.081820,0.288660
403.425680,0.360465
403.769500,0.187500
404.113280,0.275862
404.457020,0.325843
404.800720,0.239130
405.144380,0.323232
405.488000,0.258065
405.831580,0.288660
406.175120,0.234043
406.518620,0.250000
406.862080,0.257732
407.205500,0.218750
407.548880,0.204082
407.892220,0.294118
408.235520,0.287234
408.578780,0.323810
408.922000,0.201923
409.265180,0.282828
409.608320,0.232323
409.951420,0.288660
410.294480,0.284314
410.637500,0.228261
410.980480,0.215686
411.323420,0.204082
411.666320,0.229358
412.009180,0.236364
412.352000,0.148515
412.694780,0.266055
413.037520,0.183486
413.380220,0.216216
413.722880,0.241071
414.065500,0.261261
414.408080,0.185841
414.750620,0.185841
415.093120,0.206612
415.435580,0.226891
415.778000,0.227273
416.120380,0.201681
416.462720,0.182540
416.805020,0.172932
417.147280,0.216418
417.489500,0.207143
417.831680,0.171233
418.173820,0.191489
418.515920,0.167832
418.857980,0.189873
419.200000,0.173077
419.541980,0.171598
419.883920,0.168539
420.225820,0.208092
420.567680,0.145251
420.909500,0.163934
421.251280,0.192708
421.593020,0.163265
421.934720,0.186869
422.276380,0.179487
422.618000,0.176471
422.959580,0.171569
423.301120,0.155251
423.642620,0.156522
423.984080,0.153488
424.325500,0.134529
424.666880,0.163793
425.008220,0.168067
425.349520,0.161017
425.690780,0.169231
426.032000,0.168627
426.373180,0.174274
426.714320,0.171875
427.055420,0.169884
427.396480,0.187266
427.737500,0.162055
428.078480,0.162055
428.419420,0.168675
428.760320,0.164751
429.101180,0.181102
429.442000,0.191571
429.782780,0.165385
430.123520,0.211765
430.464220,0.154982
430.804880,0.183908
431.145500,0.149091
431.486080,0.191011
431.826620,0.162791
432.167120,0.176471
432.507580,0.181159
432.848000,0.172662
433.188380,0.176895
433.528720,0.196226
433.869020,0.189286
434.209280,0.178947
434.549500,0.191638
434.889680,0.171717
435.229820,0.180887
435.569920,0.179931
435.909980,0.181230
436.250000,0.189831
436.589980,0.185759
436.929920,0.200000
437.269820,0.191223
437.609680,0.207101
437.949500,0.210843
438.289280,0.192635
438.629020,0.209302
438.968720,0.188953
439.308380,0.200542
439.648000,0.224658
439.987580,0.206349
440.327120,0.208000
440.666620,0.202597
441.006080,0.232737
441.345500,0.218673
441.684880,0.215311
442.024220,0.208437
442.363520,0.209524
442.702780,0.209091
443.042000,0.222467
443.381180,0.232759
443.720320,0.228942
444.059420,0.237395
444.398480,0.221757
444.737500,0.241803
445.076480,0.232143
445.415420,0.261477
445.754320,0.241164
446.093180,0.238532
446.432000,0.253759
446.770780,0.242884
447.109520,0.259191
447.448220,0.248658
447.786880,0.264758
448.125500,0.270690
448.464080,0.255357
448.802620,0.262411
449.141120,0.264706
449.479580,0.270979
449.818000,0.278830
450.156380,0.265886
450.494720,0.277686
450.833020,0.272727
451.171280,0.260274
451.509500,0.287456
451.847680,0.300169
452.185820,0.285714
452.523920,0.307560
452.861980,0.298482
453.200000,0.285714
453.537980,0.290756
453.875920,0.317647
454.213820,0.291096
454.551680,0.299669
454.889500,0.295110
455.227280,0.293594
455.565020,0.308208
455.902720,0.311148
456.240380,0.307820
456.578000,0.318815
456.915580,0.310881
457.253120,0.305921
457.590620,0.323481
457.928080,0.335017
458.265500,0.326014
458.602880,0.326299
458.940220,0.338409
459.277520,0.318400
459.614780,0.350245
459.952000,0.321429
460.289180,0.332278
460.626320,0.344882
460.963420,0.342488
461.300480,0.345566
461.637500,0.342065
461.974480,0.353211
462.311420,0.351714
462.648320,0.354319
462.985180,0.364419
463.322000,0.367560
463.658780,0.349448
463.995520,0.354883
464.332220,0.358726
464.668880,0.360215
465.005500,0.364611
465.342080,0.366197
465.678620,0.356704
466.015120,0.375162
466.351580,0.374210
466.688000,0.370280
467.024380,0.366950
467.360720,0.371591
467.697020,0.376993
468.033280,0.381111
468.369500,0.385210
468.705680,0.382187
469.041820,0.363542
469.377920,0.376356
469.713980,0.374871
470.050000,0.392271
470.385980,0.385519
470.721920,0.385896
471.057820,0.398635
471.393680,0.378859
471.729500,0.382762
472.065280,0.397138
472.401020,0.389184
472.736720,0.407504
473.072380,0.403950
473.408000,0.386423
473.743580,0.397924
474.079120,0.411714
474.414620,0.402884
474.750080,0.400325
475.085500,0.400493
475.420880,0.403830
475.756220,0.404742
476.091520,0.405797
476.426780,0.408576
476.762000,0.399035
477.097180,0.401600
477.432320,0.401454
477.767420,0.410948
478.102480,0.403150
478.437500,0.415435
478.772480,0.397951
479.107420,0.400325
479.442320,0.406875
479.777180,0.415274
480.112000,0.414484
480.446780,0.398285
480.781520,0.412238
481.116220,0.417947
481.450880,0.409055
481.785500,0.420886
482.120080,0.412226
482.454620,0.421134
482.789120,0.412420
483.123580,0.406542
483.458000,0.413766
483.792380,0.420927
484.126720,0.407722
484.461020,0.417642
484.795280,0.421742
485.129500,0.414653
485.463680,0.414729
485.797820,0.420684
486.131920,0.416220
486.465980,0.413900
486.800000,0.413740
487.133980,0.413142
487.467920,0.419281
487.801820,0.424104
488.135680,0.416224
488.469500,0.411498
488.803280,0.406389
489.137020,0.418315
489.470720,0.418398
489.804380,0.415739
490.138000,0.415430
490.471580,0.424466
490.805120,0.406719
491.138620,0.411514
491.472080,0.419081
491.805500,0.411437
492.138880,0.411397
492.472220,0.411765
492.805520,0.414106
493.138780,0.421778
493.472000,0.413378
493.805180,0.414052
494.138320,0.408939
494.471420,0.408854
494.804480,0.416559
495.137500,0.403081
495.470480,0.414277
495.803420,0.399874
496.136320,0.414160
496.469180,0.410068
496.802000,0.400978
497.134780,0.404488
497.467520,0.407339
497.800220,0.405660
498.132880,0.397413
498.465500,0.400348
498.798080,0.391553
499.130620,0.410444
499.463120,0.401460
499.795580,0.399340
500.128000,0.395640
500.460380,0.399354
500.792720,0.391835
501.125020,0.396217
501.457280,0.394256
501.789500,0.391529
502.121680,0.403318
502.453820,0.396736
502.785920,0.391696
503.117980,0.392542
503.450000,0.393270
503.781980,0.393124
504.113920,0.384542
504.445820,0.381624
504.777680,0.380706
505.109500,0.383654
505.441280,0.387667
505.773020,0.381400
506.104720,0.384362
506.436380,0.372929
506.768000,0.376052
507.099580,0.374828
507.431120,0.368618
507.762620,0.379229
508.094080,0.375114
508.425500,0.375350
508.756880,0.377229
509.088220,0.370285
509.419520,0.366387
509.750780,0.366448
510.082000,0.362873
510.413180,0.363888
510.744320,0.362172
511.075420,0.361595
511.406480,0.356841
511.737500,0.354630
512.068480,0.356673
512.399420,0.353521
512.730320,0.343649
513.061180,0.353473
513.392000,0.352106
513.722780,0.350624
514.053520,0.353618
514.384220,0.345385
514.714880,0.346577
515.045500,0.340038
515.376080,0.345278
515.706620,0.337555
516.037120,0.345588
516.367580,0.343519
516.698000,0.332353
517.028380,0.337140
517.358720,0.334321
517.689020,0.332344
518.019280,0.331159
518.349500,0.338571
518.679680,0.334175
519.009820,0.328947
519.339920,0.332665
519.669980,0.326469
520.000000,0.324503
520.329980,0.328149
520.659920,0.325153
520.989820,0.328173
521.319680,0.323560
521.649500,0.320823
521.979280,0.326722
522.309020,0.316390
522.638720,0.313876
522.968380,0.313857
523.298000,0.306367
523.627580,0.310398
523.957120,0.305455
524.286620,0.308494
524.616080,0.305067
524.945500,0.312145
525.274880,0.307850
525.604220,0.302795
525.933520,0.301363
526.262780,0.290421
526.592000,0.299340
526.921180,0.296089
527.250320,0.294267
527.579420,0.294088
527.908480,0.284097
528.237500,0.294935
528.566480,0.288922
528.895420,0.301626
529.224320,0.286776
529.553180,0.283373
529.882000,0.288078
530.210780,0.285714
530.539520,0.289549
530.868220,0.286740
531.196880,0.277592
531.525500,0.283777
531.854080,0.272514
532.182620,0.272770
532.511120,0.282599
532.839580,0.281760
533.168000,0.278031
533.496380,0.280822
533.824720,0.278152
534.153020,0.275970
534.481280,0.271806
534.809500,0.279683
535.137680,0.268229
535.465820,0.268900
535.793920,0.268613
536.121980,0.266890
536.450000,0.269767
536.777980,0.268119
537.105920,0.267746
537.433820,0.266367
537.761680,0.263673
538.089500,0.267908
538.417280,0.261838
538.745020,0.261886
539.072720,0.261617
539.400380,0.260295
539.728000,0.264245
540.055580,0.254682
540.383120,0.260611
540.710620,0.257068
541.038080,0.257101
541.365500,0.259191
541.692880,0.250000
542.020220,0.250810
542.347520,0.250897
542.674780,0.255116
543.002000,0.253674
543.329180,0.253946
543.656320,0.257032
543.983420,0.241709
544.310480,0.254502
544.637500,0.251109
544.964480,0.252019
545.291420,0.246926
545.618320,0.247012
545.945180,0.247528
546.272000,0.245085
546.598780,0.243854
546.925520,0.249588
547.252220,0.246946
547.578880,0.246660
547.905500,0.243791
548.232080,0.249838
548.558620,0.245037
548.885120,0.243703
549.211580,0.244294
549.538000,0.250000
549.864380,0.245659
550.190720,0.247336
550.517020,0.245111
550.843280,0.243322
551.169500,0.245547
551.495680,0.242116
551.821820,0.246897
552.147920,0.241705
552.473980,0.244979
552.800000,0.246566
553.125980,0.246562
553.451920,0.245189
553.777820,0.247835
554.103680,0.241658
554.429500,0.244058
554.755280,0.248665
555.081020,0.244652
555.406720,0.244497
555.732380,0.246696
556.058000,0.243381
556.383580,0.244094
556.709120,0.243625
557.034620,0.243541
557.360080,0.241796
557.685500,0.242739
558.010880,0.250260
558.336220,0.243234
558.661520,0.252038
558.986780,0.245925
559.312000,0.247507
559.637180,0.245601
559.962320,0.252403
560.287420,0.254231
560.612480,0.247937
560.937500,0.250367
561.262480,0.246334
561.587420,0.255713
561.912320,0.249816
562.237180,0.252406
562.562000,0.255518
562.886780,0.252694
563.211520,0.251490
563.536220,0.251577
563.860880,0.258770
564.185500,0.252533
564.510080,0.260346
564.834620,0.258653
565.159120,0.258271
565.483580,0.255416
565.808000,0.260310
566.132380,0.258859
566.456720,0.262661
566.781020,0.265566
567.105280,0.261248
567.429500,0.270486
567.753680,0.260453
568.077820,0.266718
568.401920,0.268908
568.725980,0.274383
569.050000,0.269202
569.373980,0.266844
569.697920,0.269245
570.021820,0.267790
570.345680,0.267126
570.669500,0.281572
570.993280,0.276855
571.317020,0.273657
571.640720,0.283068
571.964380,0.279881
572.288000,0.280045
572.611580,0.282291
572.935120,0.282080
573.258620,0.290950
573.582080,0.285395
573.905500,0.286299
574.228880,0.286563
574.552220,0.289117
574.875520,0.288905
575.198780,0.290206
575.522000,0.289589
575.845180,0.289756
576.168320,0.295724
576.491420,0.307776
576.814480,0.300181
577.137500,0.303030
577.460480,0.302283
577.783420,0.300107
578.106320,0.303775
578.429180,0.306822
578.752000,0.309482
579.074780,0.311868
579.397520,0.310846
579.720220,0.318855
580.042880,0.314503
580.365500,0.313369
580.688080,0.321913
581.010620,0.318596
581.333120,0.317301
581.655580,0.324342
581.978000,0.331227
582.300380,0.321973
582.622720,0.332235
582.945020,0.326398
583.267280,0.336047
583.589500,0.334510
583.911680,0.335345
584.233820,0.333648
584.555920,0.330917
584.877980,0.338254
585.200000,0.342541
585.521980,0.340748
585.843920,0.343807
586.165820,0.340951
586.487680,0.345471
586.809500,0.344734
587.131280,0.346051
587.453020,0.357440
587.774720,0.352158
588.096380,0.355601
588.418000,0.358502
588.739580,0.365047
589.061120,0.359402
589.382620,0.360458
589.704080,0.362132
590.025500,0.367009
590.346880,0.371838
590.668220,0.366284
590.989520,0.365502
591.310780,0.376139
591.632000,0.375683
591.953180,0.376418
592.274320,0.377013
592.595420,0.380657
592.916480,0.384406
593.237500,0.386149
593.558480,0.393059
593.879420,0.386566
594.200320,0.392178
594.521180,0.391235
594.842000,0.398979
595.162780,0.406784
595.483520,0.402553
595.804220,0.403867
596.124880,0.406875
596.445500,0.405292
596.766080,0.410863
597.086620,0.408970
597.407120,0.406793
597.727580,0.408115
598.048000,0.419466
598.368380,0.416886
598.688720,0.416514
599.009020,0.421975
599.329280,0.422299
599.649500,0.422081
599.969680,0.421207
600.289820,0.434562
600.609920,0.426663
600.929980,0.430251
601.250000,0.435946
601.569980,0.436673
601.889920,0.436782
602.209820,0.438582
602.529680,0.444383
602.849500,0.444354
603.169280,0.449986
603.489020,0.450318
603.808720,0.445694
604.128380,0.453918
604.448000,0.454972
604.767580,0.452793
605.087120,0.448476
605.406620,0.463476
605.726080,0.466496
606.045500,0.459738
606.364880,0.461015
606.684220,0.467162
607.003520,0.473337
607.322780,0.474133
607.642000,0.474727
607.961180,0.473258
608.280320,0.475638
608.599420,0.476535
608.918480,0.482111
609.237500,0.483862
609.556480,0.484759
609.875420,0.488187
610.194320,0.482728
610.513180,0.487126
610.832000,0.500893
611.150780,0.491739
611.469520,0.500151
611.788220,0.504837
612.106880,0.494270
612.425500,0.495737
612.744080,0.506925
613.062620,0.505810
613.381120,0.504875
613.699580,0.513489
614.018000,0.511364
614.336380,0.516039
614.654720,0.509457
614.973020,0.512188
615.291280,0.516269
615.609500,0.522979
615.927680,0.520087
616.245820,0.520099
616.563920,0.521604
616.881980,0.524166
617.200000,0.523795
617.517980,0.529247
617.835920,0.534327
618.153820,0.526267
618.471680,0.534574
618.789500,0.535557
619.107280,0.547105
619.425020,0.545829
619.742720,0.545198
620.060380,0.540896
620.378000,0.546570
620.695580,0.550128
621.013120,0.548031
621.330620,0.554754
621.648080,0.543533
621.965500,0.550816
622.282880,0.551387
622.600220,0.557170
622.917520,0.559861
623.234780,0.577628
623.552000,0.568746
623.869180,0.560668
624.186320,0.573384
624.503420,0.566458
624.820480,0.575872
625.137500,0.574676
625.454480,0.577055
625.771420,0.574716
626.088320,0.577869
626.405180,0.590230
626.722000,0.579046
627.038780,0.580201
627.355520,0.579375
627.672220,0.587869
627.988880,0.588802
628.305500,0.591150
628.622080,0.597274
628.938620,0.595719
629.255120,0.600498
629.571580,0.595464
629.888000,0.592820
630.204380,0.604480
630.520720,0.602681
630.837020,0.600678
631.153280,0.605216
631.469500,0.609157
631.785680,0.606992
632.101820,0.615501
632.417920,0.617884
632.733980,0.604142
633.050000,0.627956
633.365980,0.613811
633.681920,0.623807
633.997820,0.623431
634.313680,0.615748
634.629500,0.611914
634.945280,0.622874
635.261020,0.629586
635.576720,0.633588
635.892380,0.630555
636.208000,0.634515
636.523580,0.639871
636.839120,0.626809
637.154620,0.642609
637.470080,0.632999
637.785500,0.648593
638.100880,0.641471
638.416220,0.650848
638.731520,0.644986
639.046780,0.643461
639.362000,0.640195
639.677180,0.648201
639.992320,0.650127
640.307420,0.647935
640.622480,0.654439
640.937500,0.646047
641.252480,0.657917
641.567420,0.656721
641.882320,0.653953
642.197180,0.661707
642.512000,0.661349
642.826780,0.663245
643.141520,0.675188
643.456220,0.667681
643.770880,0.670536
644.085500,0.669927
644.400080,0.677809
644.714620,0.669175
645.029120,0.671892
645.343580,0.671146
645.658000,0.677213
645.972380,0.676898
646.286720,0.678386
646.601020,0.682812
646.915280,0.680285
647.229500,0.676923
647.543680,0.682684
647.857820,0.681255
648.171920,0.686381
648.485980,0.685119
648.800000,0.677597
649.113980,0.689024
649.427920,0.687656
649.741820,0.682056
650.055680,0.689797
650.369500,0.696469
650.683280,0.688957
650.997020,0.687569
651.310720,0.687672
651.624380,0.684615
651.938000,0.694737
652.251580,0.693014
652.565120,0.688932
652.878620,0.699887
653.192080,0.702247
653.505500,0.696213
653.818880,0.709696
654.132220,0.698092
654.445520,0.696256
654.758780,0.694901
655.072000,0.694842
655.385180,0.699287
655.698320,0.698199
656.011420,0.704786
656.324480,0.704168
656.637500,0.705388
656.950480,0.708749
657.263420,0.705882
657.576320,0.710050
657.889180,0.712769
658.202000,0.709843
658.514780,0.708247
658.827520,0.716387
659.140220,0.706323
659.452880,0.719118
659.765500,0.714630
660.078080,0.703581
660.390620,0.706691
660.703120,0.715551
661.015580,0.716871
661.328000,0.729219
661.640380,0.716372
661.952720,0.708813
662.265020,0.713611
662.577280,0.713104
662.889500,0.715232
663.201680,0.716018
663.513820,0.710196
663.825920,0.712776
664.137980,0.718487
664.450000,0.709399
664.761980,0.727005
665.073920,0.717300
665.385820,0.710079
665.697680,0.722645
666.009500,0.716994
666.321280,0.716037
666.633020,0.724402
666.944720,0.722952
667.256380,0.724764
667.568000,0.719769
667.879580,0.722109
668.191120,0.731113
668.502620,0.727833
668.814080,0.728772
669.125500,0.723230
669.436880,0.721992
669.748220,0.717203
670.059520,0.728291
670.370780,0.729297
670.682000,0.727080
670.993180,0.727977
671.304320,0.723980
671.615420,0.725142
671.926480,0.724627
672.237500,0.720615
672.548480,0.728886
672.859420,0.729807
673.170320,0.728328
673.481180,0.737871
673.792000,0.719798
674.102780,0.728905
674.413520,0.731316
674.724220,0.717604
675.034880,0.724972
675.345500,0.727206
675.656080,0.723049
675.966620,0.729356
676.277120,0.725009
676.587580,0.733800
676.898000,0.736842
677.208380,0.730869
677.518720,0.728301
677.829020,0.732816
678.139280,0.731282
678.449500,0.730412
678.759680,0.730611
679.069820,0.726394
679.379920,0.718597
679.689980,0.727813
680.000000,0.726729
680.309980,0.724202
680.619920,0.733434
680.929820,0.730123
681.239680,0.725997
681.549500,0.722222
681.859280,0.721807
682.169020,0.724730
682.478720,0.734480
682.788380,0.730159
683.098000,0.730366
683.407580,0.724203
683.717120,0.721096
684.026620,0.721009
684.336080,0.725654
684.645500,0.726525
684.954880,0.720060
685.264220,0.715742
685.573520,0.722878
685.882780,0.739164
686.192000,0.718585
686.501180,0.726447
686.810320,0.722137
687.119420,0.737362
687.428480,0.722750
687.737500,0.721412
688.046480,0.716641
688.355420,0.722746
688.664320,0.720735
688.973180,0.723583
689.282000,0.724151
689.590780,0.719709
689.899520,0.718572
690.208220,0.725535
690.516880,0.723559
690.825500,0.718868
691.134080,0.713743
691.442620,0.712652
691.751120,0.719757
692.059580,0.716851
692.368000,0.715638
692.676380,0.722137
692.984720,0.712214
693.293020,0.717705
693.601280,0.712705
693.909500,0.715475
694.217680,0.707540
694.525820,0.720868
694.833920,0.712324
695.141980,0.710374
695.450000,0.710305
695.757980,0.696715
696.065920,0.703689
696.373820,0.711316
696.681680,0.695052
696.989500,0.700502
697.297280,0.705562
697.605020,0.707937
697.912720,0.699462
698.220380,0.705234
698.528000,0.713212
698.835580,0.704465
699.143120,0.700312
699.450620,0.706046
699.758080,0.691765
700.065500,0.705507
700.372880,0.696000
700.680220,0.703231
700.987520,0.696825
701.294780,0.698297
701.602000,0.701664
701.909180,0.702703
702.216320,0.686742
702.523420,0.693370
702.830480,0.700198
703.137500,0.682385
703.444480,0.695069
703.751420,0.695464
704.058320,0.687376
704.365180,0.693612
704.672000,0.701782
704.978780,0.687085
705.285520,0.684272
705.592220,0.680392
705.898880,0.693459
706.205500,0.693271
706.512080,0.686414
706.818620,0.691176
707.125120,0.679615
707.431580,0.680344
707.738000,0.690234
708.044380,0.678888
708.350720,0.667558
708.657020,0.688550
708.963280,0.679736
709.269500,0.680235
709.575680,0.690766
709.881820,0.684748
710.187920,0.684436
710.493980,0.667184
710.800000,0.671243
711.105980,0.665663
711.411920,0.677178
711.717820,0.673294
712.023680,0.660319
712.329500,0.674685
712.635280,0.668605
712.941020,0.661384
713.246720,0.666008
713.552380,0.675039
713.858000,0.666535
714.163580,0.659826
714.469120,0.661977
714.774620,0.666403
715.080080,0.657636
715.385500,0.670663
715.690880,0.649310
715.996220,0.658875
716.301520,0.653755
716.606780,0.661164
716.912000,0.662359
717.217180,0.653232
717.522320,0.640557
717.827420,0.653377
718.132480,0.652348
718.437500,0.649001
718.742480,0.653226
719.047420,0.638350
719.352320,0.645081
719.657180,0.642682
719.962000,0.646816
720.266780,0.644786
720.571520,0.630903
720.876220,0.628478
721.180880,0.631271
721.485500,0.635604
721.790080,0.634395
722.094620,0.633791
722.399120,0.643688
722.703580,0.627947
723.008000,0.630444
723.312380,0.624623
723.616720,0.626434
723.921020,0.622347
724.225280,0.618674
724.529500,0.624781
724.833680,0.626335
725.137820,0.620705
725.441920,0.617922
725.745980,0.610738
726.050000,0.610284
726.353980,0.616494
726.657920,0.613135
726.961820,0.605936
727.265680,0.613500
727.569500,0.614717
727.873280,0.600924
728.177020,0.606172
728.480720,0.602315
728.784380,0.612494
729.088000,0.606218
729.391580,0.608716
729.695120,0.617562
729.998620,0.603728
730.302080,0.598270
730.605500,0.598738
730.908880,0.588437
731.212220,0.587659
731.515520,0.598732
731.818780,0.591262
732.122000,0.589567
732.425180,0.589946
732.728320,0.588498
733.031420,0.584962
733.334480,0.589796
733.637500,0.588206
733.940480,0.594166
734.243420,0.583078
734.546320,0.592842
734.849180,0.560950
735.152000,0.578320
735.454780,0.582128
735.757520,0.573235
736.060220,0.569774
736.362880,0.569328
736.665500,0.560313
736.968080,0.567974
737.270620,0.568318
737.573120,0.577511
737.875580,0.575591
738.178000,0.574306
738.480380,0.565946
738.782720,0.563795
739.085020,0.561674
739.387280,0.550443
739.689500,0.561721
739.991680,0.560921
740.293820,0.548922
740.595920,0.558152
740.897980,0.550536
741.200000,0.554122
741.501980,0.554728
741.803920,0.553491
742.105820,0.551607
742.407680,0.559697
742.709500,0.538636
743.011280,0.546893
743.313020,0.534493
743.614720,0.535694
743.916380,0.535465
744.218000,0.539976
744.519580,0.542271
744.821120,0.545509
745.122620,0.530258
745.424080,0.527644
745.725500,0.522631
746.026880,0.531404
746.328220,0.538841
746.629520,0.526791
746.930780,0.520221
747.232000,0.521766
747.533180,0.521660
747.834320,0.533780
748.135420,0.522063
748.436480,0.520898
748.737500,0.516368
749.038480,0.522908
749.339420,0.523958
749.640320,0.510999
749.941180,0.505934
750.242000,0.501256
750.542780,0.514268
750.843520,0.516976
751.144220,0.508974
751.444880,0.512999
751.745500,0.506494
752.046080,0.523412
752.346620,0.491624
752.647120,0.493795
752.947580,0.506468
753.248000,0.499678
753.548380,0.504229
753.848720,0.488088
754.149020,0.481625
754.449280,0.491793
754.749500,0.501659
755.049680,0.487333
755.349820,0.489660
755.649920,0.497687
755.949980,0.499005
756.250000,0.491124
756.549980,0.467327
756.849920,0.486064
757.149820,0.471723
757.449680,0.481188
757.749500,0.479209
758.049280,0.488055
758.349020,0.481224
758.648720,0.492754
758.948380,0.476289
759.248000,0.475067
759.547580,0.479489
759.847120,0.467953
760.146620,0.470907
760.446080,0.471102
760.745500,0.465734
761.044880,0.465909
761.344220,0.457591
761.643520,0.464689
761.942780,0.466060
762.242000,0.462518
762.541180,0.464789
762.840320,0.462079
763.139420,0.450774
763.438480,0.458647
763.737500,0.458305
764.036480,0.460517
764.335420,0.450247
764.634320,0.449757
764.933180,0.453425
765.232000,0.456627
765.530780,0.456140
765.829520,0.453846
766.128220,0.453723
766.426880,0.452736
766.725500,0.451679
767.024080,0.444444
767.322620,0.450899
767.621120,0.444444
767.919580,0.441638
768.218000,0.441176
768.516380,0.436782
768.814720,0.439643
769.113020,0.430737
769.411280,0.426796
769.709500,0.424222
770.007680,0.428085
770.305820,0.422583
770.603920,0.423854
770.901980,0.432377
771.200000,0.429348
771.497980,0.421582
771.795920,0.423411
772.093820,0.412433
772.391680,0.424522
772.689500,0.423649
772.987280,0.414141
773.285020,0.420369
773.582720,0.421622
773.880380,0.422787
774.178000,0.419905
774.475580,0.409243
774.773120,0.414993
775.070620,0.425287
775.368080,0.412158
775.665500,0.408999
775.962880,0.408272
776.260220,0.414536
776.557520,0.412942
776.854780,0.413117
777.152000,0.402520
777.449180,0.412003
777.746320,0.395161
778.043420,0.407231
778.340480,0.397158
778.637500,0.408384
778.934480,0.400807
779.231420,0.393487
779.528320,0.392786
779.825180,0.395257
780.122000,0.394422
780.418780,0.404925
780.715520,0.395037
781.012220,0.397945
781.308880,0.392833
781.605500,0.395205
781.902080,0.389459
782.198620,0.399863
782.495120,0.395062
782.791580,0.394773
783.088000,0.396825
783.384380,0.394773
783.680720,0.385089
783.977020,0.380592
784.273280,0.390210
784.569500,0.394130
784.865680,0.390821
785.161820,0.378472
785.457920,0.383229
785.753980,0.378925
786.050000,0.379144
786.345980,0.379861
786.641920,0.383067
786.937820,0.388177
787.233680,0.368824
787.529500,0.383495
787.825280,0.380312
788.121020,0.376062
788.416720,0.371207
788.712380,0.368829
789.008000,0.373229
789.303580,0.380919
789.599120,0.377455
789.894620,0.374007
790.190080,0.356780
790.485500,0.369330
790.780880,0.366308
791.076220,0.376623
791.371520,0.373275
791.666780,0.375273
791.962000,0.362234
792.257180,0.360908
792.552320,0.357505
792.847420,0.368268
793.142480,0.366300
793.437500,0.356729
793.732480,0.366496
794.027420,0.358309
794.322320,0.371365
794.617180,0.353640
794.912000,0.347697
795.206780,0.363908
795.501520,0.359696
795.796220,0.351111
796.090880,0.358704
796.385500,0.351574
796.680080,0.349289
796.974620,0.363024
797.269120,0.355791
797.563580,0.354962
797.858000,0.356112
798.152380,0.348801
798.446720,0.353077
798.741020,0.353621
799.035280,0.343168
799.329500,0.353349
799.623680,0.355039
