399.985280,0.378378
400.329500,0.337838
400.673680,0.341772
401.017820,0.455882
401.361920,0.469697
401.705980,0.353659
402.050000,0.402597
402.393980,0.447059
402.737920,0.426966
403.081820,0.391753
403.425680,0.441860
403.769500,0.375000
404.113280,0.344828
404.457020,0.382022
404.800720,0.347826
405.144380,0.393939
405.488000,0.365591
405.831580,0.381443
406.175120,0.372340
406.518620,0.370000
406.862080,0.463918
407.205500,0.364583
407.548880,0.387755
407.892220,0.421569
408.235520,0.382979
408.578780,0.438095
408.922000,0.336538
409.265180,0.373737
409.608320,0.383838
409.951420,0.443299
410.294480,0.421569
410.637500,0.402174
410.980480,0.401961
411.323420,0.357143
411.666320,0.394495
412.009180,0.445455
412.352000,0.356436
412.694780,0.412844
413.037520,0.348624
413.380220,0.414414
413.722880,0.428571
414.065500,0.378378
414.408080,0.389381
414.750620,0.345133
415.093120,0.338843
415.435580,0.378151
415.778000,0.363636
416.120380,0.352941
416.462720,0.404762
416.805020,0.383459
417.147280,0.373134
417.489500,0.371429
417.831680,0.376712
418.173820,0.354610
418.515920,0.363636
418.857980,0.348101
419.200000,0.346154
419.541980,0.319527
419.883920,0.292135
420.225820,0.312139
420.567680,0.340782
420.909500,0.333333
421.251280,0.348958
421.593020,0.336735
421.934720,0.333333
422.276380,0.353846
422.618000,0.318627
422.959580,0.323529
423.301120,0.337900
423.642620,0.291304
423.984080,0.288372
424.325500,0.278027
424.666880,0.306034
425.008220,0.306723
425.349520,0.313559
425.690780,0.296154
426.032000,0.270588
426.373180,0.307054
426.714320,0.292969
427.055420,0.281853
427.396480,0.288390
427.737500,0.252964
428.078480,0.268775
428.419420,0.265060
428.760320,0.268199
429.101180,0.291339
429.442000,0.249042
429.782780,0.261538
430.123520,0.286275
430.464220,0.276753
430.804880,0.279693
431.145500,0.265455
431.486080,0.269663
431.826620,0.267442
432.167120,0.257353
432.507580,0.257246
432.848000,0.255396
433.188380,0.241877
433.528720,0.256604
433.869020,0.250000
434.209280,0.210526
434.549500,0.254355
434.889680,0.235690
435.229820,0.228669
435.569920,0.231834
435.909980,0.223301
436.250000,0.223729
436.589980,0.216718
436.929920,0.231746
437.269820,0.228840
437.609680,0.230769
437.949500,0.228916
438.289280,0.229462
438.629020,0.235465
438.968720,0.232558
439.308380,0.195122
439.648000,0.208219
439.987580,0.201058
440.327120,0.197333
440.666620,0.223377
441.006080,0.204604
441.345500,0.208845
441.684880,0.191388
442.024220,0.193548
442.363520,0.183333
442.702780,0.190909
443.042000,0.174009
443.381180,0.196121
443.720320,0.200864
444.059420,0.170168
444.398480,0.190377
444.737500,0.186475
445.076480,0.192460
445.415420,0.187625
445.754320,0.164241
446.093180,0.172477
446.432000,0.171053
446.770780,0.187856
447.109520,0.181985
447.448220,0.178891
447.786880,0.159213
448.125500,0.177586
448.464080,0.171429
448.802620,0.182624
449.141120,0.173010
449.479580,0.176573
449.818000,0.172117
450.156380,0.180602
450.494720,0.173554
450.833020,0.167832
451.171280,0.157534
451.509500,0.168990
451.847680,0.168634
452.185820,0.166954
452.523920,0.182131
452.861980,0.156830
453.200000,0.159468
453.537980,0.152941
453.875920,0.169748
454.213820,0.160959
454.551680,0.163907
454.889500,0.170320
455.227280,0.156584
455.565020,0.160804
455.902720,0.159734
456.240380,0.156406
456.578000,0.163763
456.915580,0.160622
457.253120,0.156250
457.590620,0.172414
457.928080,0.154882
458.265500,0.172297
458.602880,0.170455
458.940220,0.165821
459.277520,0.164800
459.614780,0.158756
459.952000,0.159938
460.289180,0.170886
460.626320,0.170079
460.963420,0.159935
461.300480,0.163609
461.637500,0.164869
461.974480,0.168196
462.311420,0.162444
462.648320,0.156662
462.985180,0.170732
463.322000,0.172619
463.658780,0.160221
463.995520,0.165062
464.332220,0.162050
464.668880,0.176075
465.005500,0.171582
465.342080,0.166453
465.678620,0.174662
466.015120,0.166882
466.351580,0.170670
466.688000,0.179050
467.024380,0.173755
467.360720,0.175000
467.697020,0.171982
468.033280,0.176667
468.369500,0.179912
468.705680,0.188275
469.041820,0.182292
469.377920,0.178959
469.713980,0.177137
470.050000,0.191304
470.385980,0.187867
470.721920,0.186092
471.057820,0.194932
471.393680,0.185220
471.729500,0.192771
472.065280,0.192308
472.401020,0.193262
472.736720,0.195462
473.072380,0.193896
473.408000,0.192341
473.743580,0.196367
474.079120,0.198105
474.414620,0.193384
474.750080,0.200163
475.085500,0.193257
475.420880,0.210658
475.756220,0.210139
476.091520,0.208014
476.426780,0.207929
476.762000,0.201931
477.097180,0.204000
477.432320,0.212439
477.767420,0.214869
478.102480,0.220472
478.437500,0.217570
478.772480,0.214342
479.107420,0.218063
479.442320,0.219025
479.777180,0.228321
480.112000,0.224961
480.446780,0.220577
480.781520,0.230274
481.116220,0.243331
481.450880,0.232631
481.785500,0.240506
482.120080,0.238245
482.454620,0.244755
482.789120,0.242834
483.123580,0.247664
483.458000,0.243671
483.792380,0.249201
484.126720,0.254054
484.461020,0.248244
484.795280,0.247494
485.129500,0.256430
485.463680,0.261240
485.797820,0.271384
486.131920,0.255547
486.465980,0.262548
486.800000,0.265649
487.133980,0.264350
487.467920,0.274675
487.801820,0.266972
488.135680,0.270660
488.469500,0.274584
488.803280,0.274889
489.137020,0.276923
489.470720,0.281899
489.804380,0.284336
490.138000,0.290801
490.471580,0.291083
490.805120,0.289492
491.138620,0.289268
491.472080,0.298233
491.805500,0.291492
492.138880,0.298124
492.472220,0.292042
492.805520,0.312849
493.138780,0.306685
493.472000,0.313043
493.805180,0.319918
494.138320,0.315544
494.471420,0.318359
494.804480,0.315006
495.137500,0.322850
495.470480,0.320586
495.803420,0.316121
496.136320,0.330827
496.469180,0.332719
496.802000,0.331296
497.134780,0.337174
497.467520,0.337615
497.800220,0.338443
498.132880,0.327454
498.465500,0.344728
498.798080,0.340183
499.130620,0.348681
499.463120,0.341381
499.795580,0.348185
500.128000,0.357493
500.460380,0.353068
500.792720,0.351538
501.125020,0.351550
501.457280,0.359269
501.789500,0.356921
502.121680,0.374806
502.453820,0.367160
502.785920,0.362181
503.117980,0.377331
503.450000,0.382220
503.781980,0.370204
504.113920,0.370792
504.445820,0.373845
504.777680,0.372235
505.109500,0.381731
505.441280,0.385755
505.773020,0.383279
506.104720,0.390014
506.436380,0.395646
506.768000,0.403181
507.099580,0.392220
507.431120,0.402342
507.762620,0.400376
508.094080,0.394257
508.425500,0.401961
508.756880,0.398720
509.088220,0.404324
509.419520,0.404097
509.750780,0.417057
510.082000,0.409981
510.413180,0.420544
510.744320,0.414634
511.075420,0.414299
511.406480,0.420310
511.737500,0.423611
512.068480,0.421992
512.399420,0.425822
512.730320,0.416628
513.061180,0.432921
513.392000,0.427354
513.722780,0.428434
514.053520,0.430762
514.384220,0.431018
514.714880,0.438966
515.045500,0.432471
515.376080,0.452785
515.706620,0.437409
516.037120,0.442647
516.367580,0.437161
516.698000,0.443627
517.028380,0.448361
517.358720,0.439506
517.689020,0.457468
518.019280,0.447065
518.349500,0.463761
518.679680,0.461383
519.009820,0.456478
519.339920,0.459920
519.669980,0.458564
520.000000,0.456444
520.329980,0.465008
520.659920,0.466258
520.989820,0.465428
521.319680,0.469136
521.649500,0.466838
521.979280,0.476514
522.309020,0.457469
522.638720,0.465950
522.968380,0.481903
523.298000,0.467641
523.627580,0.475944
523.957120,0.469610
524.286620,0.479416
524.616080,0.484488
524.945500,0.469251
525.274880,0.492047
525.604220,0.479814
525.933520,0.483753
526.262780,0.482007
526.592000,0.483511
526.921180,0.485526
527.250320,0.490107
527.579420,0.491157
527.908480,0.485475
528.237500,0.497517
528.566480,0.493014
528.895420,0.494332
529.224320,0.493314
529.553180,0.490602
529.882000,0.509976
530.210780,0.503378
530.539520,0.497124
530.868220,0.505984
531.196880,0.498806
531.525500,0.507990
531.854080,0.497655
532.182620,0.492760
532.511120,0.503016
532.839580,0.507713
533.168000,0.499088
533.496380,0.505023
533.824720,0.513683
534.153020,0.507802
534.481280,0.507930
534.809500,0.515831
535.137680,0.504774
535.465820,0.507732
535.793920,0.510998
536.121980,0.513638
536.450000,0.515856
536.777980,0.518643
537.105920,0.518057
537.433820,0.517594
537.761680,0.526939
538.089500,0.516390
538.417280,0.518106
538.745020,0.516640
539.072720,0.522452
539.400380,0.515929
539.728000,0.515870
540.055580,0.522472
540.383120,0.518243
540.710620,0.523810
541.038080,0.525636
541.365500,0.520956
541.692880,0.522892
542.020220,0.522130
542.347520,0.524767
542.674780,0.517290
543.002000,0.517845
543.329180,0.532094
543.656320,0.526371
543.983420,0.520342
544.310480,0.521237
544.637500,0.530194
544.964480,0.519515
545.291420,0.521103
545.618320,0.523572
545.945180,0.525049
546.272000,0.514417
546.598780,0.523435
546.925520,0.518958
547.252220,0.524926
547.578880,0.516455
547.905500,0.521895
548.232080,0.523067
548.558620,0.523267
548.885120,0.518809
549.211580,0.525554
549.538000,0.524968
549.864380,0.522508
550.190720,0.522118
550.517020,0.523468
550.843280,0.530619
551.169500,0.513359
551.495680,0.523325
551.821820,0.522208
552.147920,0.521145
552.473980,0.527494
552.800000,0.517332
553.125980,0.524885
553.451920,0.518912
553.777820,0.524317
554.103680,0.523087
554.429500,0.521928
554.755280,0.515020
555.081020,0.508356
555.406720,0.523535
555.732380,0.513724
556.058000,0.512899
556.383580,0.520712
556.709120,0.508615
557.034620,0.520152
557.360080,0.511572
557.685500,0.512102
558.010880,0.507452
558.336220,0.509666
558.661520,0.512584
558.986780,0.519490
559.312000,0.513177
559.637180,0.515619
559.962320,0.510858
560.287420,0.507052
560.612480,0.507714
560.937500,0.504772
561.262480,0.513930
561.587420,0.494378
561.912320,0.499263
562.237180,0.503331
562.562000,0.510288
562.886780,0.515422
563.211520,0.497765
563.536220,0.494991
563.860880,0.503206
564.185500,0.499062
564.510080,0.501881
564.834620,0.498697
565.159120,0.492481
565.483580,0.494109
565.808000,0.487325
566.132380,0.498322
566.456720,0.496221
566.781020,0.492498
567.105280,0.487713
567.429500,0.484825
567.753680,0.489451
568.077820,0.488983
568.401920,0.489305
568.725980,0.488425
569.050000,0.490114
569.373980,0.482299
569.697920,0.483504
570.021820,0.485019
570.345680,0.476464
570.669500,0.476154
570.993280,0.479144
571.317020,0.477896
571.640720,0.473879
571.964380,0.476244
572.288000,0.476632
572.611580,0.478472
572.935120,0.471380
573.258620,0.471578
573.582080,0.467958
573.905500,0.469099
574.228880,0.473274
574.552220,0.467204
574.875520,0.470588
575.198780,0.471269
575.522000,0.463343
575.845180,0.459169
576.168320,0.459576
576.491420,0.459302
576.814480,0.462206
577.137500,0.463925
577.460480,0.459949
577.783420,0.457663
578.106320,0.462607
578.429180,0.459173
578.752000,0.459535
579.074780,0.457519
579.397520,0.455132
579.720220,0.453024
580.042880,0.450281
580.365500,0.446724
580.688080,0.449118
581.010620,0.448869
581.333120,0.441550
581.655580,0.448884
581.978000,0.451945
582.300380,0.435573
582.622720,0.443639
582.945020,0.439207
583.267280,0.434712
583.589500,0.438523
583.911680,0.440140
584.233820,0.431854
584.555920,0.437441
584.877980,0.428392
585.200000,0.429098
585.521980,0.439914
585.843920,0.433801
586.165820,0.422913
586.487680,0.418899
586.809500,0.429643
587.131280,0.416149
587.453020,0.428869
587.774720,0.418983
588.096380,0.423279
588.418000,0.421130
588.739580,0.424260
589.061120,0.417769
589.382620,0.414900
589.704080,0.414867
590.025500,0.414384
590.346880,0.412591
590.668220,0.402968
590.989520,0.410704
591.310780,0.410660
591.632000,0.412022
591.953180,0.410739
592.274320,0.402675
592.595420,0.398976
592.916480,0.405868
593.237500,0.400431
593.558480,0.397902
593.879420,0.396817
594.200320,0.398339
594.521180,0.393891
594.842000,0.398442
595.162780,0.392361
595.483520,0.391385
595.804220,0.391783
596.124880,0.390621
596.445500,0.381451
596.766080,0.390696
597.086620,0.384820
597.407120,0.380463
597.727580,0.383718
598.048000,0.377413
598.368380,0.377170
598.688720,0.376147
599.009020,0.379246
599.329280,0.373071
599.649500,0.372953
599.969680,0.371795
600.289820,0.373130
600.609920,0.364146
600.929980,0.359968
601.250000,0.366216
601.569980,0.360789
601.889920,0.365678
602.209820,0.364719
602.529680,0.365559
602.849500,0.354337
603.169280,0.354919
603.489020,0.354276
603.808720,0.349698
604.128380,0.355960
604.448000,0.348619
604.767580,0.350838
605.087120,0.342105
605.406620,0.345088
605.726080,0.346165
606.045500,0.341878
606.364880,0.348171
606.684220,0.342661
607.003520,0.340596
607.322780,0.344514
607.642000,0.340034
607.961180,0.332177
608.280320,0.325986
608.599420,0.329954
608.918480,0.331965
609.237500,0.332453
609.556480,0.330867
609.875420,0.325458
610.194320,0.321819
610.513180,0.322581
610.832000,0.321620
611.150780,0.321718
611.469520,0.317345
611.788220,0.319831
612.106880,0.318758
612.425500,0.313642
612.744080,0.323176
613.062620,0.318349
613.381120,0.309567
613.699580,0.317290
614.018000,0.310504
614.336380,0.310919
614.654720,0.311628
614.973020,0.302376
615.291280,0.306477
615.609500,0.308399
615.927680,0.302225
616.245820,0.299629
616.563920,0.301523
616.881980,0.298722
617.200000,0.297667
617.517980,0.293093
617.835920,0.285803
618.153820,0.289089
618.471680,0.288682
618.789500,0.294840
619.107280,0.292645
619.425020,0.289565
619.742720,0.284997
620.060380,0.286117
620.378000,0.289490
620.695580,0.286079
621.013120,0.284409
621.330620,0.284594
621.648080,0.277918
621.965500,0.276662
622.282880,0.277743
622.600220,0.278269
622.917520,0.281033
623.234780,0.274510
623.552000,0.275621
623.869180,0.272928
624.186320,0.273161
624.503420,0.274295
624.820480,0.276155
625.137500,0.273129
625.454480,0.269147
625.771420,0.271122
626.088320,0.267024
626.405180,0.269446
626.722000,0.270389
627.038780,0.268797
627.355520,0.269375
627.672220,0.264386
627.988880,0.264075
628.305500,0.263634
628.622080,0.261462
628.938620,0.262080
629.255120,0.253889
629.571580,0.258351
629.888000,0.258361
630.204380,0.256827
630.520720,0.255332
630.837020,0.259636
631.153280,0.253897
631.469500,0.251364
631.785680,0.251055
632.101820,0.253920
632.417920,0.251863
632.733980,0.246699
633.050000,0.247726
633.365980,0.247481
633.681920,0.249403
633.997820,0.255230
634.313680,0.243881
634.629500,0.251548
634.945280,0.245161
635.261020,0.248019
635.576720,0.243688
635.892380,0.241069
636.208000,0.237362
636.523580,0.243204
636.839120,0.237985
637.154620,0.238551
637.470080,0.239024
637.785500,0.238570
638.100880,0.240371
638.416220,0.241588
638.731520,0.234670
639.046780,0.237693
639.362000,0.236239
639.677180,0.236722
639.992320,0.234846
640.307420,0.236302
640.622480,0.234948
640.937500,0.226352
641.252480,0.232058
641.567420,0.233021
641.882320,0.233296
642.197180,0.235542
642.512000,0.226980
642.826780,0.229681
643.141520,0.226730
643.456220,0.229386
643.770880,0.228027
644.085500,0.224148
644.400080,0.229213
644.714620,0.229933
645.029120,0.227448
645.343580,0.224355
645.658000,0.227033
645.972380,0.236503
646.286720,0.223222
646.601020,0.225298
646.915280,0.225665
647.229500,0.220330
647.543680,0.224524
647.857820,0.224333
648.171920,0.224091
648.485980,0.219238
648.800000,0.217966
649.113980,0.221452
649.427920,0.218863
649.741820,0.217093
650.055680,0.212562
650.369500,0.217769
650.683280,0.215871
650.997020,0.220297
651.310720,0.216015
651.624380,0.216758
651.938000,0.217452
652.251580,0.218480
652.565120,0.213807
652.878620,0.218750
653.192080,0.216292
653.505500,0.216269
653.818880,0.214672
654.132220,0.218741
654.445520,0.213273
654.758780,0.211615
655.072000,0.210602
655.385180,0.214551
655.698320,0.212632
656.011420,0.210375
656.324480,0.216555
656.637500,0.212341
656.950480,0.215502
657.263420,0.211942
657.576320,0.213756
657.889180,0.211442
658.202000,0.212560
658.514780,0.210777
658.827520,0.210684
659.140220,0.209769
659.452880,0.212323
659.765500,0.208007
660.078080,0.209148
660.390620,0.209288
660.703120,0.215704
661.015580,0.209509
661.328000,0.215365
661.640380,0.213110
661.952720,0.209281
662.265020,0.216131
662.577280,0.209924
662.889500,0.210659
663.201680,0.214422
663.513820,0.210679
663.825920,0.205572
664.137980,0.210407
664.450000,0.213235
664.761980,0.209493
665.073920,0.208698
665.385820,0.211060
665.697680,0.210248
666.009500,0.212837
666.321280,0.214049
666.633020,0.216755
666.944720,0.211999
667.256380,0.214334
667.568000,0.211277
667.879580,0.213605
668.191120,0.216003
668.502620,0.208833
668.814080,0.213333
669.125500,0.214506
669.436880,0.216459
669.748220,0.214607
670.059520,0.213585
670.370780,0.216771
670.682000,0.210265
670.993180,0.215997
671.304320,0.213080
671.615420,0.210937
671.926480,0.217530
672.237500,0.215434
672.548480,0.213627
672.859420,0.214439
673.170320,0.214001
673.481180,0.215786
673.792000,0.215651
674.102780,0.215081
674.413520,0.213270
674.724220,0.213793
675.034880,0.223322
675.345500,0.216630
675.656080,0.217423
675.966620,0.220808
676.277120,0.219700
676.587580,0.224595
676.898000,0.215006
677.208380,0.219593
677.518720,0.215901
677.829020,0.223577
678.139280,0.217198
678.449500,0.217230
678.759680,0.223305
679.069820,0.218216
679.379920,0.225952
679.689980,0.226142
680.000000,0.226168
680.309980,0.224944
680.619920,0.222264
680.929820,0.228817
681.239680,0.219719
681.549500,0.226667
681.859280,0.227035
682.169020,0.223797
682.478720,0.227001
682.788380,0.225544
683.098000,0.232236
683.407580,0.228893
683.717120,0.228979
684.026620,0.230422
684.336080,0.228875
684.645500,0.232323
684.954880,0.229316
685.264220,0.231786
685.573520,0.236772
685.882780,0.240506
686.192000,0.235139
686.501180,0.232312
686.810320,0.240584
687.119420,0.238693
687.428480,0.238131
687.737500,0.234459
688.046480,0.232745
688.355420,0.239155
688.664320,0.239097
688.973180,0.235835
689.282000,0.238812
689.590780,0.240798
689.899520,0.232814
690.208220,0.241590
690.516880,0.248186
690.825500,0.246792
691.134080,0.239560
691.442620,0.239710
691.751120,0.245355
692.059580,0.245319
692.368000,0.243468
692.676380,0.249237
692.984720,0.247328
693.293020,0.244681
693.601280,0.249142
693.909500,0.249338
694.217680,0.251714
694.525820,0.255522
694.833920,0.250668
695.141980,0.256074
695.450000,0.253435
695.757980,0.255539
696.065920,0.250874
696.373820,0.259815
696.681680,0.257384
696.989500,0.264763
697.297280,0.259043
697.605020,0.265079
697.912720,0.257110
698.220380,0.262889
698.528000,0.271756
698.835580,0.266693
699.143120,0.264614
699.450620,0.262530
699.758080,0.262745
700.065500,0.267757
700.372880,0.264400
700.680220,0.270044
700.987520,0.269048
701.294780,0.268856
701.602000,0.272583
701.909180,0.273450
702.216320,0.269065
702.523420,0.279006
702.830480,0.275644
703.137500,0.274747
703.444480,0.280473
703.751420,0.277712
704.058320,0.284131
704.365180,0.276025
704.672000,0.284752
704.978780,0.280140
705.285520,0.273865
705.592220,0.283922
705.898880,0.284870
706.205500,0.289124
706.512080,0.290284
706.818620,0.286765
707.125120,0.290769
707.431580,0.288785
707.738000,0.286719
708.044380,0.290621
708.350720,0.289263
708.657020,0.303243
708.963280,0.296584
709.269500,0.297456
709.575680,0.297839
709.881820,0.298742
710.187920,0.296887
710.493980,0.303336
710.800000,0.299008
711.105980,0.293675
711.411920,0.306661
711.717820,0.302144
712.023680,0.300428
712.329500,0.306388
712.635280,0.311628
712.941020,0.306146
713.246720,0.307115
713.552380,0.306515
713.858000,0.309815
714.163580,0.309787
714.469120,0.316921
714.774620,0.311883
715.080080,0.316451
715.385500,0.317346
715.690880,0.319527
715.996220,0.318938
716.301520,0.317391
716.606780,0.324686
716.912000,0.325121
717.217180,0.319234
717.522320,0.319284
717.827420,0.326688
718.132480,0.322762
718.437500,0.323685
718.742480,0.330242
719.047420,0.320793
719.352320,0.333748
719.657180,0.337694
719.962000,0.327543
720.266780,0.335688
720.571520,0.334300
720.876220,0.331424
721.180880,0.335284
721.485500,0.341830
721.790080,0.335456
722.094620,0.347770
722.399120,0.340801
722.703580,0.338191
723.008000,0.342820
723.312380,0.338356
723.616720,0.340416
723.921020,0.347770
724.225280,0.348168
724.529500,0.353765
724.833680,0.349199
725.137820,0.347577
725.441920,0.348640
725.745980,0.353020
726.050000,0.353180
726.353980,0.348355
726.657920,0.355376
726.961820,0.351598
727.265680,0.358761
727.569500,0.360146
727.873280,0.354734
728.177020,0.360203
728.480720,0.365741
728.784380,0.364960
729.088000,0.360339
729.391580,0.369493
729.695120,0.361804
729.998620,0.375717
730.302080,0.377222
730.605500,0.375546
730.908880,0.372856
731.212220,0.374143
731.515520,0.371526
731.818780,0.378641
732.122000,0.387303
732.425180,0.377526
732.728320,0.377789
733.031420,0.386466
733.334480,0.387245
733.637500,0.381048
733.940480,0.388434
734.243420,0.383792
734.546320,0.382261
734.849180,0.387397
735.152000,0.387448
735.454780,0.391529
735.757520,0.391992
736.060220,0.389152
736.362880,0.393382
736.665500,0.390078
736.968080,0.398710
737.270620,0.398476
737.573120,0.395197
737.875580,0.407367
738.178000,0.400653
738.480380,0.400000
738.782720,0.405671
739.085020,0.393172
739.387280,0.407982
739.689500,0.406002
739.991680,0.408759
740.293820,0.405196
740.595920,0.410684
740.897980,0.415584
741.200000,0.420639
741.501980,0.420630
741.803920,0.416667
742.105820,0.415116
742.407680,0.418754
742.709500,0.419318
743.011280,0.426143
743.313020,0.418551
743.614720,0.421358
743.916380,0.427907
744.218000,0.426611
744.519580,0.425121
744.821120,0.445509
745.122620,0.427801
745.424080,0.426683
745.725500,0.441159
746.026880,0.431650
746.328220,0.434032
746.629520,0.430464
746.930780,0.437500
747.232000,0.436542
747.533180,0.438682
747.834320,0.443701
748.135420,0.443132
748.436480,0.446039
748.737500,0.431748
749.038480,0.436164
749.339420,0.456752
749.640320,0.455688
749.941180,0.450344
750.242000,0.454146
750.542780,0.452233
750.843520,0.467008
751.144220,0.457051
751.444880,0.459100
751.745500,0.458442
752.046080,0.475946
752.346620,0.457474
752.647120,0.463749
752.947580,0.461190
753.248000,0.463572
753.548380,0.464541
753.848720,0.464907
754.149020,0.455835
754.449280,0.467498
754.749500,0.469808
755.049680,0.464000
755.349820,0.466978
755.649920,0.476537
755.949980,0.481088
756.250000,0.478632
756.549980,0.467987
756.849920,0.475187
757.149820,0.463074
757.449680,0.484488
757.749500,0.490116
758.049280,0.481229
758.349020,0.479833
758.648720,0.492063
758.948380,0.490034
759.248000,0.493261
759.547580,0.484196
759.847120,0.488629
760.146620,0.489851
760.446080,0.500000
760.745500,0.503497
761.044880,0.501420
761.344220,0.500356
761.643520,0.493644
761.942780,0.501749
762.242000,0.499293
762.541180,0.497183
762.840320,0.509831
763.139420,0.502110
763.438480,0.510595
763.737500,0.519642
764.036480,0.519217
764.335420,0.501764
764.634320,0.505198
764.933180,0.516438
765.232000,0.515614
765.530780,0.516491
765.829520,0.527972
766.128220,0.521921
766.426880,0.529495
766.725500,0.524332
767.024080,0.514403
767.322620,0.520747
767.621120,0.523035
767.919580,0.524915
768.218000,0.536936
768.516380,0.536173
768.814720,0.535665
769.113020,0.533425
769.411280,0.537293
769.709500,0.529770
770.007680,0.534424
770.305820,0.538201
770.603920,0.535714
770.901980,0.547814
771.200000,0.541440
771.497980,0.538874
771.795920,0.541806
772.093820,0.543449
772.391680,0.554384
772.689500,0.550000
772.987280,0.558923
773.285020,0.555707
773.582720,0.551351
773.880380,0.567605
774.178000,0.564417
774.475580,0.559277
774.773120,0.552878
775.070620,0.555105
775.368080,0.566466
775.665500,0.541974
775.962880,0.559706
776.260220,0.566622
776.557520,0.567045
776.854780,0.579446
777.152000,0.566976
777.449180,0.579906
777.746320,0.565188
778.043420,0.566849
778.340480,0.579161
778.637500,0.575389
778.934480,0.566241
779.231420,0.580054
779.528320,0.570474
779.825180,0.560606
780.122000,0.571713
780.418780,0.573871
780.715520,0.583501
781.012220,0.601370
781.308880,0.569980
781.605500,0.574658
781.902080,0.585216
782.198620,0.587833
782.495120,0.586420
782.791580,0.598349
783.088000,0.591442
783.384380,0.591472
783.680720,0.592339
783.977020,0.587749
784.273280,0.597203
784.569500,0.606569
784.865680,0.593880
785.161820,0.591667
785.457920,0.601525
785.753980,0.602931
786.050000,0.598066
786.345980,0.602083
786.641920,0.595420
786.937820,0.620370
787.233680,0.598469
787.529500,0.610264
787.825280,0.616856
788.121020,0.607649
788.416720,0.616090
788.712380,0.614245
789.008000,0.616147
789.303580,0.613428
789.599120,0.619636
789.894620,0.607942
790.190080,0.623640
790.485500,0.613391
790.780880,0.616487
791.076220,0.608947
791.371520,0.623820
791.666780,0.637818
791.962000,0.643644
792.257180,0.625183
792.552320,0.629442
792.847420,0.628093
793.142480,0.634432
793.437500,0.624457
793.732480,0.632772
794.027420,0.633531
794.322320,0.644295
794.617180,0.643388
794.912000,0.650817
795.206780,0.639075
795.501520,0.661597
795.796220,0.626667
796.090880,0.636775
796.385500,0.642429
796.680080,0.637996
796.974620,0.649701
797.269120,0.639667
797.563580,0.641221
797.858000,0.640850
798.152380,0.665120
798.446720,0.648462
798.741020,0.654083
799.035280,0.674689
799.329500,0.660508
799.623680,0.659690
