399.985280,0.243243
400.329500,0.297297
400.673680,0.291139
401.017820,0.323529
401.361920,0.242424
401.705980,0.304878
402.050000,0.272727
402.393980,0.305882
402.737920,0.348315
403.081820,0.309278
403.425680,0.337209
403.769500,0.281250
404.113280,0.344828
404.457020,0.370787
404.800720,0.239130
405.144380,0.323232
405.488000,0.322581
405.831580,0.309278
406.175120,0.308511
406.518620,0.350000
406.862080,0.309278
407.205500,0.291667
407.548880,0.367347
407.892220,0.343137
408.235520,0.351064
408.578780,0.371429
408.922000,0.336538
409.265180,0.343434
409.608320,0.414141
409.951420,0.360825
410.294480,0.333333
410.637500,0.434783
410.980480,0.431373
411.323420,0.357143
411.666320,0.412844
412.009180,0.436364
412.352000,0.396040
412.694780,0.403670
413.037520,0.339450
413.380220,0.369369
413.722880,0.401786
414.065500,0.414414
414.408080,0.442478
414.750620,0.398230
415.093120,0.396694
415.435580,0.403361
415.778000,0.401515
416.120380,0.386555
416.462720,0.420635
416.805020,0.398496
417.147280,0.410448
417.489500,0.392857
417.831680,0.356164
418.173820,0.404255
418.515920,0.461538
418.857980,0.386076
419.200000,0.378205
419.541980,0.396450
419.883920,0.404494
420.225820,0.393064
420.567680,0.391061
420.909500,0.442623
421.251280,0.411458
421.593020,0.443878
421.934720,0.393939
422.276380,0.405128
422.618000,0.387255
422.959580,0.441176
423.301120,0.397260
423.642620,0.373913
423.984080,0.409302
424.325500,0.390135
424.666880,0.392241
425.008220,0.394958
425.349520,0.381356
425.690780,0.380769
426.032000,0.364706
426.373180,0.402490
426.714320,0.367187
427.055420,0.386100
427.396480,0.378277
427.737500,0.395257
428.078480,0.391304
428.419420,0.397590
428.760320,0.394636
429.101180,0.421260
429.442000,0.417625
429.782780,0.384615
430.123520,0.372549
430.464220,0.361624
430.804880,0.421456
431.145500,0.367273
431.486080,0.374532
431.826620,0.395349
432.167120,0.378676
432.507580,0.380435
432.848000,0.388489
433.188380,0.382671
433.528720,0.396226
433.869020,0.385714
434.209280,0.375439
434.549500,0.376307
434.889680,0.370370
435.229820,0.351536
435.569920,0.356401
435.909980,0.368932
436.250000,0.366102
436.589980,0.340557
436.929920,0.355556
437.269820,0.347962
437.609680,0.363905
437.949500,0.385542
438.289280,0.359773
438.629020,0.357558
438.968720,0.372093
439.308380,0.333333
439.648000,0.331507
439.987580,0.351852
440.327120,0.338667
440.666620,0.340260
441.006080,0.347826
441.345500,0.331695
441.684880,0.322967
442.024220,0.334988
442.363520,0.335714
442.702780,0.311364
443.042000,0.321586
443.381180,0.327586
443.720320,0.332613
444.059420,0.306723
444.398480,0.326360
444.737500,0.319672
445.076480,0.319444
445.415420,0.319361
445.754320,0.320166
446.093180,0.304587
446.432000,0.302632
446.770780,0.299810
447.109520,0.303309
447.448220,0.309481
447.786880,0.307692
448.125500,0.306897
448.464080,0.298214
448.802620,0.303191
449.141120,0.294118
449.479580,0.286713
449.818000,0.287435
450.156380,0.285953
450.494720,0.276033
450.833020,0.281469
451.171280,0.279110
451.509500,0.285714
451.847680,0.281619
452.185820,0.278830
452.523920,0.278351
452.861980,0.269815
453.200000,0.270764
453.537980,0.262185
453.875920,0.268908
454.213820,0.258562
454.551680,0.259934
454.889500,0.254637
455.227280,0.254448
455.565020,0.252931
455.902720,0.262895
456.240380,0.234609
456.578000,0.238676
456.915580,0.252159
457.253120,0.236842
457.590620,0.249589
457.928080,0.242424
458.265500,0.231419
458.602880,0.235390
458.940220,0.228426
459.277520,0.232000
459.614780,0.238953
459.952000,0.226708
460.289180,0.232595
460.626320,0.225197
460.963420,0.218094
461.300480,0.227829
461.637500,0.228043
461.974480,0.214067
462.311420,0.213115
462.648320,0.216691
462.985180,0.213773
463.322000,0.218750
463.658780,0.203039
463.995520,0.200825
464.332220,0.213296
464.668880,0.201613
465.005500,0.197051
465.342080,0.208707
465.678620,0.202952
466.015120,0.199224
466.351580,0.197219
466.688000,0.196102
467.024380,0.196841
467.360720,0.200000
467.697020,0.191344
468.033280,0.195556
468.369500,0.200883
468.705680,0.196167
469.041820,0.197917
469.377920,0.184382
469.713980,0.191555
470.050000,0.187440
470.385980,0.178082
470.721920,0.176298
471.057820,0.179337
471.393680,0.178672
471.729500,0.167748
472.065280,0.176208
472.401020,0.171099
472.736720,0.177138
473.072380,0.170557
473.408000,0.168842
473.743580,0.166090
474.079120,0.172265
474.414620,0.168787
474.750080,0.168430
475.085500,0.175164
475.420880,0.173189
475.756220,0.169256
476.091520,0.167945
476.426780,0.168285
476.762000,0.158488
477.097180,0.172000
477.432320,0.164782
477.767420,0.169118
478.102480,0.157480
478.437500,0.163383
478.772480,0.160757
479.107420,0.163548
479.442320,0.167866
479.777180,0.163882
480.112000,0.155624
480.446780,0.156664
480.781520,0.161031
481.116220,0.159256
481.450880,0.159251
481.785500,0.161392
482.120080,0.163009
482.454620,0.163170
482.789120,0.165605
483.123580,0.161215
483.458000,0.161392
483.792380,0.158946
484.126720,0.165251
484.461020,0.159251
484.795280,0.163454
485.129500,0.166797
485.463680,0.164341
485.797820,0.174184
486.131920,0.168324
486.465980,0.155985
486.800000,0.167939
487.133980,0.167674
487.467920,0.166029
487.801820,0.168574
488.135680,0.167551
488.469500,0.166415
488.803280,0.170877
489.137020,0.167766
489.470720,0.168398
489.804380,0.171492
490.138000,0.175074
490.471580,0.175387
490.805120,0.172981
491.138620,0.174840
491.472080,0.176678
491.805500,0.175732
492.138880,0.172342
492.472220,0.174394
492.805520,0.188547
493.138780,0.183322
493.472000,0.181940
493.805180,0.182810
494.138320,0.182789
494.471420,0.183594
494.804480,0.187581
495.137500,0.184852
495.470480,0.194391
495.803420,0.192065
496.136320,0.193609
496.469180,0.191529
496.802000,0.193765
497.134780,0.191631
497.467520,0.200000
497.800220,0.196934
498.132880,0.199295
498.465500,0.201043
498.798080,0.199772
499.130620,0.200449
499.463120,0.201011
499.795580,0.206271
500.128000,0.198365
500.460380,0.201292
500.792720,0.207847
501.125020,0.208092
501.457280,0.213577
501.789500,0.215393
502.121680,0.220321
502.453820,0.211117
502.785920,0.216608
503.117980,0.222277
503.450000,0.222501
503.781980,0.222222
504.113920,0.216690
504.445820,0.227030
504.777680,0.221647
505.109500,0.228846
505.441280,0.243786
505.773020,0.231564
506.104720,0.227508
506.436380,0.238523
506.768000,0.239944
507.099580,0.239359
507.431120,0.240749
507.762620,0.248590
508.094080,0.246126
508.425500,0.246032
508.756880,0.251943
509.088220,0.247930
509.419520,0.251397
509.750780,0.254920
510.082000,0.256996
510.413180,0.259327
510.744320,0.264151
511.075420,0.259853
511.406480,0.273155
511.737500,0.263426
512.068480,0.269737
512.399420,0.270423
512.730320,0.271132
513.061180,0.280209
513.392000,0.282537
513.722780,0.278578
514.053520,0.281265
514.384220,0.284015
514.714880,0.280517
515.045500,0.283046
515.376080,0.292010
515.706620,0.289333
516.037120,0.294608
516.367580,0.292755
516.698000,0.291176
517.028380,0.301390
517.358720,0.298765
517.689020,0.306133
518.019280,0.305068
518.349500,0.308160
518.679680,0.309944
519.009820,0.314271
519.339920,0.315130
519.669980,0.310899
520.000000,0.323484
520.329980,0.327112
520.659920,0.319018
520.989820,0.330237
521.319680,0.331790
521.649500,0.324936
521.979280,0.338727
522.309020,0.336618
522.638720,0.335381
522.968380,0.335574
523.298000,0.338727
523.627580,0.339886
523.957120,0.346494
524.286620,0.343929
524.616080,0.352120
524.945500,0.350388
525.274880,0.360185
525.604220,0.354037
525.933520,0.359539
526.262780,0.350735
526.592000,0.363775
526.921180,0.364652
527.250320,0.375444
527.579420,0.372410
527.908480,0.366814
528.237500,0.379841
528.566480,0.376747
528.895420,0.389847
529.224320,0.391283
529.553180,0.380241
529.882000,0.393187
530.210780,0.381274
530.539520,0.390221
530.868220,0.393968
531.196880,0.393215
531.525500,0.410169
531.854080,0.398218
532.182620,0.391873
532.511120,0.400000
532.839580,0.405626
533.168000,0.409754
533.496380,0.404110
533.824720,0.414984
534.153020,0.411948
534.481280,0.408811
534.809500,0.423043
535.137680,0.420139
535.465820,0.423969
535.793920,0.419205
536.121980,0.429291
536.450000,0.434249
536.777980,0.439883
537.105920,0.439186
537.433820,0.435761
537.761680,0.438367
538.089500,0.446378
538.417280,0.435734
538.745020,0.444929
539.072720,0.444358
539.400380,0.445610
539.728000,0.452008
540.055580,0.445693
540.383120,0.448995
540.710620,0.450521
541.038080,0.460716
541.365500,0.457721
541.692880,0.458939
542.020220,0.462397
542.347520,0.467696
542.674780,0.466126
543.002000,0.470609
543.329180,0.472466
543.656320,0.473277
543.983420,0.477607
544.310480,0.472987
544.637500,0.481406
544.964480,0.476447
545.291420,0.483217
545.618320,0.491368
545.945180,0.485168
546.272000,0.485256
546.598780,0.492298
546.925520,0.494560
547.252220,0.494223
547.578880,0.494624
547.905500,0.491503
548.232080,0.500975
548.558620,0.494631
548.885120,0.497219
549.211580,0.495661
549.538000,0.508431
549.864380,0.506752
550.190720,0.509202
550.517020,0.507171
550.843280,0.510749
551.169500,0.505089
551.495680,0.516426
551.821820,0.512410
552.147920,0.515290
552.473980,0.514982
552.800000,0.517986
553.125980,0.518991
553.451920,0.525547
553.777820,0.530646
554.103680,0.522750
554.429500,0.521259
554.755280,0.523031
555.081020,0.525067
555.406720,0.533017
555.732380,0.530329
556.058000,0.527155
556.383580,0.534748
556.709120,0.534459
557.034620,0.534964
557.360080,0.532988
557.685500,0.536999
558.010880,0.533102
558.336220,0.537786
558.661520,0.539171
558.986780,0.548193
559.312000,0.540598
559.637180,0.547217
559.962320,0.539338
560.287420,0.543018
560.612480,0.546107
560.937500,0.549927
561.262480,0.543622
561.587420,0.541531
561.912320,0.553427
562.237180,0.544782
562.562000,0.559297
562.886780,0.551839
563.211520,0.555514
563.536220,0.545455
563.860880,0.556771
564.185500,0.547467
564.510080,0.562829
564.834620,0.556010
565.159120,0.554887
565.483580,0.557583
565.808000,0.558456
566.132380,0.561731
566.456720,0.562358
566.781020,0.560765
567.105280,0.565974
567.429500,0.575873
567.753680,0.563867
568.077820,0.565520
568.401920,0.568755
568.725980,0.565465
569.050000,0.577947
569.373980,0.562238
569.697920,0.566174
570.021820,0.577154
570.345680,0.567164
570.669500,0.561236
570.993280,0.565153
571.317020,0.572159
571.640720,0.576510
571.964380,0.564959
572.288000,0.567507
572.611580,0.586297
572.935120,0.575758
573.258620,0.575168
573.582080,0.572653
573.905500,0.573343
574.228880,0.578693
574.552220,0.578234
574.875520,0.580789
575.198780,0.572100
575.522000,0.575513
575.845180,0.569484
576.168320,0.568092
576.491420,0.589026
576.814480,0.583725
577.137500,0.590909
577.460480,0.583907
577.783420,0.576277
578.106320,0.584758
578.429180,0.587840
578.752000,0.578326
579.074780,0.583951
579.397520,0.579083
579.720220,0.576255
580.042880,0.577800
580.365500,0.579087
580.688080,0.587517
581.010620,0.586230
581.333120,0.582832
581.655580,0.592741
581.978000,0.579980
582.300380,0.577735
582.622720,0.576137
582.945020,0.580624
583.267280,0.583198
583.589500,0.582022
583.911680,0.586853
584.233820,0.574127
584.555920,0.585881
584.877980,0.579774
585.200000,0.570289
585.521980,0.586036
585.843920,0.581757
586.165820,0.578001
586.487680,0.576587
586.809500,0.589859
587.131280,0.578823
587.453020,0.582143
587.774720,0.582200
588.096380,0.580222
588.418000,0.577114
588.739580,0.587238
589.061120,0.580219
589.382620,0.579370
589.704080,0.577840
590.025500,0.583619
590.346880,0.584879
590.668220,0.579109
590.989520,0.571825
591.310780,0.579674
591.632000,0.574590
591.953180,0.578467
592.274320,0.575485
592.595420,0.570582
592.916480,0.575930
593.237500,0.576933
593.558480,0.578423
593.879420,0.575128
594.200320,0.580766
594.521180,0.569721
594.842000,0.578452
595.162780,0.573985
595.483520,0.578304
595.804220,0.574651
596.124880,0.571010
596.445500,0.565365
596.766080,0.581070
597.086620,0.566348
597.407120,0.560821
597.727580,0.571201
598.048000,0.568104
598.368380,0.571804
598.688720,0.559895
599.009020,0.557059
599.329280,0.567855
599.649500,0.562599
599.969680,0.564637
600.289820,0.560630
600.609920,0.562650
600.929980,0.560663
601.250000,0.554324
601.569980,0.567378
601.889920,0.548516
602.209820,0.557900
602.529680,0.565779
602.849500,0.555101
603.169280,0.554423
603.489020,0.553003
603.808720,0.545804
604.128380,0.552152
604.448000,0.545856
604.767580,0.550838
605.087120,0.544044
605.406620,0.548839
605.726080,0.551183
606.045500,0.536082
606.364880,0.540403
606.684220,0.548829
607.003520,0.538704
607.322780,0.543491
607.642000,0.540781
607.961180,0.542642
608.280320,0.533933
608.599420,0.533024
608.918480,0.537537
609.237500,0.533157
609.556480,0.540397
609.875420,0.536326
610.194320,0.531444
610.513180,0.525303
610.832000,0.529184
611.150780,0.523581
611.469520,0.532127
611.788220,0.528114
612.106880,0.528649
612.425500,0.530146
612.744080,0.529394
613.062620,0.518043
613.381120,0.518586
613.699580,0.523299
614.018000,0.522113
614.336380,0.516656
614.654720,0.515969
614.973020,0.518359
615.291280,0.518128
615.609500,0.518859
615.927680,0.510507
616.245820,0.515461
616.563920,0.519739
616.881980,0.511693
617.200000,0.507932
617.517980,0.505600
617.835920,0.500466
618.153820,0.505129
618.471680,0.503566
618.789500,0.505035
619.107280,0.504225
619.425020,0.504599
619.742720,0.500000
620.060380,0.501097
620.378000,0.496853
620.695580,0.490741
621.013120,0.487559
621.330620,0.492940
621.648080,0.485174
621.965500,0.484944
622.282880,0.486444
622.600220,0.489577
622.917520,0.487398
623.234780,0.492125
623.552000,0.481859
623.869180,0.480618
624.186320,0.488061
624.503420,0.480251
624.820480,0.482878
625.137500,0.485317
625.454480,0.477962
625.771420,0.475725
626.088320,0.470050
626.405180,0.474798
626.722000,0.472083
627.038780,0.468358
627.355520,0.465625
627.672220,0.472162
627.988880,0.465630
628.305500,0.472421
628.622080,0.461586
628.938620,0.463609
629.255120,0.462041
629.571580,0.453264
629.888000,0.460264
630.204380,0.465173
630.520720,0.456124
630.837020,0.451434
631.153280,0.450839
631.469500,0.451486
631.785680,0.452984
632.101820,0.449638
632.417920,0.449180
632.733980,0.448679
633.050000,0.449666
633.365980,0.443391
633.681920,0.448091
633.997820,0.449492
634.313680,0.439988
634.629500,0.436744
634.945280,0.436364
635.261020,0.441151
635.576720,0.439518
635.892380,0.433343
636.208000,0.436374
636.523580,0.436714
636.839120,0.433411
637.154620,0.436812
637.470080,0.429555
637.785500,0.434642
638.100880,0.428902
638.416220,0.429968
638.731520,0.419198
639.046780,0.424993
639.362000,0.416284
639.677180,0.420046
639.992320,0.422893
640.307420,0.420624
640.622480,0.416410
640.937500,0.416644
641.252480,0.418598
641.567420,0.420006
641.882320,0.414532
642.197180,0.405952
642.512000,0.408060
642.826780,0.407767
643.141520,0.411503
643.456220,0.405921
643.770880,0.401327
644.085500,0.402739
644.400080,0.404213
644.714620,0.398829
645.029120,0.399890
645.343580,0.397422
645.658000,0.394394
645.972380,0.400384
646.286720,0.390842
646.601020,0.391918
646.915280,0.393474
647.229500,0.389286
647.543680,0.382767
647.857820,0.391963
648.171920,0.386327
648.485980,0.385585
648.800000,0.376963
649.113980,0.381652
649.427920,0.378086
649.741820,0.370706
650.055680,0.377948
650.369500,0.374720
650.683280,0.371254
650.997020,0.374587
651.310720,0.369840
651.624380,0.371154
651.938000,0.369529
652.251580,0.367103
652.565120,0.361375
652.878620,0.366836
653.192080,0.367978
653.505500,0.357924
653.818880,0.362525
654.132220,0.364284
654.445520,0.357062
654.758780,0.353258
655.072000,0.355014
655.385180,0.351783
655.698320,0.349814
656.011420,0.347377
656.324480,0.343049
656.637500,0.344438
656.950480,0.340575
657.263420,0.348212
657.576320,0.343611
657.889180,0.345621
658.202000,0.339674
658.514780,0.336707
658.827520,0.340936
659.140220,0.337429
659.452880,0.336454
659.765500,0.333835
660.078080,0.330123
660.390620,0.323862
660.703120,0.334861
661.015580,0.332209
661.328000,0.331549
661.640380,0.327120
661.952720,0.324821
662.265020,0.330183
662.577280,0.321247
662.889500,0.322927
663.201680,0.320038
663.513820,0.321647
663.825920,0.322767
664.137980,0.323206
664.450000,0.320652
664.761980,0.318494
665.073920,0.312236
665.385820,0.316427
665.697680,0.315702
666.009500,0.317925
666.321280,0.312459
666.633020,0.310505
666.944720,0.304685
667.256380,0.309892
667.568000,0.309443
667.879580,0.309524
668.191120,0.309066
668.502620,0.295789
668.814080,0.301754
669.125500,0.298324
669.436880,0.297372
669.748220,0.299412
670.059520,0.304272
670.370780,0.298191
670.682000,0.301593
670.993180,0.297745
671.304320,0.294304
671.615420,0.289773
671.926480,0.295245
672.237500,0.293319
672.548480,0.295245
672.859420,0.290207
673.170320,0.293798
673.481180,0.291818
673.792000,0.285972
674.102780,0.286894
674.413520,0.288370
674.724220,0.287477
675.034880,0.293729
675.345500,0.284829
675.656080,0.279492
675.966620,0.281557
676.277120,0.281216
676.587580,0.282401
676.898000,0.283688
677.208380,0.273937
677.518720,0.269147
677.829020,0.279379
678.139280,0.276872
678.449500,0.279985
678.759680,0.277257
679.069820,0.278439
679.379920,0.274991
679.689980,0.273672
680.000000,0.271028
680.309980,0.273200
680.619920,0.271867
680.929820,0.274356
681.239680,0.265140
681.549500,0.270000
681.859280,0.266990
682.169020,0.272286
682.478720,0.268138
682.788380,0.272425
683.098000,0.271129
683.407580,0.269043
683.717120,0.263138
684.026620,0.265060
684.336080,0.261084
684.645500,0.257763
684.954880,0.262184
685.264220,0.260098
685.573520,0.261515
685.882780,0.261987
686.192000,0.261099
686.501180,0.259554
686.810320,0.266718
687.119420,0.258077
687.428480,0.253323
687.737500,0.259401
688.046480,0.258436
688.355420,0.256507
688.664320,0.255547
688.973180,0.255743
689.282000,0.257330
689.590780,0.261120
689.899520,0.254083
690.208220,0.252676
690.516880,0.255441
690.825500,0.252453
691.134080,0.250949
691.442620,0.251524
691.751120,0.248009
692.059580,0.257547
692.368000,0.250284
692.676380,0.244275
692.984720,0.251908
693.293020,0.249240
693.601280,0.246852
693.909500,0.250473
694.217680,0.247906
694.525820,0.250190
694.833920,0.248378
695.141980,0.251446
695.450000,0.243893
695.757980,0.247899
696.065920,0.245049
696.373820,0.245189
696.681680,0.248945
696.989500,0.248553
697.297280,0.241929
697.605020,0.248810
697.912720,0.242890
698.220380,0.242424
698.528000,0.250791
698.835580,0.246938
699.143120,0.240452
699.450620,0.247017
699.758080,0.241176
700.065500,0.243416
700.372880,0.244800
700.680220,0.239330
700.987520,0.244048
701.294780,0.240065
701.602000,0.236133
701.909180,0.234897
702.216320,0.235041
702.523420,0.237569
702.830480,0.241980
703.137500,0.240842
703.444480,0.242209
703.751420,0.239842
704.058320,0.242976
704.365180,0.240142
704.672000,0.244752
704.978780,0.239953
705.285520,0.241002
705.592220,0.239216
705.898880,0.237983
706.205500,0.239437
706.512080,0.238942
706.818620,0.238390
707.125120,0.236923
707.431580,0.240328
707.738000,0.242578
708.044380,0.234272
708.350720,0.235766
708.657020,0.237984
708.963280,0.240295
709.269500,0.239922
709.575680,0.242043
709.881820,0.237814
710.187920,0.240078
710.493980,0.235842
710.800000,0.237223
711.105980,0.236446
711.411920,0.240047
711.717820,0.234698
712.023680,0.237855
712.329500,0.238565
712.635280,0.242248
712.941020,0.239273
713.246720,0.235178
713.552380,0.240581
713.858000,0.234135
714.163580,0.235201
714.469120,0.238765
714.774620,0.243585
715.080080,0.246172
715.385500,0.247002
715.690880,0.242998
715.996220,0.237322
716.301520,0.239921
716.606780,0.240173
716.912000,0.243134
717.217180,0.246608
717.522320,0.239364
717.827420,0.237998
718.132480,0.237656
718.437500,0.240522
718.742480,0.243548
719.047420,0.238673
719.352320,0.237443
719.657180,0.244890
719.962000,0.239454
720.266780,0.250519
720.571520,0.241922
720.876220,0.243044
721.180880,0.242475
721.485500,0.239448
721.790080,0.242038
722.094620,0.250429
722.399120,0.246876
722.703580,0.247321
723.008000,0.246658
723.312380,0.245372
723.616720,0.246494
723.921020,0.246860
724.225280,0.245201
724.529500,0.247811
724.833680,0.252669
725.137820,0.247137
725.441920,0.246991
725.745980,0.257271
726.050000,0.251691
726.353980,0.249662
726.657920,0.251012
726.961820,0.249772
727.265680,0.252427
727.569500,0.255484
727.873280,0.246189
728.177020,0.255643
728.480720,0.250463
728.784380,0.257398
729.088000,0.254357
729.391580,0.254856
729.695120,0.255278
729.998620,0.259082
730.302080,0.254205
730.605500,0.258612
730.908880,0.255757
731.212220,0.259060
731.515520,0.255973
731.818780,0.256796
732.122000,0.255413
732.425180,0.255791
732.728320,0.254834
733.031420,0.259148
733.334480,0.257143
733.637500,0.253024
733.940480,0.265097
734.243420,0.261468
734.546320,0.262448
734.849180,0.259298
735.152000,0.261929
735.454780,0.267562
735.757520,0.265016
736.060220,0.270142
736.362880,0.267332
736.665500,0.259530
736.968080,0.265449
737.270620,0.273816
737.573120,0.269651
737.875580,0.273777
738.178000,0.273272
738.480380,0.266486
738.782720,0.269357
739.085020,0.267070
739.387280,0.263304
739.689500,0.271234
739.991680,0.271757
740.293820,0.274737
740.595920,0.280467
740.897980,0.273857
741.200000,0.277622
741.501980,0.281948
741.803920,0.274212
742.105820,0.277496
742.407680,0.274898
742.709500,0.277273
743.011280,0.275498
743.313020,0.278841
743.614720,0.280325
743.916380,0.278488
744.218000,0.289976
744.519580,0.285024
744.821120,0.286228
745.122620,0.282804
745.424080,0.283053
745.725500,0.287870
746.026880,0.293103
746.328220,0.284217
746.629520,0.284768
746.930780,0.292279
747.232000,0.286327
747.533180,0.283099
747.834320,0.293974
748.135420,0.286513
748.436480,0.294448
748.737500,0.287214
749.038480,0.290776
749.339420,0.301182
749.640320,0.291640
749.941180,0.297939
750.242000,0.294598
750.542780,0.293424
750.843520,0.297245
751.144220,0.296154
751.444880,0.298668
751.745500,0.305195
752.046080,0.313663
752.346620,0.300902
752.647120,0.306336
752.947580,0.309185
753.248000,0.308188
753.548380,0.301236
753.848720,0.302640
754.149020,0.306254
754.449280,0.300722
754.749500,0.313869
755.049680,0.306000
755.349820,0.316878
755.649920,0.314607
755.949980,0.315859
756.250000,0.315582
756.549980,0.304950
756.849920,0.317471
757.149820,0.310047
757.449680,0.320132
757.749500,0.320382
758.049280,0.318089
758.349020,0.319193
758.648720,0.331263
758.948380,0.334021
759.248000,0.324124
759.547580,0.320108
759.847120,0.324604
760.146620,0.320027
760.446080,0.325941
760.745500,0.323776
761.044880,0.331676
761.344220,0.331433
761.643520,0.342514
761.942780,0.342897
762.242000,0.336634
762.541180,0.330986
762.840320,0.333567
763.139420,0.334037
763.438480,0.336979
763.737500,0.336320
764.036480,0.342418
764.335420,0.332392
764.634320,0.343728
764.933180,0.346575
765.232000,0.351145
765.530780,0.346667
765.829520,0.356643
766.128220,0.349339
766.426880,0.348969
766.725500,0.348869
767.024080,0.341564
767.322620,0.355463
767.621120,0.354336
767.919580,0.352218
768.218000,0.350205
768.516380,0.355646
768.814720,0.360082
769.113020,0.355617
769.411280,0.363260
769.709500,0.356563
770.007680,0.357192
770.305820,0.364435
770.603920,0.354447
770.901980,0.359973
771.200000,0.366848
771.497980,0.365952
771.795920,0.371906
772.093820,0.361631
772.391680,0.371786
772.689500,0.364189
772.987280,0.367677
773.285020,0.376623
773.582720,0.372973
773.880380,0.380233
774.178000,0.381050
774.475580,0.382451
774.773120,0.380857
775.070620,0.392833
775.368080,0.378090
775.665500,0.374748
775.962880,0.383589
776.260220,0.387618
776.557520,0.396264
776.854780,0.392157
777.152000,0.383289
777.449180,0.389076
777.746320,0.389113
778.043420,0.394952
778.340480,0.405954
778.637500,0.388776
778.934480,0.408204
779.231420,0.399593
779.528320,0.397462
779.825180,0.388011
780.122000,0.395750
780.418780,0.415185
780.715520,0.398390
781.012220,0.410959
781.308880,0.411089
781.605500,0.412329
781.902080,0.415469
782.198620,0.408749
782.495120,0.414266
782.791580,0.415406
783.088000,0.414079
783.384380,0.415406
783.680720,0.402189
783.977020,0.415692
784.273280,0.416084
784.569500,0.429071
784.865680,0.422809
785.161820,0.425000
785.457920,0.414414
785.753980,0.424285
786.050000,0.420580
786.345980,0.432639
786.641920,0.424705
786.937820,0.430199
787.233680,0.423104
787.529500,0.431345
787.825280,0.432011
788.121020,0.427054
788.416720,0.435427
788.712380,0.440056
789.008000,0.436969
789.303580,0.433216
789.599120,0.442182
789.894620,0.444765
790.190080,0.440174
790.485500,0.447084
790.780880,0.440860
791.076220,0.437229
791.371520,0.448076
791.666780,0.442182
791.962000,0.451874
792.257180,0.443631
792.552320,0.449601
792.847420,0.457060
793.142480,0.452015
793.437500,0.457308
793.732480,0.450622
794.027420,0.454748
794.322320,0.466816
794.617180,0.461367
794.912000,0.455423
795.206780,0.462342
795.501520,0.465399
795.796220,0.451111
796.090880,0.470234
796.385500,0.457271
796.680080,0.464473
796.974620,0.467066
797.269120,0.471612
797.563580,0.471756
797.858000,0.474563
798.152380,0.489559
798.446720,0.484615
798.741020,0.470724
799.035280,0.487578
799.329500,0.474981
799.623680,0.489922
