399.985280,0.405405
400.329500,0.337838
400.673680,0.354430
401.017820,0.455882
401.361920,0.333333
401.705980,0.402439
402.050000,0.324675
402.393980,0.435294
402.737920,0.404494
403.081820,0.381443
403.425680,0.360465
403.769500,0.406250
404.113280,0.321839
404.457020,0.516854
404.800720,0.336957
405.144380,0.454545
405.488000,0.376344
405.831580,0.381443
406.175120,0.425532
406.518620,0.400000
406.862080,0.484536
407.205500,0.406250
407.548880,0.408163
407.892220,0.411765
408.235520,0.393617
408.578780,0.380952
408.922000,0.413462
409.265180,0.404040
409.608320,0.383838
409.951420,0.463918
410.294480,0.421569
410.637500,0.423913
410.980480,0.450980
411.323420,0.428571
411.666320,0.385321
412.009180,0.409091
412.352000,0.356436
412.694780,0.403670
413.037520,0.422018
413.380220,0.378378
413.722880,0.410714
414.065500,0.432432
414.408080,0.407080
414.750620,0.389381
415.093120,0.371901
415.435580,0.411765
415.778000,0.424242
416.120380,0.352941
416.462720,0.341270
416.805020,0.375940
417.147280,0.432836
417.489500,0.414286
417.831680,0.369863
418.173820,0.361702
418.515920,0.405594
418.857980,0.322785
419.200000,0.384615
419.541980,0.366864
419.883920,0.365169
420.225820,0.375723
420.567680,0.374302
420.909500,0.349727
421.251280,0.364583
421.593020,0.336735
421.934720,0.368687
422.276380,0.364103
422.618000,0.348039
422.959580,0.387255
423.301120,0.374429
423.642620,0.347826
423.984080,0.353488
424.325500,0.349776
424.666880,0.357759
425.008220,0.365546
425.349520,0.338983
425.690780,0.334615
426.032000,0.313725
426.373180,0.315353
426.714320,0.343750
427.055420,0.351351
427.396480,0.340824
427.737500,0.320158
428.078480,0.324111
428.419420,0.345382
428.760320,0.310345
429.101180,0.346457
429.442000,0.329502
429.782780,0.323077
430.123520,0.313725
430.464220,0.302583
430.804880,0.356322
431.145500,0.309091
431.486080,0.344569
431.826620,0.310078
432.167120,0.305147
432.507580,0.315217
432.848000,0.312950
433.188380,0.299639
433.528720,0.298113
433.869020,0.307143
434.209280,0.256140
434.549500,0.310105
434.889680,0.303030
435.229820,0.276451
435.569920,0.276817
435.909980,0.284790
436.250000,0.277966
436.589980,0.253870
436.929920,0.273016
437.269820,0.272727
437.609680,0.272189
437.949500,0.268072
438.289280,0.266289
438.629020,0.281977
438.968720,0.270349
439.308380,0.246612
439.648000,0.241096
439.987580,0.283069
440.327120,0.266667
440.666620,0.238961
441.006080,0.242967
441.345500,0.253071
441.684880,0.239234
442.024220,0.245658
442.363520,0.233333
442.702780,0.225000
443.042000,0.240088
443.381180,0.228448
443.720320,0.237581
444.059420,0.220588
444.398480,0.209205
444.737500,0.217213
445.076480,0.218254
445.415420,0.217565
445.754320,0.212058
446.093180,0.198165
446.432000,0.204887
446.770780,0.212524
447.109520,0.216912
447.448220,0.212880
447.786880,0.216458
448.125500,0.215517
448.464080,0.205357
448.802620,0.203901
449.141120,0.214533
449.479580,0.199301
449.818000,0.201377
450.156380,0.180602
450.494720,0.198347
450.833020,0.197552
451.171280,0.193493
451.509500,0.189895
451.847680,0.185497
452.185820,0.189329
452.523920,0.201031
452.861980,0.173693
453.200000,0.187708
453.537980,0.176471
453.875920,0.198319
454.213820,0.179795
454.551680,0.168874
454.889500,0.177066
455.227280,0.160142
455.565020,0.187605
455.902720,0.184692
456.240380,0.153078
456.578000,0.172474
456.915580,0.172712
457.253120,0.162829
457.590620,0.178982
457.928080,0.176768
458.265500,0.179054
458.602880,0.172078
458.940220,0.150592
459.277520,0.171200
459.614780,0.168576
459.952000,0.159938
460.289180,0.164557
460.626320,0.159055
460.963420,0.163166
461.300480,0.163609
461.637500,0.160247
461.974480,0.171254
462.311420,0.152012
462.648320,0.156662
462.985180,0.162123
463.322000,0.162202
463.658780,0.150552
463.995520,0.166437
464.332220,0.162050
464.668880,0.165323
465.005500,0.155496
465.342080,0.158771
465.678620,0.161132
466.015120,0.160414
466.351580,0.168142
466.688000,0.169306
467.024380,0.160389
467.360720,0.160227
467.697020,0.160592
468.033280,0.162222
468.369500,0.172185
468.705680,0.160090
469.041820,0.161458
469.377920,0.152928
469.713980,0.158599
470.050000,0.164251
470.385980,0.166341
470.721920,0.154750
471.057820,0.164717
471.393680,0.166511
471.729500,0.164041
472.065280,0.169946
472.401020,0.170213
472.736720,0.170157
473.072380,0.165171
473.408000,0.163621
473.743580,0.166090
474.079120,0.173127
474.414620,0.168787
474.750080,0.166802
475.085500,0.175164
475.420880,0.168193
475.756220,0.174980
476.091520,0.174766
476.426780,0.171521
476.762000,0.172969
477.097180,0.177600
477.432320,0.184976
477.767420,0.181373
478.102480,0.177165
478.437500,0.176519
478.772480,0.175729
479.107420,0.175753
479.442320,0.178257
479.777180,0.186953
480.112000,0.183359
480.446780,0.184723
480.781520,0.188406
481.116220,0.194826
481.450880,0.187354
481.785500,0.199367
482.120080,0.192006
482.454620,0.200466
482.789120,0.204618
483.123580,0.198598
483.458000,0.193829
483.792380,0.214058
484.126720,0.211583
484.461020,0.210773
484.795280,0.207402
485.129500,0.215121
485.463680,0.210078
485.797820,0.223173
486.131920,0.216526
486.465980,0.213127
486.800000,0.218321
487.133980,0.210725
487.467920,0.227238
487.801820,0.222731
488.135680,0.227445
488.469500,0.223903
488.803280,0.227340
489.137020,0.229304
489.470720,0.229970
489.804380,0.239050
490.138000,0.239614
490.471580,0.245394
490.805120,0.239457
491.138620,0.237385
491.472080,0.245936
491.805500,0.243375
492.138880,0.240445
492.472220,0.249827
492.805520,0.250000
493.138780,0.259132
493.472000,0.251505
493.805180,0.256480
494.138320,0.268846
494.471420,0.256510
494.804480,0.265847
495.137500,0.267009
495.470480,0.263225
495.803420,0.265113
496.136320,0.268797
496.469180,0.275015
496.802000,0.274450
497.134780,0.272286
497.467520,0.289908
497.800220,0.271226
498.132880,0.285126
498.465500,0.290267
498.798080,0.286530
499.130620,0.290848
499.463120,0.292532
499.795580,0.292629
500.128000,0.294823
500.460380,0.302476
500.792720,0.299576
501.125020,0.304256
501.457280,0.302872
501.789500,0.301653
502.121680,0.312079
502.453820,0.310556
502.785920,0.313657
503.117980,0.313052
503.450000,0.326971
503.781980,0.324365
504.113920,0.316264
504.445820,0.319397
504.777680,0.318118
505.109500,0.331731
505.441280,0.333652
505.773020,0.329732
506.104720,0.334903
506.436380,0.343114
506.768000,0.339102
507.099580,0.332265
507.431120,0.347073
507.762620,0.344925
508.094080,0.347311
508.425500,0.350140
508.756880,0.350251
509.088220,0.350966
509.419520,0.350559
509.750780,0.361293
510.082000,0.357743
510.413180,0.364809
510.744320,0.376438
511.075420,0.371219
511.406480,0.368124
511.737500,0.367130
512.068480,0.372180
512.399420,0.376995
512.730320,0.370439
513.061180,0.381066
513.392000,0.385234
513.722780,0.382325
514.053520,0.379013
514.384220,0.384396
514.714880,0.394926
515.045500,0.389368
515.376080,0.397094
515.706620,0.400390
516.037120,0.399020
516.367580,0.394283
516.698000,0.395588
517.028380,0.408143
517.358720,0.407901
517.689020,0.410979
518.019280,0.411440
518.349500,0.414090
518.679680,0.418980
519.009820,0.418016
519.339920,0.415832
519.669980,0.416374
520.000000,0.422822
520.329980,0.429756
520.659920,0.421268
520.989820,0.420021
521.319680,0.430556
521.649500,0.428792
521.979280,0.443633
522.309020,0.429979
522.638720,0.424475
522.968380,0.436918
523.298000,0.440501
523.627580,0.433523
523.957120,0.446753
524.286620,0.449192
524.616080,0.450362
524.945500,0.454264
525.274880,0.468958
525.604220,0.457039
525.933520,0.453354
526.262780,0.448049
526.592000,0.460173
526.921180,0.452006
527.250320,0.456114
527.579420,0.461344
527.908480,0.456425
528.237500,0.461768
528.566480,0.467066
528.895420,0.473632
529.224320,0.466568
529.553180,0.466988
529.882000,0.470560
530.210780,0.477317
530.539520,0.470278
530.868220,0.481570
531.196880,0.483994
531.525500,0.491525
531.854080,0.479362
532.182620,0.477814
532.511120,0.477494
532.839580,0.485481
533.168000,0.481768
533.496380,0.492237
533.824720,0.498430
534.153020,0.489523
534.481280,0.492070
534.809500,0.501319
535.137680,0.490451
535.465820,0.491838
535.793920,0.498308
536.121980,0.490978
536.450000,0.503171
536.777980,0.512359
537.105920,0.503944
537.433820,0.502864
537.761680,0.509388
538.089500,0.518009
538.417280,0.502984
538.745020,0.517829
539.072720,0.512690
539.400380,0.511267
539.728000,0.517782
540.055580,0.510112
540.383120,0.508563
540.710620,0.515253
541.038080,0.517521
541.365500,0.512500
541.692880,0.510174
542.020220,0.521411
542.347520,0.520818
542.674780,0.519054
543.002000,0.516445
543.329180,0.529288
543.656320,0.527778
543.983420,0.517265
544.310480,0.518179
544.637500,0.531559
544.964480,0.520525
545.291420,0.516118
545.618320,0.532869
545.945180,0.528345
546.272000,0.521298
546.598780,0.529990
546.925520,0.539070
547.252220,0.536151
547.578880,0.533399
547.905500,0.530392
548.232080,0.526641
548.558620,0.529450
548.885120,0.532221
549.211580,0.536805
549.538000,0.534371
549.864380,0.539550
550.190720,0.537294
550.517020,0.535528
550.843280,0.533225
551.169500,0.531489
551.495680,0.543035
551.821820,0.534618
552.147920,0.535133
552.473980,0.539019
552.800000,0.533355
553.125980,0.541257
553.451920,0.535169
553.777820,0.543304
554.103680,0.539602
554.429500,0.539672
554.755280,0.539386
555.081020,0.537433
555.406720,0.538097
555.732380,0.544561
556.058000,0.539036
556.383580,0.538514
556.709120,0.532736
557.034620,0.541853
557.360080,0.541623
557.685500,0.540111
558.010880,0.527210
558.336220,0.534974
558.661520,0.535980
558.986780,0.539334
559.312000,0.543803
559.637180,0.540754
559.962320,0.542542
560.287420,0.537377
560.612480,0.536419
560.937500,0.536344
561.262480,0.540323
561.587420,0.532100
561.912320,0.535741
562.237180,0.531088
562.562000,0.544706
562.886780,0.538462
563.211520,0.538748
563.536220,0.535065
563.860880,0.540928
564.185500,0.532458
564.510080,0.534612
564.834620,0.542985
565.159120,0.529323
565.483580,0.529837
565.808000,0.529701
566.132380,0.530026
566.456720,0.534392
566.781020,0.531883
567.105280,0.529679
567.429500,0.536419
567.753680,0.536249
568.077820,0.527252
568.401920,0.540871
568.725980,0.535104
569.050000,0.529278
569.373980,0.527979
569.697920,0.524460
570.021820,0.528839
570.345680,0.533486
570.669500,0.531858
570.993280,0.524179
571.317020,0.515528
571.640720,0.521675
571.964380,0.518931
572.288000,0.531528
572.611580,0.527143
572.935120,0.527123
573.258620,0.517577
573.582080,0.520864
573.905500,0.525316
574.228880,0.523756
574.552220,0.518871
574.875520,0.507818
575.198780,0.517167
575.522000,0.513930
575.845180,0.509312
576.168320,0.515990
576.491420,0.522166
576.814480,0.513562
577.137500,0.522006
577.460480,0.517941
577.783420,0.518757
578.106320,0.526709
578.429180,0.513609
578.752000,0.515109
579.074780,0.512138
579.397520,0.500968
579.720220,0.511905
580.042880,0.502808
580.365500,0.503309
580.688080,0.509159
581.010620,0.504219
581.333120,0.511356
581.655580,0.503830
581.978000,0.502162
582.300380,0.495943
582.622720,0.502307
582.945020,0.503576
583.267280,0.496255
583.589500,0.496629
583.911680,0.496348
584.233820,0.492288
584.555920,0.495430
584.877980,0.491834
585.200000,0.488950
585.521980,0.493358
585.843920,0.495119
586.165820,0.494820
586.487680,0.489317
586.809500,0.490549
587.131280,0.483881
587.453020,0.486905
587.774720,0.489947
588.096380,0.485123
588.418000,0.483465
588.739580,0.485772
589.061120,0.483036
589.382620,0.479943
589.704080,0.477980
590.025500,0.481164
590.346880,0.484542
590.668220,0.471297
590.989520,0.468663
591.310780,0.475007
591.632000,0.469945
591.953180,0.468586
592.274320,0.464646
592.595420,0.463093
592.916480,0.463733
593.237500,0.470493
593.558480,0.467043
593.879420,0.470461
594.200320,0.467452
594.521180,0.465870
594.842000,0.463461
595.162780,0.460737
595.483520,0.461048
595.804220,0.459989
596.124880,0.461231
596.445500,0.446162
596.766080,0.465448
597.086620,0.454883
597.407120,0.453923
597.727580,0.451604
598.048000,0.448559
598.368380,0.443714
598.688720,0.442464
599.009020,0.441879
599.329280,0.442257
599.649500,0.441363
599.969680,0.443376
600.289820,0.440438
600.609920,0.434411
600.929980,0.436398
601.250000,0.435405
601.569980,0.432082
601.889920,0.430099
602.209820,0.429383
602.529680,0.433672
602.849500,0.427169
603.169280,0.426564
603.489020,0.425962
603.808720,0.423478
604.128380,0.423841
604.448000,0.417403
604.767580,0.417877
605.087120,0.419114
605.406620,0.418696
605.726080,0.416025
606.045500,0.407356
606.364880,0.413099
606.684220,0.414906
607.003520,0.406250
607.322780,0.408755
607.642000,0.405514
607.961180,0.401272
608.280320,0.401972
608.599420,0.399479
608.918480,0.397947
609.237500,0.397300
609.556480,0.402190
609.875420,0.401654
610.194320,0.393268
610.513180,0.389464
610.832000,0.388326
611.150780,0.386603
611.469520,0.388839
611.788220,0.391173
612.106880,0.387817
612.425500,0.385505
612.744080,0.386888
613.062620,0.376758
613.381120,0.382693
613.699580,0.384733
614.018000,0.378993
614.336380,0.381863
614.654720,0.371473
614.973020,0.372416
615.291280,0.370623
615.609500,0.378764
615.927680,0.372373
616.245820,0.370439
616.563920,0.364315
616.881980,0.369816
617.200000,0.363608
617.517980,0.358743
617.835920,0.359118
618.153820,0.355300
618.471680,0.359380
618.789500,0.362807
619.107280,0.360250
619.425020,0.362195
619.742720,0.357188
620.060380,0.346600
620.378000,0.356199
620.695580,0.349617
621.013120,0.346457
621.330620,0.344525
621.648080,0.335962
621.965500,0.343476
622.282880,0.335120
622.600220,0.337650
622.917520,0.340265
623.234780,0.346834
623.552000,0.340547
623.869180,0.332808
624.186320,0.336835
624.503420,0.329467
624.820480,0.331134
625.137500,0.333439
625.454480,0.335105
625.771420,0.332598
626.088320,0.325347
626.405180,0.327629
626.722000,0.323400
627.038780,0.317669
627.355520,0.320312
627.672220,0.322551
627.988880,0.315708
628.305500,0.322530
628.622080,0.324040
628.938620,0.314373
629.255120,0.320473
629.571580,0.310757
629.888000,0.313593
630.204380,0.312059
630.520720,0.313528
630.837020,0.313599
631.153280,0.309053
631.469500,0.309885
631.785680,0.305304
632.101820,0.310314
632.417920,0.303428
632.733980,0.301621
633.050000,0.305033
633.365980,0.300533
633.681920,0.303103
633.997820,0.297669
634.313680,0.300206
634.629500,0.300206
634.945280,0.293255
635.261020,0.296742
635.576720,0.296242
635.892380,0.293930
636.208000,0.296339
636.523580,0.292020
636.839120,0.290388
637.154620,0.292464
637.470080,0.287805
637.785500,0.285756
638.100880,0.286707
638.416220,0.291631
638.731520,0.282808
639.046780,0.284591
639.362000,0.283830
639.677180,0.282696
639.992320,0.276854
640.307420,0.281821
640.622480,0.277513
640.937500,0.276006
641.252480,0.277855
641.567420,0.276499
641.882320,0.275334
642.197180,0.272319
642.512000,0.274279
642.826780,0.270180
643.141520,0.273687
643.456220,0.272828
643.770880,0.270591
644.085500,0.263276
644.400080,0.263483
644.714620,0.265886
645.029120,0.265402
645.343580,0.263577
645.658000,0.264224
645.972380,0.260619
646.286720,0.261379
646.601020,0.264877
646.915280,0.262133
647.229500,0.261538
647.543680,0.265949
647.857820,0.256813
648.171920,0.259631
648.485980,0.255412
648.800000,0.255442
649.113980,0.255543
649.427920,0.259085
649.741820,0.255015
650.055680,0.253428
650.369500,0.256726
650.683280,0.251387
650.997020,0.251650
651.310720,0.252614
651.624380,0.248626
651.938000,0.249861
652.251580,0.251044
652.565120,0.243991
652.878620,0.248592
653.192080,0.248315
653.505500,0.246564
653.818880,0.243389
654.132220,0.246084
654.445520,0.242201
654.758780,0.243626
655.072000,0.242980
655.385180,0.233951
655.698320,0.239783
656.011420,0.241617
656.324480,0.234917
656.637500,0.236674
656.950480,0.237816
657.263420,0.240024
657.576320,0.236881
657.889180,0.235919
658.202000,0.234601
658.514780,0.234594
658.827520,0.237395
659.140220,0.233144
659.452880,0.234974
659.765500,0.232390
660.078080,0.230214
660.390620,0.232203
660.703120,0.231286
661.015580,0.233129
661.328000,0.233942
661.640380,0.233302
661.952720,0.233572
662.265020,0.232514
662.577280,0.228690
662.889500,0.225481
663.201680,0.226228
663.513820,0.224831
663.825920,0.225744
664.137980,0.229153
664.450000,0.221867
664.761980,0.224223
665.073920,0.225901
665.385820,0.226113
665.697680,0.221818
666.009500,0.223479
666.321280,0.222333
666.633020,0.227061
666.944720,0.227503
667.256380,0.226783
667.568000,0.222147
667.879580,0.223810
668.191120,0.223558
668.502620,0.223554
668.814080,0.222456
669.125500,0.223743
669.436880,0.223029
669.748220,0.215646
670.059520,0.223389
670.370780,0.223382
670.682000,0.219823
670.993180,0.218111
671.304320,0.218706
671.615420,0.223011
671.926480,0.217530
672.237500,0.212576
672.548480,0.217530
672.859420,0.219085
673.170320,0.220530
673.481180,0.215424
673.792000,0.216372
674.102780,0.216876
674.413520,0.218374
674.724220,0.217423
675.034880,0.217822
675.345500,0.214807
675.656080,0.220690
675.966620,0.218261
676.277120,0.216038
676.587580,0.217231
676.898000,0.216125
677.208380,0.218484
677.518720,0.212619
677.829020,0.223577
678.139280,0.219422
678.449500,0.213888
678.759680,0.223305
679.069820,0.212639
679.379920,0.222180
679.689980,0.221315
680.000000,0.214953
680.309980,0.220490
680.619920,0.218099
680.929820,0.218738
681.239680,0.214180
681.549500,0.215185
681.859280,0.217326
682.169020,0.218202
682.478720,0.219895
682.788380,0.218531
683.098000,0.215408
683.407580,0.219137
683.717120,0.216216
684.026620,0.226657
684.336080,0.222812
684.645500,0.213992
684.954880,0.216849
685.264220,0.223103
685.573520,0.226113
685.882780,0.219409
686.192000,0.221219
686.501180,0.228150
686.810320,0.226364
687.119420,0.223489
687.428480,0.222940
687.737500,0.224098
688.046480,0.222776
688.355420,0.224444
688.664320,0.221882
688.973180,0.223201
689.282000,0.226852
689.590780,0.226227
689.899520,0.222180
690.208220,0.229740
690.516880,0.227568
690.825500,0.226792
691.134080,0.222855
691.442620,0.224085
691.751120,0.222222
692.059580,0.226977
692.368000,0.225672
692.676380,0.229771
692.984720,0.228244
693.293020,0.229103
693.601280,0.232354
693.909500,0.226636
694.217680,0.231150
694.525820,0.229627
694.833920,0.228157
695.141980,0.229078
695.450000,0.233588
695.757980,0.232620
696.065920,0.231068
696.373820,0.232102
696.681680,0.233602
696.989500,0.238904
697.297280,0.232594
697.605020,0.232143
697.912720,0.236741
698.220380,0.232586
698.528000,0.236551
698.835580,0.236270
699.143120,0.240452
699.450620,0.241448
699.758080,0.236863
700.065500,0.242219
700.372880,0.241200
700.680220,0.232948
700.987520,0.247222
701.294780,0.242498
701.602000,0.234945
701.909180,0.245628
702.216320,0.237779
702.523420,0.241910
702.830480,0.244752
703.137500,0.247857
703.444480,0.249310
703.751420,0.246154
704.058320,0.246933
704.365180,0.253155
704.672000,0.251881
704.978780,0.249317
705.285520,0.243740
705.592220,0.250588
705.898880,0.245075
706.205500,0.254304
706.512080,0.251580
706.818620,0.249613
707.125120,0.253846
707.431580,0.249316
707.738000,0.259766
708.044380,0.253956
708.350720,0.254108
708.657020,0.255178
708.963280,0.259317
709.269500,0.254403
709.575680,0.261297
709.881820,0.259434
710.187920,0.259922
710.493980,0.260667
710.800000,0.260107
711.105980,0.259036
711.411920,0.263303
711.717820,0.258869
712.023680,0.258453
712.329500,0.268927
712.635280,0.269767
712.941020,0.271357
713.246720,0.271937
713.552380,0.269231
713.858000,0.270398
714.163580,0.272297
714.469120,0.270027
714.774620,0.275957
715.080080,0.271692
715.385500,0.273781
715.690880,0.271400
715.996220,0.274168
716.301520,0.272727
716.606780,0.273978
716.912000,0.277868
717.217180,0.269753
717.522320,0.278728
717.827420,0.283564
718.132480,0.280610
718.437500,0.277212
718.742480,0.276613
719.047420,0.279935
719.352320,0.292653
719.657180,0.289452
719.962000,0.288255
720.266780,0.286664
720.571520,0.287904
720.876220,0.278232
721.180880,0.283445
721.485500,0.283326
721.790080,0.288323
722.094620,0.299314
722.399120,0.293839
722.703580,0.292327
723.008000,0.300561
723.312380,0.303917
723.616720,0.289418
723.921020,0.295799
724.225280,0.298866
724.529500,0.298161
724.833680,0.306940
725.137820,0.296476
725.441920,0.302274
725.745980,0.301566
726.050000,0.307172
726.353980,0.297431
726.657920,0.303194
726.961820,0.300457
727.265680,0.312991
727.569500,0.307587
727.873280,0.311316
728.177020,0.310917
728.480720,0.307870
728.784380,0.318929
729.088000,0.317004
729.391580,0.319754
729.695120,0.318138
729.998620,0.316922
730.302080,0.311389
730.605500,0.321689
730.908880,0.321901
731.212220,0.328110
731.515520,0.319356
731.818780,0.324272
732.122000,0.319882
732.425180,0.323805
732.728320,0.324244
733.031420,0.321805
733.334480,0.331633
733.637500,0.322077
733.940480,0.331627
734.243420,0.333333
734.546320,0.337137
734.849180,0.328512
735.152000,0.329876
735.454780,0.331095
735.757520,0.336670
736.060220,0.335440
736.362880,0.337710
736.665500,0.338903
736.968080,0.339065
737.270620,0.347850
737.573120,0.342795
737.875580,0.351842
738.178000,0.350572
738.480380,0.344865
738.782720,0.343511
739.085020,0.344163
739.387280,0.337029
739.689500,0.353907
739.991680,0.352049
740.293820,0.352128
740.595920,0.355036
740.897980,0.352908
741.200000,0.349972
741.501980,0.362751
741.803920,0.352477
742.105820,0.354766
742.407680,0.359348
742.709500,0.351705
743.011280,0.354045
743.313020,0.355362
743.614720,0.356936
743.916380,0.361047
744.218000,0.376492
744.519580,0.366546
744.821120,0.370060
745.122620,0.374476
745.424080,0.364784
745.725500,0.381412
746.026880,0.376232
746.328220,0.372996
746.629520,0.365443
746.930780,0.379902
747.232000,0.373391
747.533180,0.380110
747.834320,0.376141
748.135420,0.382846
748.436480,0.386775
748.737500,0.383570
749.038480,0.381185
749.339420,0.392035
749.640320,0.379635
749.941180,0.376640
750.242000,0.391332
750.542780,0.388337
750.843520,0.392056
751.144220,0.389744
751.444880,0.395688
751.745500,0.394805
752.046080,0.397049
752.346620,0.389175
752.647120,0.399086
752.947580,0.399741
753.248000,0.385558
753.548380,0.398829
753.848720,0.404379
754.149020,0.402321
754.449280,0.407091
754.749500,0.404778
755.049680,0.401333
755.349820,0.405604
755.649920,0.418374
755.949980,0.418049
756.250000,0.424063
756.549980,0.406601
756.849920,0.413324
757.149820,0.414504
757.449680,0.422442
757.749500,0.422631
758.049280,0.428669
758.349020,0.421419
758.648720,0.431332
758.948380,0.423368
759.248000,0.424528
759.547580,0.428379
759.847120,0.430048
760.146620,0.433694
760.446080,0.435484
760.745500,0.439860
761.044880,0.431108
761.344220,0.440485
761.643520,0.434322
761.942780,0.438768
762.242000,0.441301
762.541180,0.436620
762.840320,0.439607
763.139420,0.453586
763.438480,0.442242
763.737500,0.446589
764.036480,0.454927
764.335420,0.452364
764.634320,0.440748
764.933180,0.441096
765.232000,0.456627
765.530780,0.451930
765.829520,0.456643
766.128220,0.462770
766.426880,0.453447
766.725500,0.466758
767.024080,0.455418
767.322620,0.461964
767.621120,0.449187
767.919580,0.462799
768.218000,0.453488
768.516380,0.476673
768.814720,0.470508
769.113020,0.465886
769.411280,0.474448
769.709500,0.470230
770.007680,0.479891
770.305820,0.471941
770.603920,0.473046
770.901980,0.474727
771.200000,0.466712
771.497980,0.469839
771.795920,0.475585
772.093820,0.481283
772.391680,0.481213
772.689500,0.474324
772.987280,0.483502
773.285020,0.484621
773.582720,0.498649
773.880380,0.497598
774.178000,0.492843
774.475580,0.498326
774.773120,0.485944
775.070620,0.505747
775.368080,0.497662
775.665500,0.488247
775.962880,0.501001
776.260220,0.504711
776.557520,0.511674
776.854780,0.498310
777.152000,0.495358
777.449180,0.505732
777.746320,0.490591
778.043420,0.506821
778.340480,0.507442
778.637500,0.517241
778.934480,0.502354
779.231420,0.510855
779.528320,0.496994
779.825180,0.498024
780.122000,0.509296
780.418780,0.523940
780.715520,0.511737
781.012220,0.525342
781.308880,0.529412
781.605500,0.523973
781.902080,0.509240
782.198620,0.527683
782.495120,0.527435
782.791580,0.522008
783.088000,0.519669
783.384380,0.526135
783.680720,0.535568
783.977020,0.525809
784.273280,0.534266
784.569500,0.537386
784.865680,0.537552
785.161820,0.528472
785.457920,0.534304
785.753980,0.535939
786.050000,0.531768
786.345980,0.533333
786.641920,0.530187
786.937820,0.552707
787.233680,0.541406
787.529500,0.538141
787.825280,0.548867
788.121020,0.537535
788.416720,0.542696
788.712380,0.553597
789.008000,0.540368
789.303580,0.551943
789.599120,0.552727
789.894620,0.547292
790.190080,0.551124
790.485500,0.560835
790.780880,0.558423
791.076220,0.559163
791.371520,0.572259
791.666780,0.568727
791.962000,0.577517
792.257180,0.565886
792.552320,0.567803
792.847420,0.564774
793.142480,0.564835
793.437500,0.564399
793.732480,0.577908
794.027420,0.574184
794.322320,0.581655
794.617180,0.583210
794.912000,0.580981
795.206780,0.574198
795.501520,0.587072
795.796220,0.571111
796.090880,0.585531
796.385500,0.579460
796.680080,0.580404
796.974620,0.586078
797.269120,0.590462
797.563580,0.589313
797.858000,0.602126
798.152380,0.601701
798.446720,0.598462
798.741020,0.583205
799.035280,0.594720
799.329500,0.588915
799.623680,0.591473
