399.985280,0.445946
400.329500,0.459459
400.673680,0.405063
401.017820,0.382353
401.361920,0.393939
401.705980,0.292683
402.050000,0.350649
402.393980,0.411765
402.737920,0.359551
403.081820,0.360825
403.425680,0.395349
403.769500,0.302083
404.113280,0.344828
404.457020,0.393258
404.800720,0.380435
405.144380,0.383838
405.488000,0.311828
405.831580,0.391753
406.175120,0.425532
406.518620,0.400000
406.862080,0.402062
407.205500,0.354167
407.548880,0.387755
407.892220,0.313725
408.235520,0.361702
408.578780,0.352381
408.922000,0.346154
409.265180,0.393939
409.608320,0.373737
409.951420,0.463918
410.294480,0.352941
410.637500,0.380435
410.980480,0.392157
411.323420,0.346939
411.666320,0.348624
412.009180,0.436364
412.352000,0.257426
412.694780,0.330275
413.037520,0.302752
413.380220,0.378378
413.722880,0.321429
414.065500,0.378378
414.408080,0.292035
414.750620,0.283186
415.093120,0.330579
415.435580,0.336134
415.778000,0.310606
416.120380,0.268908
416.462720,0.325397
416.805020,0.323308
417.147280,0.298507
417.489500,0.314286
417.831680,0.294521
418.173820,0.297872
418.515920,0.321678
418.857980,0.278481
419.200000,0.282051
419.541980,0.337278
419.883920,0.314607
420.225820,0.300578
420.567680,0.290503
420.909500,0.306011
421.251280,0.312500
421.593020,0.260204
421.934720,0.257576
422.276380,0.271795
422.618000,0.279412
422.959580,0.284314
423.301120,0.273973
423.642620,0.247826
423.984080,0.269767
424.325500,0.264574
424.666880,0.241379
425.008220,0.231092
425.349520,0.245763
425.690780,0.238462
426.032000,0.227451
426.373180,0.232365
426.714320,0.253906
427.055420,0.247104
427.396480,0.254682
427.737500,0.237154
428.078480,0.213439
428.419420,0.228916
428.760320,0.218391
429.101180,0.236220
429.442000,0.237548
429.782780,0.219231
430.123520,0.235294
430.464220,0.225092
430.804880,0.260536
431.145500,0.210909
431.486080,0.220974
431.826620,0.240310
432.167120,0.205882
432.507580,0.235507
432.848000,0.201439
433.188380,0.209386
433.528720,0.200000
433.869020,0.210714
434.209280,0.185965
434.549500,0.219512
434.889680,0.208754
435.229820,0.187713
435.569920,0.193772
435.909980,0.174757
436.250000,0.200000
436.589980,0.167183
436.929920,0.196825
437.269820,0.188088
437.609680,0.201183
437.949500,0.177711
438.289280,0.192635
438.629020,0.209302
438.968720,0.188953
439.308380,0.162602
439.648000,0.191781
439.987580,0.182540
440.327120,0.186667
440.666620,0.179221
441.006080,0.189258
441.345500,0.176904
441.684880,0.153110
442.024220,0.181141
442.363520,0.178571
442.702780,0.181818
443.042000,0.174009
443.381180,0.163793
443.720320,0.174946
444.059420,0.163866
444.398480,0.163180
444.737500,0.159836
445.076480,0.174603
445.415420,0.177645
445.754320,0.166320
446.093180,0.165138
446.432000,0.161654
446.770780,0.166983
447.109520,0.165441
447.448220,0.171735
447.786880,0.159213
448.125500,0.165517
448.464080,0.153571
448.802620,0.170213
449.141120,0.157439
449.479580,0.164336
449.818000,0.168675
450.156380,0.172241
450.494720,0.166942
450.833020,0.166084
451.171280,0.169521
451.509500,0.175958
451.847680,0.170320
452.185820,0.161790
452.523920,0.180412
452.861980,0.175379
453.200000,0.171096
453.537980,0.169748
453.875920,0.169748
454.213820,0.174658
454.551680,0.163907
454.889500,0.163575
455.227280,0.158363
455.565020,0.184255
455.902720,0.178037
456.240380,0.166389
456.578000,0.168990
456.915580,0.179620
457.253120,0.174342
457.590620,0.182266
457.928080,0.186869
458.265500,0.167230
458.602880,0.168831
458.940220,0.179357
459.277520,0.180800
459.614780,0.173486
459.952000,0.183230
460.289180,0.177215
460.626320,0.185827
460.963420,0.184168
461.300480,0.189602
461.637500,0.178737
461.974480,0.194190
462.311420,0.184799
462.648320,0.188873
462.985180,0.187948
463.322000,0.186012
463.658780,0.191989
463.995520,0.189821
464.332220,0.175900
464.668880,0.200269
465.005500,0.198391
465.342080,0.203585
465.678620,0.210332
466.015120,0.206986
466.351580,0.206068
466.688000,0.210719
467.024380,0.207776
467.360720,0.202273
467.697020,0.207289
468.033280,0.213333
468.369500,0.213024
468.705680,0.210823
469.041820,0.212500
469.377920,0.204989
469.713980,0.213182
470.050000,0.225121
470.385980,0.219178
470.721920,0.217434
471.057820,0.225146
471.393680,0.218896
471.729500,0.224282
472.065280,0.230769
472.401020,0.223404
472.736720,0.234729
473.072380,0.233393
473.408000,0.228024
473.743580,0.231834
474.079120,0.244617
474.414620,0.240882
474.750080,0.249797
475.085500,0.245888
475.420880,0.246461
475.756220,0.246934
476.091520,0.250639
476.426780,0.251618
476.762000,0.250201
477.097180,0.252000
477.432320,0.257674
477.767420,0.257353
478.102480,0.255118
478.437500,0.265189
478.772480,0.260835
479.107420,0.257933
479.442320,0.261391
479.777180,0.267303
480.112000,0.268875
480.446780,0.260327
480.781520,0.275362
481.116220,0.279709
481.450880,0.272443
481.785500,0.282437
482.120080,0.288401
482.454620,0.287490
482.789120,0.286624
483.123580,0.281153
483.458000,0.293513
483.792380,0.300319
484.126720,0.285714
484.461020,0.296643
484.795280,0.299152
485.129500,0.300857
485.463680,0.302326
485.797820,0.314152
486.131920,0.309105
486.465980,0.309653
486.800000,0.323664
487.133980,0.304381
487.467920,0.317521
487.801820,0.320366
488.135680,0.324488
488.469500,0.331316
488.803280,0.323923
489.137020,0.324542
489.470720,0.328635
489.804380,0.334076
490.138000,0.333086
490.471580,0.337509
490.805120,0.340958
491.138620,0.335466
491.472080,0.347703
491.805500,0.347280
492.138880,0.348853
492.472220,0.357785
492.805520,0.356844
493.138780,0.354238
493.472000,0.346488
493.805180,0.361528
494.138320,0.366911
494.471420,0.360026
494.804480,0.354463
495.137500,0.362003
495.470480,0.369662
495.803420,0.359572
496.136320,0.380326
496.469180,0.368938
496.802000,0.369193
497.134780,0.381443
497.467520,0.386544
497.800220,0.387972
498.132880,0.382716
498.465500,0.387601
498.798080,0.381279
499.130620,0.387984
499.463120,0.385177
499.795580,0.386689
500.128000,0.393460
500.460380,0.391819
500.792720,0.396607
501.125020,0.388860
501.457280,0.403133
501.789500,0.391529
502.121680,0.414204
502.453820,0.402856
502.785920,0.403702
503.117980,0.411187
503.450000,0.412858
503.781980,0.415546
504.113920,0.417734
504.445820,0.413709
504.777680,0.411765
505.109500,0.425481
505.441280,0.423996
505.773020,0.421325
506.104720,0.420160
506.436380,0.426408
506.768000,0.432647
507.099580,0.423341
507.431120,0.426698
507.762620,0.429041
508.094080,0.423883
508.425500,0.435107
508.756880,0.437128
509.088220,0.437902
509.419520,0.439944
509.750780,0.443768
510.082000,0.434701
510.413180,0.440811
510.744320,0.441325
511.075420,0.437672
511.406480,0.449929
511.737500,0.441204
512.068480,0.449248
512.399420,0.445540
512.730320,0.440185
513.061180,0.452902
513.392000,0.453384
513.722780,0.459174
514.053520,0.457115
514.384220,0.458611
514.714880,0.457157
515.045500,0.450192
515.376080,0.452300
515.706620,0.455431
516.037120,0.464706
516.367580,0.466732
516.698000,0.459804
517.028380,0.459285
517.358720,0.463210
517.689020,0.470326
518.019280,0.457602
518.349500,0.471363
518.679680,0.466431
519.009820,0.466093
519.339920,0.476453
519.669980,0.469111
520.000000,0.476312
520.329980,0.477968
520.659920,0.478528
520.989820,0.475748
521.319680,0.481481
521.649500,0.480206
521.979280,0.483299
522.309020,0.477697
522.638720,0.470046
522.968380,0.481386
523.298000,0.482777
523.627580,0.471805
523.957120,0.479481
524.286620,0.487754
524.616080,0.484488
524.945500,0.482171
525.274880,0.490508
525.604220,0.478261
525.933520,0.485849
526.262780,0.479980
526.592000,0.476915
526.921180,0.481971
527.250320,0.483511
527.579420,0.490652
527.908480,0.479074
528.237500,0.502483
528.566480,0.495010
528.895420,0.494332
529.224320,0.495790
529.553180,0.487229
529.882000,0.500243
530.210780,0.487452
530.539520,0.486098
530.868220,0.496410
531.196880,0.495939
531.525500,0.501211
531.854080,0.483583
532.182620,0.486221
532.511120,0.490487
532.839580,0.503176
533.168000,0.498633
533.496380,0.499087
533.824720,0.490354
534.153020,0.503344
534.481280,0.502643
534.809500,0.504837
535.137680,0.490885
535.465820,0.493127
535.793920,0.501269
536.121980,0.499371
536.450000,0.496406
536.777980,0.499791
537.105920,0.494396
537.433820,0.495499
537.761680,0.501633
538.089500,0.497369
538.417280,0.495424
538.745020,0.501981
539.072720,0.497071
539.400380,0.499611
539.728000,0.489101
540.055580,0.500749
540.383120,0.490692
540.710620,0.498140
541.038080,0.499447
541.365500,0.494118
541.692880,0.494186
542.020220,0.493343
542.347520,0.494616
542.674780,0.486944
543.002000,0.488104
543.329180,0.502981
543.656320,0.503516
543.983420,0.494017
544.310480,0.491675
544.637500,0.496759
544.964480,0.494280
545.291420,0.493852
545.618320,0.493692
545.945180,0.489782
546.272000,0.481324
546.598780,0.490003
546.925520,0.492252
547.252220,0.488610
547.578880,0.491365
547.905500,0.489542
548.232080,0.481481
548.558620,0.480638
548.885120,0.488387
549.211580,0.477660
549.538000,0.484436
549.864380,0.483280
550.190720,0.478205
550.517020,0.483703
550.843280,0.484691
551.169500,0.470102
551.495680,0.483246
551.821820,0.483018
552.147920,0.476252
552.473980,0.476128
552.800000,0.474166
553.125980,0.482973
553.451920,0.479098
553.777820,0.474350
554.103680,0.477587
554.429500,0.471041
554.755280,0.469626
555.081020,0.473930
555.406720,0.468337
555.732380,0.462216
556.058000,0.464698
556.383580,0.466279
556.709120,0.467609
557.034620,0.460903
557.360080,0.458377
557.685500,0.469571
558.010880,0.455806
558.336220,0.456591
558.661520,0.458703
558.986780,0.459249
559.312000,0.459046
559.637180,0.453860
559.962320,0.458526
560.287420,0.455924
560.612480,0.452458
560.937500,0.454112
561.262480,0.454545
561.587420,0.455205
561.912320,0.446573
562.237180,0.447816
562.562000,0.449682
562.886780,0.455964
563.211520,0.440015
563.536220,0.434879
563.860880,0.443983
564.185500,0.442026
564.510080,0.438676
564.834620,0.438779
565.159120,0.433459
565.483580,0.436336
565.808000,0.434355
566.132380,0.429317
566.456720,0.435752
566.781020,0.426857
567.105280,0.427977
567.429500,0.428680
567.753680,0.424626
568.077820,0.427909
568.401920,0.436211
568.725980,0.423529
569.050000,0.433460
569.373980,0.417587
569.697920,0.420554
570.021820,0.422846
570.345680,0.411405
570.669500,0.415872
570.993280,0.410853
571.317020,0.408111
571.640720,0.415339
571.964380,0.410171
572.288000,0.416172
572.611580,0.411456
572.935120,0.406285
573.258620,0.405011
573.582080,0.397914
573.905500,0.405063
574.228880,0.411656
574.552220,0.406742
574.875520,0.402829
575.198780,0.393206
575.522000,0.401393
575.845180,0.389685
576.168320,0.391664
576.491420,0.397892
576.814480,0.389873
577.137500,0.394661
577.460480,0.388909
577.783420,0.394784
578.106320,0.392094
578.429180,0.382467
578.752000,0.379298
579.074780,0.391773
579.397520,0.388315
579.720220,0.380952
580.042880,0.385530
580.365500,0.377234
580.688080,0.386703
581.010620,0.370908
581.333120,0.371743
581.655580,0.376956
581.978000,0.370801
582.300380,0.363843
582.622720,0.372116
582.945020,0.375488
583.267280,0.368935
583.589500,0.365008
583.911680,0.367736
584.233820,0.359773
584.555920,0.368421
584.877980,0.369033
585.200000,0.358809
585.521980,0.363299
585.843920,0.353264
586.165820,0.355271
586.487680,0.348781
586.809500,0.354635
587.131280,0.349896
587.453020,0.348512
587.774720,0.349793
588.096380,0.346266
588.418000,0.349429
588.739580,0.350675
589.061120,0.354227
589.382620,0.344986
589.704080,0.342216
590.025500,0.343037
590.346880,0.340922
590.668220,0.340801
590.989520,0.328896
591.310780,0.336095
591.632000,0.331967
591.953180,0.331027
592.274320,0.332514
592.595420,0.329472
592.916480,0.330617
593.237500,0.325249
593.558480,0.332526
593.879420,0.325600
594.200320,0.327619
594.521180,0.323506
594.842000,0.320795
595.162780,0.319979
595.483520,0.319064
595.804220,0.318475
596.124880,0.320810
596.445500,0.312025
596.766080,0.321861
597.086620,0.312367
597.407120,0.308583
597.727580,0.312649
598.048000,0.307591
598.368380,0.305892
598.688720,0.305374
599.009020,0.305467
599.329280,0.304683
599.649500,0.301638
599.969680,0.301282
600.289820,0.305021
600.609920,0.299760
600.929980,0.294762
601.250000,0.299730
601.569980,0.296246
601.889920,0.293237
602.209820,0.289502
602.529680,0.293051
602.849500,0.290235
603.169280,0.291816
603.489020,0.289233
603.808720,0.283050
604.128380,0.281181
604.448000,0.282873
604.767580,0.283240
605.087120,0.279778
605.406620,0.278757
605.726080,0.284289
606.045500,0.276679
606.364880,0.273887
606.684220,0.276413
607.003520,0.272362
607.322780,0.266913
607.642000,0.269960
607.961180,0.272044
608.280320,0.267111
608.599420,0.265064
608.918480,0.263930
609.237500,0.262031
609.556480,0.266055
609.875420,0.264028
610.194320,0.260998
610.513180,0.260136
610.832000,0.259678
611.150780,0.262241
611.469520,0.260030
611.788220,0.264208
612.106880,0.259650
612.425500,0.256699
612.744080,0.259772
613.062620,0.252905
613.381120,0.252895
613.699580,0.252912
614.018000,0.257371
614.336380,0.251080
614.654720,0.248682
614.973020,0.248997
615.291280,0.245429
615.609500,0.245325
615.927680,0.242274
616.245820,0.244280
616.563920,0.247125
616.881980,0.244153
617.200000,0.240747
617.517980,0.243311
617.835920,0.236409
618.153820,0.234380
618.471680,0.235039
618.789500,0.239459
619.107280,0.236933
619.425020,0.241040
619.742720,0.236033
620.060380,0.234096
620.378000,0.235053
620.695580,0.239144
621.013120,0.230866
621.330620,0.231566
621.648080,0.227760
621.965500,0.227415
622.282880,0.230139
622.600220,0.225521
622.917520,0.227788
623.234780,0.229187
623.552000,0.225652
623.869180,0.227230
624.186320,0.220312
624.503420,0.222257
624.820480,0.225259
625.137500,0.221345
625.454480,0.221632
625.771420,0.223203
626.088320,0.218789
626.405180,0.219664
626.722000,0.217064
627.038780,0.214599
627.355520,0.219062
627.672220,0.221151
627.988880,0.215241
628.305500,0.219071
628.622080,0.219641
628.938620,0.218349
629.255120,0.212819
629.571580,0.211462
629.888000,0.215403
630.204380,0.212642
630.520720,0.213894
630.837020,0.212766
631.153280,0.211930
631.469500,0.215282
631.785680,0.212779
632.101820,0.211399
632.417920,0.206855
632.733980,0.212185
633.050000,0.214676
633.365980,0.208062
633.681920,0.210322
633.997820,0.212194
634.313680,0.207608
634.629500,0.209083
634.945280,0.209971
635.261020,0.208982
635.576720,0.212566
635.892380,0.209701
636.208000,0.206275
636.523580,0.209003
636.839120,0.205269
637.154620,0.208406
637.470080,0.206313
637.785500,0.210434
638.100880,0.204749
638.416220,0.205062
638.731520,0.206017
639.046780,0.204777
639.362000,0.203555
639.677180,0.203598
639.992320,0.202143
640.307420,0.207081
640.622480,0.205825
640.937500,0.202497
641.252480,0.200782
641.567420,0.206877
641.882320,0.201002
642.197180,0.205503
642.512000,0.201791
642.826780,0.206935
643.141520,0.200889
643.456220,0.199779
643.770880,0.200387
644.085500,0.205143
644.400080,0.201124
644.714620,0.202899
645.029120,0.203520
645.343580,0.202962
645.658000,0.205662
645.972380,0.207728
646.286720,0.198964
646.601020,0.203432
646.915280,0.204552
647.229500,0.201648
647.543680,0.201049
647.857820,0.203688
648.171920,0.203201
648.485980,0.203617
648.800000,0.203637
649.113980,0.202051
649.427920,0.202774
649.741820,0.202803
650.055680,0.202962
650.369500,0.205998
650.683280,0.198946
650.997020,0.201595
651.310720,0.200881
651.624380,0.199176
651.938000,0.207756
652.251580,0.204008
652.565120,0.203466
652.878620,0.204673
653.192080,0.203371
653.505500,0.205049
653.818880,0.201592
654.132220,0.204215
654.445520,0.207884
654.758780,0.201700
655.072000,0.205444
655.385180,0.202568
655.698320,0.200343
656.011420,0.206649
656.324480,0.203731
656.637500,0.204519
656.950480,0.209924
657.263420,0.205735
657.576320,0.204862
657.889180,0.207903
658.202000,0.204710
658.514780,0.204823
658.827520,0.209184
659.140220,0.202877
659.452880,0.208094
659.765500,0.202890
660.078080,0.205537
660.390620,0.205316
660.703120,0.211427
661.015580,0.205521
661.328000,0.217254
661.640380,0.210624
661.952720,0.211772
662.265020,0.212980
662.577280,0.208969
662.889500,0.210344
663.201680,0.218571
663.513820,0.208749
663.825920,0.215178
664.137980,0.214609
664.450000,0.212276
664.761980,0.214403
665.073920,0.211620
665.385820,0.215969
665.697680,0.213223
666.009500,0.215165
666.321280,0.218025
666.633020,0.216423
666.944720,0.218739
667.256380,0.216016
667.568000,0.214334
667.879580,0.223469
668.191120,0.221154
668.502620,0.217391
668.814080,0.217895
669.125500,0.217927
669.436880,0.222337
669.748220,0.222222
670.059520,0.221639
670.370780,0.227557
670.682000,0.223363
670.993180,0.227625
671.304320,0.220113
671.615420,0.219105
671.926480,0.221434
672.237500,0.224366
672.548480,0.224982
672.859420,0.233024
673.170320,0.227421
673.481180,0.226285
673.792000,0.225388
674.102780,0.222980
674.413520,0.224572
674.724220,0.231216
675.034880,0.239091
675.345500,0.234865
675.656080,0.235209
675.966620,0.235722
676.277120,0.232149
676.587580,0.234168
676.898000,0.236282
677.208380,0.240665
677.518720,0.235594
677.829020,0.237620
678.139280,0.237954
678.449500,0.237653
678.759680,0.241289
679.069820,0.237175
679.379920,0.240287
679.689980,0.242109
680.000000,0.237009
680.309980,0.248701
680.619920,0.245362
680.929820,0.247480
681.239680,0.244461
681.549500,0.245556
681.859280,0.246079
682.169020,0.250280
682.478720,0.255423
682.788380,0.249908
683.098000,0.254675
683.407580,0.252533
683.717120,0.257883
684.026620,0.254142
684.336080,0.253505
684.645500,0.254396
684.954880,0.256517
685.264220,0.257456
685.573520,0.260754
685.882780,0.263905
686.192000,0.254703
686.501180,0.259932
686.810320,0.260569
687.119420,0.260737
687.428480,0.264337
687.737500,0.271297
688.046480,0.265337
688.355420,0.261411
688.664320,0.263963
688.973180,0.268377
689.282000,0.261574
689.590780,0.270706
689.899520,0.268515
690.208220,0.276758
690.516880,0.268805
690.825500,0.271321
691.134080,0.270691
691.442620,0.271341
691.751120,0.273038
692.059580,0.276271
692.368000,0.273760
692.676380,0.281679
692.984720,0.279771
693.293020,0.280395
693.601280,0.280809
693.909500,0.286795
694.217680,0.287129
694.525820,0.287890
694.833920,0.288440
695.141980,0.286155
695.450000,0.290076
695.757980,0.281895
696.065920,0.287379
696.373820,0.291763
696.681680,0.293057
696.989500,0.297954
697.297280,0.293660
697.605020,0.301190
697.912720,0.298616
698.220380,0.297914
698.528000,0.301424
698.835580,0.300672
699.143120,0.298909
699.450620,0.310660
699.758080,0.297647
700.065500,0.306065
700.372880,0.311200
700.680220,0.306741
700.987520,0.305556
701.294780,0.313058
701.602000,0.305071
701.909180,0.319157
702.216320,0.304263
702.523420,0.317285
702.830480,0.319604
703.137500,0.310600
703.444480,0.319921
703.751420,0.317160
704.058320,0.322913
704.365180,0.318612
704.672000,0.322772
704.978780,0.323059
705.285520,0.316510
705.592220,0.322353
705.898880,0.327029
706.205500,0.331377
706.512080,0.323460
706.818620,0.328560
707.125120,0.334615
707.431580,0.333724
707.738000,0.334375
708.044380,0.331532
708.350720,0.332442
708.657020,0.342321
708.963280,0.342780
709.269500,0.331507
709.575680,0.340275
709.881820,0.343947
710.187920,0.347082
710.493980,0.342514
710.800000,0.342868
711.105980,0.344503
711.411920,0.349231
711.717820,0.348148
712.023680,0.352895
712.329500,0.354101
712.635280,0.353488
712.941020,0.356011
713.246720,0.357312
713.552380,0.360283
713.858000,0.357509
714.163580,0.359511
714.469120,0.357562
714.774620,0.365969
715.080080,0.362780
715.385500,0.372902
715.690880,0.369625
715.996220,0.361331
716.301520,0.369565
716.606780,0.375393
716.912000,0.364701
717.217180,0.369513
717.522320,0.363419
717.827420,0.373068
718.132480,0.376154
718.437500,0.375051
718.742480,0.377016
719.047420,0.375809
719.352320,0.383562
719.657180,0.387163
719.962000,0.380066
720.266780,0.380972
720.571520,0.381939
720.876220,0.384615
721.180880,0.391722
721.485500,0.396155
721.790080,0.377495
722.094620,0.401372
722.399120,0.394227
722.703580,0.384912
723.008000,0.400604
723.312380,0.390013
723.616720,0.396090
723.921020,0.389346
724.225280,0.389180
724.529500,0.397986
724.833680,0.408363
725.137820,0.403965
725.441920,0.406152
725.745980,0.403579
726.050000,0.407758
726.353980,0.403335
726.657920,0.408457
726.961820,0.407763
727.265680,0.423024
727.569500,0.406764
727.873280,0.404157
728.177020,0.419162
728.480720,0.425463
728.784380,0.427900
729.088000,0.414037
729.391580,0.409758
729.695120,0.427063
729.998620,0.423040
730.302080,0.427198
730.605500,0.428433
730.908880,0.426752
731.212220,0.424094
731.515520,0.428571
731.818780,0.426699
732.122000,0.435531
732.425180,0.432725
732.728320,0.424888
733.031420,0.434586
733.334480,0.433163
733.637500,0.428427
733.940480,0.437052
734.243420,0.440877
734.546320,0.446058
734.849180,0.433884
735.152000,0.445021
735.454780,0.441116
735.757520,0.447313
736.060220,0.441811
736.362880,0.445903
736.665500,0.442820
736.968080,0.454057
737.270620,0.448013
737.573120,0.453603
737.875580,0.455745
738.178000,0.449646
738.480380,0.456757
738.782720,0.458015
739.085020,0.453744
739.387280,0.464523
739.689500,0.464326
739.991680,0.458170
740.293820,0.464898
740.595920,0.462994
740.897980,0.474873
741.200000,0.466068
741.501980,0.476218
741.803920,0.469595
742.105820,0.464749
742.407680,0.477577
742.709500,0.463068
743.011280,0.480070
743.313020,0.472464
743.614720,0.481138
743.916380,0.479651
744.218000,0.477924
744.519580,0.484903
744.821120,0.492216
745.122620,0.481726
745.424080,0.483774
745.725500,0.487628
746.026880,0.501847
746.328220,0.503699
746.629520,0.488260
746.930780,0.481005
747.232000,0.487431
747.533180,0.501525
747.834320,0.499696
748.135420,0.502797
748.436480,0.498440
748.737500,0.496603
749.038480,0.492975
749.339420,0.511512
749.640320,0.500943
749.941180,0.504060
750.242000,0.511307
750.542780,0.508065
750.843520,0.505445
751.144220,0.517308
751.444880,0.505390
751.745500,0.509740
752.046080,0.515074
752.346620,0.505799
752.647120,0.504246
752.947580,0.518758
753.248000,0.517086
753.548380,0.525049
753.848720,0.522215
754.149020,0.504836
754.449280,0.524622
754.749500,0.511612
755.049680,0.530667
755.349820,0.529019
755.649920,0.526768
755.949980,0.539482
756.250000,0.530572
756.549980,0.518152
756.849920,0.529572
757.149820,0.516301
757.449680,0.530693
757.749500,0.541241
758.049280,0.535154
758.349020,0.545202
758.648720,0.545894
758.948380,0.542955
759.248000,0.543127
759.547580,0.537996
759.847120,0.533425
760.146620,0.545332
760.446080,0.555780
760.745500,0.552448
761.044880,0.561790
761.344220,0.550249
761.643520,0.559322
761.942780,0.558432
762.242000,0.550212
762.541180,0.552113
762.840320,0.545646
763.139420,0.543601
763.438480,0.557075
763.737500,0.563749
764.036480,0.558351
764.335420,0.557516
764.634320,0.558559
764.933180,0.563014
765.232000,0.569049
765.530780,0.569825
765.829520,0.575524
766.128220,0.569937
766.426880,0.570718
766.725500,0.562029
767.024080,0.567901
767.322620,0.571923
767.621120,0.558943
767.919580,0.582935
768.218000,0.584815
768.516380,0.578769
768.814720,0.570645
769.113020,0.588560
769.411280,0.582182
769.709500,0.589310
770.007680,0.582822
770.305820,0.586883
770.603920,0.573450
770.901980,0.586749
771.200000,0.588995
771.497980,0.577748
771.795920,0.591973
772.093820,0.585561
772.391680,0.592617
772.689500,0.588514
772.987280,0.601347
773.285020,0.598086
773.582720,0.592568
773.880380,0.608785
774.178000,0.604635
774.475580,0.601474
774.773120,0.597055
775.070620,0.613928
775.368080,0.603206
775.665500,0.610477
775.962880,0.617078
776.260220,0.611709
776.557520,0.618412
776.854780,0.609872
777.152000,0.612069
777.449180,0.623061
777.746320,0.606183
778.043420,0.618008
778.340480,0.618403
778.637500,0.611900
778.934480,0.618023
779.231420,0.614654
779.528320,0.611890
779.825180,0.615283
780.122000,0.621514
780.418780,0.632011
780.715520,0.623742
781.012220,0.638356
781.308880,0.621366
781.605500,0.630137
781.902080,0.627652
782.198620,0.632262
782.495120,0.635802
782.791580,0.629298
783.088000,0.638371
783.384380,0.640303
783.680720,0.638167
783.977020,0.636614
784.273280,0.643357
784.569500,0.647100
784.865680,0.649513
785.161820,0.644444
785.457920,0.646570
785.753980,0.647592
786.050000,0.657459
786.345980,0.639583
786.641920,0.648161
786.937820,0.656695
787.233680,0.645094
787.529500,0.646325
787.825280,0.661473
788.121020,0.662890
788.416720,0.644319
788.712380,0.655148
789.008000,0.661473
789.303580,0.656537
789.599120,0.661091
789.894620,0.659928
790.190080,0.662074
790.485500,0.653708
790.780880,0.650896
791.076220,0.655844
791.371520,0.671750
791.666780,0.677818
791.962000,0.675239
792.257180,0.674963
792.552320,0.661349
792.847420,0.668850
793.142480,0.668864
793.437500,0.652677
793.732480,0.670812
794.027420,0.677300
794.322320,0.676361
794.617180,0.678306
794.912000,0.677563
795.206780,0.690529
795.501520,0.694297
795.796220,0.666667
796.090880,0.686511
796.385500,0.670915
796.680080,0.676141
796.974620,0.687126
797.269120,0.681302
797.563580,0.690076
797.858000,0.689446
798.152380,0.687548
798.446720,0.683077
798.741020,0.685670
799.035280,0.693323
799.329500,0.678984
799.623680,0.703101
