399.985280,0.324324
400.329500,0.270270
400.673680,0.367089
401.017820,0.397059
401.361920,0.409091
401.705980,0.365854
402.050000,0.285714
402.393980,0.317647
402.737920,0.382022
403.081820,0.329897
403.425680,0.430233
403.769500,0.281250
404.113280,0.379310
404.457020,0.404494
404.800720,0.347826
405.144380,0.373737
405.488000,0.376344
405.831580,0.329897
406.175120,0.404255
406.518620,0.350000
406.862080,0.402062
407.205500,0.343750
407.548880,0.326531
407.892220,0.382353
408.235520,0.372340
408.578780,0.380952
408.922000,0.375000
409.265180,0.343434
409.608320,0.393939
409.951420,0.360825
410.294480,0.372549
410.637500,0.391304
410.980480,0.323529
411.323420,0.367347
411.666320,0.385321
412.009180,0.409091
412.352000,0.316832
412.694780,0.321101
413.037520,0.348624
413.380220,0.333333
413.722880,0.339286
414.065500,0.351351
414.408080,0.327434
414.750620,0.327434
415.093120,0.322314
415.435580,0.361345
415.778000,0.363636
416.120380,0.378151
416.462720,0.341270
416.805020,0.375940
417.147280,0.388060
417.489500,0.407143
417.831680,0.349315
418.173820,0.333333
418.515920,0.370629
418.857980,0.367089
419.200000,0.339744
419.541980,0.343195
419.883920,0.303371
420.225820,0.341040
420.567680,0.346369
420.909500,0.327869
421.251280,0.364583
421.593020,0.301020
421.934720,0.338384
422.276380,0.312821
422.618000,0.382353
422.959580,0.313725
423.301120,0.305936
423.642620,0.278261
423.984080,0.320930
424.325500,0.300448
424.666880,0.323276
425.008220,0.327731
425.349520,0.305085
425.690780,0.292308
426.032000,0.278431
426.373180,0.269710
426.714320,0.296875
427.055420,0.297297
427.396480,0.303371
427.737500,0.249012
428.078480,0.284585
428.419420,0.285141
428.760320,0.272031
429.101180,0.299213
429.442000,0.275862
429.782780,0.296154
430.123520,0.286275
430.464220,0.258303
430.804880,0.260536
431.145500,0.229091
431.486080,0.265918
431.826620,0.267442
432.167120,0.250000
432.507580,0.286232
432.848000,0.244604
433.188380,0.227437
433.528720,0.252830
433.869020,0.232143
434.209280,0.217544
434.549500,0.229965
434.889680,0.262626
435.229820,0.235495
435.569920,0.217993
435.909980,0.233010
436.250000,0.247458
436.589980,0.201238
436.929920,0.234921
437.269820,0.219436
437.609680,0.233728
437.949500,0.219880
438.289280,0.203966
438.629020,0.244186
438.968720,0.223837
439.308380,0.211382
439.648000,0.221918
439.987580,0.216931
440.327120,0.216000
440.666620,0.192208
441.006080,0.212276
441.345500,0.206388
441.684880,0.193780
442.024220,0.210918
442.363520,0.202381
442.702780,0.181818
443.042000,0.193833
443.381180,0.215517
443.720320,0.209503
444.059420,0.191176
444.398480,0.188285
444.737500,0.209016
445.076480,0.198413
445.415420,0.181637
445.754320,0.187110
446.093180,0.187156
446.432000,0.184211
446.770780,0.189753
447.109520,0.200368
447.448220,0.180680
447.786880,0.187835
448.125500,0.194828
448.464080,0.180357
448.802620,0.180851
449.141120,0.176471
449.479580,0.187063
449.818000,0.182444
450.156380,0.190635
450.494720,0.186777
450.833020,0.185315
451.171280,0.164384
451.509500,0.175958
451.847680,0.190556
452.185820,0.184165
452.523920,0.202749
452.861980,0.182125
453.200000,0.179402
453.537980,0.188235
453.875920,0.188235
454.213820,0.188356
454.551680,0.175497
454.889500,0.177066
455.227280,0.170819
455.565020,0.187605
455.902720,0.186356
456.240380,0.174709
456.578000,0.189895
456.915580,0.196891
457.253120,0.192434
457.590620,0.197044
457.928080,0.196970
458.265500,0.195946
458.602880,0.189935
458.940220,0.172589
459.277520,0.190400
459.614780,0.207856
459.952000,0.183230
460.289180,0.199367
460.626320,0.188976
460.963420,0.193861
461.300480,0.209480
461.637500,0.198767
461.974480,0.206422
462.311420,0.210134
462.648320,0.194729
462.985180,0.203730
463.322000,0.208333
463.658780,0.193370
463.995520,0.200825
464.332220,0.203601
464.668880,0.202957
465.005500,0.214477
465.342080,0.206146
465.678620,0.209102
466.015120,0.206986
466.351580,0.219975
466.688000,0.207065
467.024380,0.219927
467.360720,0.220455
467.697020,0.224374
468.033280,0.222222
468.369500,0.222958
468.705680,0.229989
469.041820,0.227083
469.377920,0.219089
469.713980,0.225541
470.050000,0.232850
470.385980,0.228963
470.721920,0.230167
471.057820,0.236842
471.393680,0.238541
471.729500,0.234476
472.065280,0.245975
472.401020,0.230496
472.736720,0.239965
473.072380,0.250449
473.408000,0.247171
473.743580,0.244810
474.079120,0.248923
474.414620,0.244275
474.750080,0.245728
475.085500,0.254934
475.420880,0.246461
475.756220,0.258381
476.091520,0.261722
476.426780,0.262136
476.762000,0.259855
477.097180,0.266400
477.432320,0.268982
477.767420,0.276961
478.102480,0.279528
478.437500,0.265189
478.772480,0.270292
479.107420,0.274207
479.442320,0.278977
479.777180,0.280827
480.112000,0.268875
480.446780,0.275136
480.781520,0.286634
481.116220,0.289410
481.450880,0.286495
481.785500,0.300633
482.120080,0.293887
482.454620,0.291375
482.789120,0.303344
483.123580,0.288941
483.458000,0.291139
483.792380,0.304313
484.126720,0.289575
484.461020,0.298205
484.795280,0.306091
485.129500,0.310210
485.463680,0.310853
485.797820,0.316485
486.131920,0.317521
486.465980,0.322008
486.800000,0.317557
487.133980,0.310423
487.467920,0.322112
487.801820,0.324943
488.135680,0.329037
488.469500,0.320726
488.803280,0.335067
489.137020,0.325275
489.470720,0.329377
489.804380,0.345212
490.138000,0.348665
490.471580,0.343405
490.805120,0.342387
491.138620,0.339019
491.472080,0.341343
491.805500,0.343794
492.138880,0.351633
492.472220,0.350173
492.805520,0.348464
493.138780,0.353549
493.472000,0.353846
493.805180,0.359482
494.138320,0.360907
494.471420,0.365234
494.804480,0.355110
495.137500,0.362644
495.470480,0.363289
495.803420,0.373426
496.136320,0.370301
496.469180,0.364641
496.802000,0.363692
497.134780,0.382050
497.467520,0.377370
497.800220,0.380896
498.132880,0.387419
498.465500,0.382387
498.798080,0.377283
499.130620,0.385738
499.463120,0.381246
499.795580,0.386689
500.128000,0.382016
500.460380,0.382670
500.792720,0.390774
501.125020,0.390436
501.457280,0.401044
501.789500,0.396694
502.121680,0.405910
502.453820,0.397246
502.785920,0.393697
503.117980,0.400883
503.450000,0.412356
503.781980,0.404086
504.113920,0.402086
504.445820,0.401070
504.777680,0.402824
505.109500,0.418750
505.441280,0.408222
505.773020,0.411930
506.104720,0.413095
506.436380,0.416469
506.768000,0.421422
507.099580,0.416018
507.431120,0.411710
507.762620,0.422932
508.094080,0.414312
508.425500,0.425303
508.756880,0.411980
509.088220,0.418123
509.419520,0.415736
509.750780,0.424086
510.082000,0.421175
510.413180,0.427913
510.744320,0.427980
511.075420,0.426214
511.406480,0.420780
511.737500,0.418056
512.068480,0.430451
512.399420,0.427700
512.730320,0.428637
513.061180,0.434824
513.392000,0.437766
513.722780,0.442363
514.053520,0.442741
514.384220,0.430542
514.714880,0.434658
515.045500,0.433429
515.376080,0.437288
515.706620,0.442767
516.037120,0.441667
516.367580,0.446525
516.698000,0.428922
517.028380,0.438928
517.358720,0.440000
517.689020,0.439169
518.019280,0.438535
518.349500,0.440953
518.679680,0.448763
519.009820,0.445344
519.339920,0.443888
519.669980,0.442993
520.000000,0.442180
520.329980,0.448937
520.659920,0.446319
520.989820,0.436017
521.319680,0.441358
521.649500,0.443702
521.979280,0.445198
522.309020,0.443465
522.638720,0.433692
522.968380,0.444157
523.298000,0.451983
523.627580,0.437144
523.957120,0.444675
524.286620,0.449713
524.616080,0.443123
524.945500,0.439276
525.274880,0.446896
525.604220,0.450311
525.933520,0.448113
526.262780,0.443994
526.592000,0.444952
526.921180,0.442357
527.250320,0.440386
527.579420,0.445680
527.908480,0.446578
528.237500,0.449355
528.566480,0.449601
528.895420,0.453918
529.224320,0.452204
529.553180,0.448193
529.882000,0.454988
530.210780,0.443050
530.539520,0.442953
530.868220,0.449019
531.196880,0.445294
531.525500,0.459564
531.854080,0.431520
532.182620,0.443251
532.511120,0.444084
532.839580,0.454174
533.168000,0.441659
533.496380,0.450685
533.824720,0.443248
534.153020,0.445831
534.481280,0.440969
534.809500,0.454705
535.137680,0.442274
535.465820,0.441151
535.793920,0.434010
536.121980,0.445657
536.450000,0.441438
536.777980,0.445748
537.105920,0.445828
537.433820,0.439034
537.761680,0.443673
538.089500,0.438689
538.417280,0.432153
538.745020,0.447702
539.072720,0.439672
539.400380,0.440171
539.728000,0.438241
540.055580,0.428464
540.383120,0.438570
540.710620,0.434524
541.038080,0.431206
541.365500,0.434191
541.692880,0.430596
542.020220,0.433249
542.347520,0.431084
542.674780,0.430487
543.002000,0.422673
543.329180,0.430025
543.656320,0.438467
543.983420,0.433162
544.310480,0.422358
544.637500,0.427840
544.964480,0.425639
545.291420,0.421402
545.618320,0.422975
545.945180,0.421885
546.272000,0.415138
546.598780,0.414290
546.925520,0.415101
547.252220,0.418620
547.578880,0.419355
547.905500,0.418301
548.232080,0.419428
548.558620,0.415555
548.885120,0.412496
549.211580,0.406300
549.538000,0.412451
549.864380,0.403215
550.190720,0.404262
550.517020,0.399609
550.843280,0.405863
551.169500,0.399491
551.495680,0.404074
551.821820,0.399086
552.147920,0.403058
552.473980,0.404017
552.800000,0.400916
553.125980,0.397184
553.451920,0.396815
553.777820,0.395403
554.103680,0.395686
554.429500,0.399063
554.755280,0.391522
555.081020,0.388369
555.406720,0.388080
555.732380,0.385293
556.058000,0.386965
556.383580,0.388908
556.709120,0.384562
557.034620,0.387875
557.360080,0.389983
557.685500,0.383472
558.010880,0.377470
558.336220,0.373638
558.661520,0.380362
558.986780,0.374203
559.312000,0.376781
559.637180,0.379892
559.962320,0.379850
560.287420,0.369887
560.612480,0.369932
560.937500,0.376285
561.262480,0.369501
561.587420,0.368154
561.912320,0.369197
562.237180,0.363064
562.562000,0.365507
562.886780,0.364548
563.211520,0.360283
563.536220,0.359184
563.860880,0.359487
564.185500,0.365103
564.510080,0.360798
564.834620,0.359881
565.159120,0.359023
565.483580,0.351957
565.808000,0.351873
566.132380,0.350242
566.456720,0.350340
566.781020,0.349212
567.105280,0.343667
567.429500,0.353566
567.753680,0.349060
568.077820,0.342868
568.401920,0.344538
568.725980,0.344592
569.050000,0.339163
569.373980,0.342596
569.697920,0.332954
570.021820,0.334457
570.345680,0.345197
570.669500,0.335368
570.993280,0.332964
571.317020,0.331019
571.640720,0.337162
571.964380,0.331849
572.288000,0.330861
572.611580,0.329465
572.935120,0.331837
573.258620,0.331339
573.582080,0.326379
573.905500,0.328742
574.228880,0.328508
574.552220,0.328325
574.875520,0.326880
575.198780,0.323816
575.522000,0.317449
575.845180,0.320201
576.168320,0.314050
576.491420,0.331032
576.814480,0.325136
577.137500,0.322511
577.460480,0.318231
577.783420,0.323687
578.106320,0.322293
578.429180,0.318841
578.752000,0.319555
579.074780,0.317937
579.397520,0.315042
579.720220,0.314672
580.042880,0.313181
580.365500,0.308405
580.688080,0.320217
581.010620,0.312184
581.333120,0.309953
581.655580,0.316683
581.978000,0.306285
582.300380,0.302499
582.622720,0.308833
582.945020,0.310143
583.267280,0.308043
583.589500,0.303692
583.911680,0.311527
584.233820,0.305005
584.555920,0.306650
584.877980,0.303392
585.200000,0.301719
585.521980,0.305839
585.843920,0.303234
586.165820,0.306825
586.487680,0.302738
586.809500,0.307231
587.131280,0.297841
587.453020,0.306845
587.774720,0.307215
588.096380,0.302217
588.418000,0.302897
588.739580,0.300949
589.061120,0.298447
589.382620,0.299713
589.704080,0.297896
590.025500,0.305365
590.346880,0.301293
590.668220,0.300756
590.989520,0.298946
591.310780,0.299641
591.632000,0.301913
591.953180,0.299197
592.274320,0.300300
592.595420,0.300108
592.916480,0.301005
593.237500,0.299650
593.558480,0.301049
593.879420,0.301861
594.200320,0.302170
594.521180,0.296414
594.842000,0.299033
595.162780,0.299412
595.483520,0.300186
595.804220,0.298604
596.124880,0.293898
596.445500,0.300760
596.766080,0.304921
597.086620,0.298301
597.407120,0.296209
597.727580,0.301512
598.048000,0.297805
598.368380,0.298264
598.688720,0.298558
599.009020,0.300955
599.329280,0.296700
599.649500,0.299260
599.969680,0.298611
600.289820,0.296207
600.609920,0.296019
600.929980,0.301443
601.250000,0.297297
601.569980,0.298677
601.889920,0.299385
602.209820,0.296266
602.529680,0.306509
602.849500,0.298963
603.169280,0.302563
603.489020,0.304733
603.808720,0.302798
604.128380,0.303256
604.448000,0.299448
604.767580,0.304190
605.087120,0.299446
605.406620,0.311503
605.726080,0.310522
606.045500,0.307328
606.364880,0.305926
606.684220,0.302684
607.003520,0.302179
607.322780,0.306424
607.642000,0.304423
607.961180,0.306736
608.280320,0.305974
608.599420,0.304751
608.918480,0.307625
609.237500,0.309859
609.556480,0.306008
609.875420,0.307147
610.194320,0.311780
610.513180,0.309263
610.832000,0.308815
611.150780,0.315410
611.469520,0.317345
611.788220,0.321644
612.106880,0.316345
612.425500,0.312728
612.744080,0.311173
613.062620,0.317737
613.381120,0.316880
613.699580,0.316370
614.018000,0.322789
614.336380,0.323874
614.654720,0.318140
614.973020,0.312558
615.291280,0.329408
615.609500,0.332171
615.927680,0.317676
616.245820,0.326221
616.563920,0.326080
616.881980,0.328344
617.200000,0.322240
617.517980,0.328874
617.835920,0.332091
618.153820,0.324215
618.471680,0.327442
618.789500,0.336375
619.107280,0.335837
619.425020,0.336188
619.742720,0.334275
620.060380,0.331244
620.378000,0.334802
620.695580,0.338442
621.013120,0.339843
621.330620,0.337622
621.648080,0.335962
621.965500,0.346299
622.282880,0.345839
622.600220,0.342388
622.917520,0.345621
623.234780,0.351977
623.552000,0.351369
623.869180,0.350772
624.186320,0.349889
624.503420,0.352351
624.820480,0.352498
625.137500,0.359015
625.454480,0.356049
625.771420,0.354666
626.088320,0.358764
626.405180,0.355943
626.722000,0.363864
627.038780,0.358083
627.355520,0.365625
627.672220,0.367963
627.988880,0.365163
628.305500,0.364911
628.622080,0.372986
628.938620,0.371254
629.255120,0.370566
629.571580,0.377567
629.888000,0.373121
630.204380,0.376189
630.520720,0.375076
630.837020,0.374653
631.153280,0.382794
631.469500,0.384779
631.785680,0.385775
632.101820,0.385706
632.417920,0.386885
632.733980,0.390156
633.050000,0.397210
633.365980,0.389745
633.681920,0.394391
633.997820,0.397788
634.313680,0.392804
634.629500,0.398702
634.945280,0.398827
635.261020,0.405635
635.576720,0.404874
635.892380,0.400813
636.208000,0.403254
636.523580,0.408068
636.839120,0.402142
637.154620,0.410145
637.470080,0.410904
637.785500,0.420281
638.100880,0.415291
638.416220,0.423066
638.731520,0.414900
639.046780,0.419749
639.362000,0.417431
639.677180,0.416905
639.992320,0.423175
640.307420,0.425681
640.622480,0.427331
640.937500,0.420804
641.252480,0.435074
641.567420,0.439045
641.882320,0.440423
642.197180,0.439641
642.512000,0.437448
642.826780,0.442996
643.141520,0.438733
643.456220,0.450194
643.770880,0.445550
644.085500,0.450531
644.400080,0.449719
644.714620,0.454013
645.029120,0.454620
645.343580,0.453374
645.658000,0.454621
645.972380,0.463415
646.286720,0.461706
646.601020,0.463604
646.915280,0.463943
647.229500,0.466758
647.543680,0.468379
647.857820,0.462428
648.171920,0.470429
648.485980,0.472732
648.800000,0.469551
649.113980,0.478104
649.427920,0.479057
649.741820,0.471009
650.055680,0.476961
650.369500,0.489630
650.683280,0.480577
650.997020,0.483223
651.310720,0.477160
651.624380,0.480220
651.938000,0.496953
652.251580,0.488728
652.565120,0.488541
652.878620,0.495495
653.192080,0.492416
653.505500,0.492567
653.818880,0.502985
654.132220,0.507833
654.445520,0.502836
654.758780,0.496317
655.072000,0.500573
655.385180,0.501569
655.698320,0.513004
656.011420,0.504729
656.324480,0.513261
656.637500,0.512457
656.950480,0.520846
657.263420,0.522909
657.576320,0.522384
657.889180,0.518726
658.202000,0.524758
658.514780,0.527538
658.827520,0.526711
659.140220,0.525022
659.452880,0.533676
659.765500,0.533414
660.078080,0.526633
660.390620,0.532844
660.703120,0.544149
661.015580,0.544479
661.328000,0.544395
661.640380,0.550482
661.952720,0.543133
662.265020,0.540958
662.577280,0.544529
662.889500,0.533270
663.201680,0.550096
663.513820,0.548086
663.825920,0.552674
664.137980,0.559793
664.450000,0.546036
664.761980,0.551555
665.073920,0.551444
665.385820,0.553338
665.697680,0.564959
666.009500,0.567343
666.321280,0.564944
666.633020,0.566157
666.944720,0.573980
667.256380,0.575707
667.568000,0.574389
667.879580,0.576531
668.191120,0.578297
668.502620,0.568299
668.814080,0.583158
669.125500,0.579884
669.436880,0.586100
669.748220,0.586708
670.059520,0.584034
670.370780,0.586291
670.682000,0.589027
670.993180,0.596195
671.304320,0.586850
671.615420,0.587713
671.926480,0.594393
672.237500,0.586638
672.548480,0.596522
672.859420,0.606505
673.170320,0.598839
673.481180,0.606807
673.792000,0.606203
674.102780,0.599282
674.413520,0.610281
674.724220,0.613067
675.034880,0.607261
675.345500,0.607950
675.656080,0.604356
675.966620,0.611495
676.277120,0.618821
676.587580,0.624448
676.898000,0.622620
677.208380,0.612569
677.518720,0.623632
677.829020,0.625277
678.139280,0.624907
678.449500,0.633494
678.759680,0.629449
679.069820,0.623420
679.379920,0.634100
679.689980,0.630895
680.000000,0.636262
680.309980,0.639941
680.619920,0.645967
680.929820,0.634192
681.239680,0.638109
681.549500,0.637037
681.859280,0.645631
682.169020,0.644536
682.478720,0.644727
682.788380,0.641196
683.098000,0.640613
683.407580,0.651782
683.717120,0.650150
684.026620,0.646084
684.336080,0.652899
684.645500,0.657688
684.954880,0.663393
685.264220,0.656474
685.573520,0.666159
685.882780,0.670886
686.192000,0.652746
686.501180,0.664775
686.810320,0.663336
687.119420,0.673128
687.428480,0.672997
687.737500,0.678434
688.046480,0.673313
688.355420,0.674840
688.664320,0.671767
688.973180,0.671133
689.282000,0.683256
689.590780,0.676764
689.899520,0.657425
690.208220,0.678899
690.516880,0.683849
690.825500,0.677736
691.134080,0.677297
691.442620,0.674924
691.751120,0.681456
692.059580,0.686664
692.368000,0.680803
692.676380,0.678626
692.984720,0.677863
693.293020,0.691489
693.601280,0.692102
693.909500,0.697692
694.217680,0.684692
694.525820,0.702970
694.833920,0.690958
695.141980,0.710760
695.450000,0.706870
695.757980,0.702827
696.065920,0.697864
696.373820,0.695150
696.681680,0.696203
696.989500,0.701274
697.297280,0.702839
697.605020,0.721429
697.912720,0.702921
698.220380,0.700905
698.528000,0.727848
698.835580,0.705650
699.143120,0.708106
699.450620,0.717582
699.758080,0.706275
700.065500,0.714286
700.372880,0.724800
700.680220,0.713203
700.987520,0.710317
701.294780,0.721817
701.602000,0.719889
701.909180,0.726948
702.216320,0.712554
702.523420,0.728493
702.830480,0.725149
703.137500,0.726422
703.444480,0.718343
703.751420,0.729389
704.058320,0.738821
704.365180,0.727918
704.672000,0.731485
704.978780,0.730784
705.285520,0.729656
705.592220,0.723529
705.898880,0.737589
706.205500,0.742567
706.512080,0.743286
706.818620,0.735681
707.125120,0.733462
707.431580,0.732708
707.738000,0.739453
708.044380,0.741799
708.350720,0.726022
708.657020,0.736225
708.963280,0.734860
709.269500,0.733855
709.575680,0.750098
709.881820,0.738994
710.187920,0.741245
710.493980,0.747091
710.800000,0.735317
711.105980,0.731928
711.411920,0.745763
711.717820,0.743470
712.023680,0.739215
712.329500,0.757492
712.635280,0.754264
712.941020,0.752996
713.246720,0.747826
713.552380,0.747253
713.858000,0.744580
714.163580,0.745067
714.469120,0.747948
714.774620,0.756810
715.080080,0.758932
715.385500,0.756994
715.690880,0.751085
715.996220,0.755547
716.301520,0.764427
716.606780,0.748428
716.912000,0.763328
717.217180,0.760974
717.522320,0.755070
717.827420,0.759561
718.132480,0.755520
718.437500,0.757032
718.742480,0.743145
719.047420,0.752427
719.352320,0.761727
719.657180,0.766149
719.962000,0.758892
720.266780,0.759867
720.571520,0.766777
720.876220,0.750409
721.180880,0.759197
721.485500,0.772252
721.790080,0.761359
722.094620,0.781732
722.399120,0.762171
722.703580,0.758251
723.008000,0.765847
723.312380,0.755919
723.616720,0.761581
723.921020,0.754872
724.225280,0.771815
724.529500,0.757881
724.833680,0.775801
725.137820,0.767401
725.441920,0.753009
725.745980,0.762416
726.050000,0.765900
726.353980,0.758900
726.657920,0.766082
726.961820,0.766667
727.265680,0.771613
727.569500,0.767367
727.873280,0.758891
728.177020,0.768310
728.480720,0.765278
728.784380,0.768906
729.088000,0.764013
729.391580,0.768830
729.695120,0.778311
729.998620,0.774379
730.302080,0.770303
730.605500,0.775352
730.908880,0.757962
731.212220,0.774731
731.515520,0.756216
731.818780,0.751456
732.122000,0.771654
732.425180,0.763923
732.728320,0.748141
733.031420,0.767419
733.334480,0.768367
733.637500,0.760585
733.940480,0.777380
734.243420,0.765036
734.546320,0.778008
734.849180,0.749483
735.152000,0.762967
735.454780,0.762913
735.757520,0.766070
736.060220,0.751448
736.362880,0.767332
736.665500,0.749347
736.968080,0.778076
737.270620,0.772455
737.573120,0.764192
737.875580,0.782298
738.178000,0.762657
738.480380,0.765946
738.782720,0.760632
739.085020,0.769273
739.387280,0.759978
739.689500,0.762741
739.991680,0.764739
740.293820,0.756772
740.595920,0.761269
740.897980,0.768492
741.200000,0.765564
741.501980,0.765043
741.803920,0.753378
742.105820,0.752397
742.407680,0.764706
742.709500,0.750000
743.011280,0.762016
743.313020,0.771594
743.614720,0.748694
743.916380,0.754651
744.218000,0.769093
744.519580,0.763889
744.821120,0.769461
745.122620,0.748352
745.424080,0.755409
745.725500,0.759203
746.026880,0.764778
746.328220,0.758323
746.629520,0.733293
746.930780,0.745711
747.232000,0.744942
747.533180,0.755339
747.834320,0.745587
748.135420,0.753263
748.436480,0.754211
748.737500,0.748610
749.038480,0.736714
749.339420,0.755445
749.640320,0.749843
749.941180,0.754528
750.242000,0.753769
750.542780,0.744417
750.843520,0.760410
751.144220,0.746795
751.444880,0.734306
751.745500,0.758442
752.046080,0.757537
752.346620,0.736469
752.647120,0.739386
752.947580,0.749030
753.248000,0.740812
753.548380,0.735849
753.848720,0.728268
754.149020,0.721470
754.449280,0.745896
754.749500,0.740544
755.049680,0.722667
755.349820,0.750500
755.649920,0.733642
755.949980,0.728600
756.250000,0.736358
756.549980,0.722772
756.849920,0.749150
757.149820,0.719228
757.449680,0.718812
757.749500,0.730061
758.049280,0.739249
758.349020,0.728095
758.648720,0.743271
758.948380,0.734021
759.248000,0.729784
759.547580,0.729657
759.847120,0.720193
760.146620,0.738836
760.446080,0.718414
760.745500,0.723776
761.044880,0.724432
761.344220,0.716322
761.643520,0.717514
761.942780,0.737579
762.242000,0.737624
762.541180,0.709859
762.840320,0.723315
763.139420,0.717300
763.438480,0.705400
763.737500,0.720193
764.036480,0.722572
764.335420,0.718419
764.634320,0.717256
764.933180,0.696575
765.232000,0.714087
765.530780,0.707368
765.829520,0.722378
766.128220,0.719555
766.426880,0.713575
766.725500,0.714188
767.024080,0.695473
767.322620,0.717842
767.621120,0.697154
767.919580,0.711945
768.218000,0.697674
768.516380,0.697093
768.814720,0.702332
769.113020,0.699518
769.411280,0.709945
769.709500,0.715156
770.007680,0.713020
770.305820,0.705206
770.603920,0.688679
770.901980,0.698770
771.200000,0.694293
771.497980,0.679625
771.795920,0.695652
772.093820,0.678476
772.391680,0.695452
772.689500,0.698649
772.987280,0.685522
773.285020,0.684894
773.582720,0.687838
773.880380,0.700069
774.178000,0.678255
774.475580,0.683858
774.773120,0.672021
775.070620,0.675456
775.368080,0.668671
775.665500,0.662189
775.962880,0.683789
776.260220,0.683042
776.557520,0.686458
776.854780,0.680865
777.152000,0.661141
777.449180,0.684423
777.746320,0.670027
778.043420,0.669850
778.340480,0.682003
778.637500,0.672752
778.934480,0.667787
779.231420,0.657395
779.528320,0.674683
779.825180,0.648221
780.122000,0.657371
780.418780,0.666211
780.715520,0.669349
781.012220,0.676027
781.308880,0.663962
781.605500,0.649315
781.902080,0.655031
782.198620,0.656186
782.495120,0.662551
782.791580,0.657497
783.088000,0.659765
783.384380,0.665062
783.680720,0.649111
783.977020,0.640055
784.273280,0.651748
784.569500,0.643606
784.865680,0.645341
785.161820,0.644444
785.457920,0.643798
785.753980,0.649686
786.050000,0.640193
786.345980,0.641667
786.641920,0.639139
786.937820,0.656695
787.233680,0.629088
787.529500,0.628988
787.825280,0.652975
788.121020,0.636686
788.416720,0.635145
788.712380,0.645275
789.008000,0.626771
789.303580,0.622615
789.599120,0.633455
789.894620,0.641155
790.190080,0.640319
790.485500,0.629230
790.780880,0.621505
791.076220,0.616162
791.371520,0.623820
791.666780,0.610909
791.962000,0.628215
792.257180,0.632504
792.552320,0.628716
792.847420,0.625182
793.142480,0.621245
793.437500,0.615774
793.732480,0.613021
794.027420,0.608309
794.322320,0.621178
794.617180,0.624814
794.912000,0.602526
795.206780,0.601044
795.501520,0.609125
795.796220,0.594074
796.090880,0.608892
796.385500,0.589205
796.680080,0.595363
796.974620,0.593563
797.269120,0.590462
797.563580,0.600000
797.858000,0.590737
798.152380,0.603248
798.446720,0.596154
798.741020,0.604006
799.035280,0.610248
799.329500,0.598922
799.623680,0.591473
