399.985280,0.175676
400.329500,0.256757
400.673680,0.215190
401.017820,0.264706
401.361920,0.166667
401.705980,0.182927
402.050000,0.168831
402.393980,0.247059
402.737920,0.280899
403.081820,0.175258
403.425680,0.220930
403.769500,0.187500
404.113280,0.183908
404.457020,0.191011
404.800720,0.163043
405.144380,0.232323
405.488000,0.139785
405.831580,0.195876
406.175120,0.159574
406.518620,0.210000
406.862080,0.206186
407.205500,0.239583
407.548880,0.153061
407.892220,0.225490
408.235520,0.180851
408.578780,0.228571
408.922000,0.192308
409.265180,0.222222
409.608320,0.191919
409.951420,0.247423
410.294480,0.205882
410.637500,0.206522
410.980480,0.186275
411.323420,0.183673
411.666320,0.192661
412.009180,0.181818
412.352000,0.178218
412.694780,0.220183
413.037520,0.192661
413.380220,0.225225
413.722880,0.178571
414.065500,0.171171
414.408080,0.203540
414.750620,0.176991
415.093120,0.198347
415.435580,0.218487
415.778000,0.212121
416.120380,0.168067
416.462720,0.150794
416.805020,0.240602
417.147280,0.164179
417.489500,0.207143
417.831680,0.164384
418.173820,0.205674
418.515920,0.223776
418.857980,0.221519
419.200000,0.179487
419.541980,0.207101
419.883920,0.207865
420.225820,0.202312
420.567680,0.184358
420.909500,0.191257
421.251280,0.208333
421.593020,0.193878
421.934720,0.181818
422.276380,0.174359
422.618000,0.196078
422.959580,0.235294
423.301120,0.205479
423.642620,0.182609
423.984080,0.195349
424.325500,0.197309
424.666880,0.198276
425.008220,0.197479
425.349520,0.207627
425.690780,0.173077
426.032000,0.184314
426.373180,0.207469
426.714320,0.195312
427.055420,0.200772
427.396480,0.205993
427.737500,0.181818
428.078480,0.181818
428.419420,0.180723
428.760320,0.176245
429.101180,0.196850
429.442000,0.203065
429.782780,0.184615
430.123520,0.215686
430.464220,0.177122
430.804880,0.241379
431.145500,0.189091
431.486080,0.194757
431.826620,0.213178
432.167120,0.194853
432.507580,0.195652
432.848000,0.215827
433.188380,0.198556
433.528720,0.200000
433.869020,0.182143
434.209280,0.178947
434.549500,0.188153
434.889680,0.218855
435.229820,0.204778
435.569920,0.179931
435.909980,0.200647
436.250000,0.193220
436.589980,0.173375
436.929920,0.203175
437.269820,0.188088
437.609680,0.215976
437.949500,0.198795
438.289280,0.203966
438.629020,0.223837
438.968720,0.191860
439.308380,0.195122
439.648000,0.205479
439.987580,0.190476
440.327120,0.192000
440.666620,0.200000
441.006080,0.191816
441.345500,0.191646
441.684880,0.188995
442.024220,0.193548
442.363520,0.195238
442.702780,0.190909
443.042000,0.176211
443.381180,0.209052
443.720320,0.215983
444.059420,0.182773
444.398480,0.182008
444.737500,0.190574
445.076480,0.202381
445.415420,0.183633
445.754320,0.185031
446.093180,0.181651
446.432000,0.191729
446.770780,0.193548
447.109520,0.202206
447.448220,0.191413
447.786880,0.198569
448.125500,0.201724
448.464080,0.196429
448.802620,0.200355
449.141120,0.195502
449.479580,0.187063
449.818000,0.194492
450.156380,0.195652
450.494720,0.191736
450.833020,0.204545
451.171280,0.174658
451.509500,0.186411
451.847680,0.202361
452.185820,0.201377
452.523920,0.211340
452.861980,0.188870
453.200000,0.192691
453.537980,0.198319
453.875920,0.194958
454.213820,0.186644
454.551680,0.205298
454.889500,0.192243
455.227280,0.183274
455.565020,0.202680
455.902720,0.199667
456.240380,0.176373
456.578000,0.203833
456.915580,0.202073
457.253120,0.203947
457.590620,0.197044
457.928080,0.191919
458.265500,0.211149
458.602880,0.207792
458.940220,0.204738
459.277520,0.188800
459.614780,0.202946
459.952000,0.195652
460.289180,0.200949
460.626320,0.209449
460.963420,0.195477
461.300480,0.203364
461.637500,0.208012
461.974480,0.197248
462.311420,0.198212
462.648320,0.202050
462.985180,0.195122
463.322000,0.206845
463.658780,0.196133
463.995520,0.191197
464.332220,0.191136
464.668880,0.197581
465.005500,0.201072
465.342080,0.201024
465.678620,0.201722
466.015120,0.206986
466.351580,0.206068
466.688000,0.208283
467.024380,0.200486
467.360720,0.193182
467.697020,0.205011
468.033280,0.204444
468.369500,0.206402
468.705680,0.201804
469.041820,0.207292
469.377920,0.198482
469.713980,0.208033
470.050000,0.205797
470.385980,0.196673
470.721920,0.192948
471.057820,0.209552
471.393680,0.202058
471.729500,0.195551
472.065280,0.200358
472.401020,0.198582
472.736720,0.203316
473.072380,0.195691
473.408000,0.196693
473.743580,0.206747
474.079120,0.205857
474.414620,0.201866
474.750080,0.199349
475.085500,0.202303
475.420880,0.193172
475.756220,0.201962
476.091520,0.197783
476.426780,0.193366
476.762000,0.197104
477.097180,0.207200
477.432320,0.199515
477.767420,0.199346
478.102480,0.195276
478.437500,0.197865
478.772480,0.198582
479.107420,0.205858
479.442320,0.202238
479.777180,0.202864
480.112000,0.192604
480.446780,0.194856
480.781520,0.203704
481.116220,0.198868
481.450880,0.206089
481.785500,0.209652
482.120080,0.203762
482.454620,0.204351
482.789120,0.203025
483.123580,0.206386
483.458000,0.203323
483.792380,0.212460
484.126720,0.206950
484.461020,0.206870
484.795280,0.205860
485.129500,0.204988
485.463680,0.208527
485.797820,0.216952
486.131920,0.205815
486.465980,0.208494
486.800000,0.203817
487.133980,0.205438
487.467920,0.206580
487.801820,0.214340
488.135680,0.206975
488.469500,0.212557
488.803280,0.214710
489.137020,0.202198
489.470720,0.209941
489.804380,0.209354
490.138000,0.216617
490.471580,0.224024
490.805120,0.215868
491.138620,0.207534
491.472080,0.209187
491.805500,0.214086
492.138880,0.214732
492.472220,0.212457
492.805520,0.220670
493.138780,0.218470
493.472000,0.214047
493.805180,0.218963
494.138320,0.214810
494.471420,0.212240
494.804480,0.214101
495.137500,0.218870
495.470480,0.216061
495.803420,0.215995
496.136320,0.217419
496.469180,0.216083
496.802000,0.213325
497.134780,0.212856
497.467520,0.229358
497.800220,0.219929
498.132880,0.215755
498.465500,0.220162
498.798080,0.216895
499.130620,0.210556
499.463120,0.215609
499.795580,0.212871
500.128000,0.212534
500.460380,0.219053
500.792720,0.217391
501.125020,0.214398
501.457280,0.210966
501.789500,0.215909
502.121680,0.221877
502.453820,0.214686
502.785920,0.214107
503.117980,0.220314
503.450000,0.221497
503.781980,0.216741
504.113920,0.216690
504.445820,0.214390
504.777680,0.211294
505.109500,0.211058
505.441280,0.220841
505.773020,0.210427
506.104720,0.216675
506.436380,0.221959
506.768000,0.220299
507.099580,0.208696
507.431120,0.218267
507.762620,0.220865
508.094080,0.220146
508.425500,0.224556
508.756880,0.223137
509.088220,0.217571
509.419520,0.217877
509.750780,0.219775
510.082000,0.222015
510.413180,0.219254
510.744320,0.227335
511.075420,0.223648
511.406480,0.221439
511.737500,0.221759
512.068480,0.218985
512.399420,0.221596
512.730320,0.219400
513.061180,0.219791
513.392000,0.227165
513.722780,0.231508
514.053520,0.227599
514.384220,0.221218
514.714880,0.223073
515.045500,0.219349
515.376080,0.230024
515.706620,0.228446
516.037120,0.225490
516.367580,0.229177
516.698000,0.225490
517.028380,0.226415
517.358720,0.220741
517.689020,0.224530
518.019280,0.228299
518.349500,0.228586
518.679680,0.228672
519.009820,0.228745
519.339920,0.237976
519.669980,0.232044
520.000000,0.229241
520.329980,0.236392
520.659920,0.227505
520.989820,0.235294
521.319680,0.233539
521.649500,0.225193
521.979280,0.228079
522.309020,0.230290
522.638720,0.229391
522.968380,0.233195
523.298000,0.234864
523.627580,0.232281
523.957120,0.231688
524.286620,0.229807
524.616080,0.230610
524.945500,0.235659
525.274880,0.237045
525.604220,0.231366
525.933520,0.236373
526.262780,0.229093
526.592000,0.235921
526.921180,0.237176
527.250320,0.237950
527.579420,0.239010
527.908480,0.236337
528.237500,0.238828
528.566480,0.240519
528.895420,0.240020
529.224320,0.240713
529.553180,0.242892
529.882000,0.245255
530.210780,0.237452
530.539520,0.232982
530.868220,0.241742
531.196880,0.241280
531.525500,0.242131
531.854080,0.239212
532.182620,0.237272
532.511120,0.240835
532.839580,0.239111
533.168000,0.243847
533.496380,0.238813
533.824720,0.243158
534.153020,0.242532
534.481280,0.237004
534.809500,0.240985
535.137680,0.243056
535.465820,0.244845
535.793920,0.238156
536.121980,0.242551
536.450000,0.242706
536.777980,0.240888
537.105920,0.252387
537.433820,0.240180
537.761680,0.246531
538.089500,0.245650
538.417280,0.245125
538.745020,0.248019
539.072720,0.242483
539.400380,0.245144
539.728000,0.245889
540.055580,0.243820
540.383120,0.243857
540.710620,0.249628
541.038080,0.248248
541.365500,0.249265
541.692880,0.247456
542.020220,0.244332
542.347520,0.253051
542.674780,0.245589
543.002000,0.248425
543.329180,0.250789
543.656320,0.256329
543.983420,0.248547
544.310480,0.247027
544.637500,0.252815
544.964480,0.243943
545.291420,0.250582
545.618320,0.247676
545.945180,0.242584
546.272000,0.247051
546.598780,0.250410
546.925520,0.248269
547.252220,0.255530
547.578880,0.251874
547.905500,0.252941
548.232080,0.253411
548.558620,0.253498
548.885120,0.251881
549.211580,0.248152
549.538000,0.252594
549.864380,0.249839
550.190720,0.257023
550.517020,0.252608
550.843280,0.256352
551.169500,0.251590
551.495680,0.255913
551.821820,0.259634
552.147920,0.253741
552.473980,0.255845
552.800000,0.253761
553.125980,0.255730
553.451920,0.254811
553.777820,0.254830
554.103680,0.259521
554.429500,0.255105
554.755280,0.258011
555.081020,0.257019
555.406720,0.253979
555.732380,0.257879
556.058000,0.261371
556.383580,0.257446
556.709120,0.262578
557.034620,0.255942
557.360080,0.256304
557.685500,0.258645
558.010880,0.259965
558.336220,0.258699
558.661520,0.263382
558.986780,0.259036
559.312000,0.259615
559.637180,0.263555
559.962320,0.258811
560.287420,0.265867
560.612480,0.260854
560.937500,0.260279
561.262480,0.261364
561.587420,0.265143
561.912320,0.263080
562.237180,0.258327
562.562000,0.259259
562.886780,0.270160
563.211520,0.260432
563.536220,0.260853
563.860880,0.264429
564.185500,0.257411
564.510080,0.267118
564.834620,0.264607
565.159120,0.266917
565.483580,0.265298
565.808000,0.261824
566.132380,0.260351
566.456720,0.270219
566.781020,0.272693
567.105280,0.266919
567.429500,0.269727
567.753680,0.266590
568.077820,0.267878
568.401920,0.273109
568.725980,0.269070
569.050000,0.266160
569.373980,0.270651
569.697920,0.274554
570.021820,0.269288
570.345680,0.271336
570.669500,0.269363
570.993280,0.268734
571.317020,0.271100
571.640720,0.275287
571.964380,0.272457
572.288000,0.271513
572.611580,0.276675
572.935120,0.279461
573.258620,0.269634
573.582080,0.273845
573.905500,0.275875
574.228880,0.277283
574.552220,0.273360
574.875520,0.272524
575.198780,0.277918
575.522000,0.273827
575.845180,0.272923
576.168320,0.269493
576.491420,0.276890
576.814480,0.271248
577.137500,0.277417
577.460480,0.277274
577.783420,0.274741
578.106320,0.278846
578.429180,0.276423
578.752000,0.276138
579.074780,0.281524
579.397520,0.282117
579.720220,0.277027
580.042880,0.280476
580.365500,0.276969
580.688080,0.279851
581.010620,0.276747
581.333120,0.276887
581.655580,0.279054
581.978000,0.279681
582.300380,0.279455
582.622720,0.276203
582.945020,0.283160
583.267280,0.278085
583.589500,0.289246
583.911680,0.284217
584.233820,0.275732
584.555920,0.277655
584.877980,0.275126
585.200000,0.274708
585.521980,0.284214
585.843920,0.283710
586.165820,0.282145
586.487680,0.284382
586.809500,0.282928
587.131280,0.276841
587.453020,0.282440
587.774720,0.285925
588.096380,0.279463
588.418000,0.283289
588.739580,0.286577
589.061120,0.285221
589.382620,0.277077
589.704080,0.283310
590.025500,0.289384
590.346880,0.284992
590.668220,0.280034
590.989520,0.280366
591.310780,0.289147
591.632000,0.285519
591.953180,0.287019
592.274320,0.286377
592.595420,0.284752
592.916480,0.288237
593.237500,0.291296
593.558480,0.287598
593.879420,0.289992
594.200320,0.287704
594.521180,0.291102
594.842000,0.289898
595.162780,0.289797
595.483520,0.287689
595.804220,0.289205
596.124880,0.292832
596.445500,0.285565
596.766080,0.294434
597.086620,0.287951
597.407120,0.293312
597.727580,0.296738
598.048000,0.292515
598.368380,0.288269
598.688720,0.288073
599.009020,0.295117
599.329280,0.293507
599.649500,0.292921
599.969680,0.288462
600.289820,0.294872
600.609920,0.292279
600.929980,0.289952
601.250000,0.290541
601.569980,0.289225
601.889920,0.289762
602.209820,0.295996
602.529680,0.297720
602.849500,0.295963
603.169280,0.293745
603.489020,0.298090
603.808720,0.297586
604.128380,0.297737
604.448000,0.291160
604.767580,0.296089
605.087120,0.298061
605.406620,0.296669
605.726080,0.305674
606.045500,0.296183
606.364880,0.303941
606.684220,0.299258
607.003520,0.299312
607.322780,0.303866
607.642000,0.296381
607.961180,0.298352
608.280320,0.296404
608.599420,0.295771
608.918480,0.300880
609.237500,0.307218
609.556480,0.303936
609.875420,0.300354
610.194320,0.299085
610.513180,0.299201
610.832000,0.298987
611.150780,0.301892
611.469520,0.301056
611.788220,0.308343
612.106880,0.301267
612.425500,0.302680
612.744080,0.305325
613.062620,0.307951
613.381120,0.297989
613.699580,0.305947
614.018000,0.308047
614.336380,0.310919
614.654720,0.306977
614.973020,0.303610
615.291280,0.314844
615.609500,0.310618
615.927680,0.306551
616.245820,0.305504
616.563920,0.308051
616.881980,0.309012
617.200000,0.314463
617.517980,0.303983
617.835920,0.304132
618.153820,0.304942
618.471680,0.308217
618.789500,0.309943
619.107280,0.313615
619.425020,0.313352
619.742720,0.312932
620.060380,0.307427
620.378000,0.311517
620.695580,0.312580
621.013120,0.309291
621.330620,0.313461
621.648080,0.307256
621.965500,0.306148
622.282880,0.310845
622.600220,0.307328
622.917520,0.311594
623.234780,0.308582
623.552000,0.314131
623.869180,0.313268
624.186320,0.316141
624.503420,0.313166
624.820480,0.311027
625.137500,0.317967
625.454480,0.310410
625.771420,0.309899
626.088320,0.308638
626.405180,0.310516
626.722000,0.310853
627.038780,0.309524
627.355520,0.316875
627.672220,0.311042
627.988880,0.315086
628.305500,0.312870
628.622080,0.312577
628.938620,0.317737
629.255120,0.319851
629.571580,0.308305
629.888000,0.310832
630.204380,0.314514
630.520720,0.313528
630.837020,0.310515
631.153280,0.309652
631.469500,0.316252
631.785680,0.314949
632.101820,0.317250
632.417920,0.312072
632.733980,0.311224
633.050000,0.317465
633.365980,0.316242
633.681920,0.316229
633.997820,0.312612
634.313680,0.309643
634.629500,0.314362
634.945280,0.315836
635.261020,0.313766
635.576720,0.315913
635.892380,0.317165
636.208000,0.314062
636.523580,0.315113
636.839120,0.314708
637.154620,0.318551
637.470080,0.312482
637.785500,0.322392
638.100880,0.317984
638.416220,0.315214
638.731520,0.319484
639.046780,0.320711
639.362000,0.312787
639.677180,0.315820
639.992320,0.314350
640.307420,0.312728
640.622480,0.313638
640.937500,0.318724
641.252480,0.316951
641.567420,0.318841
641.882320,0.320434
642.197180,0.313026
642.512000,0.316821
642.826780,0.319834
643.141520,0.318422
643.456220,0.321527
643.770880,0.323383
644.085500,0.317775
644.400080,0.325000
644.714620,0.321628
645.029120,0.316557
645.343580,0.320077
645.658000,0.320011
645.972380,0.322006
646.286720,0.320523
646.601020,0.321616
646.915280,0.323828
647.229500,0.326099
647.543680,0.321458
647.857820,0.319295
648.171920,0.321215
648.485980,0.323376
648.800000,0.323781
649.113980,0.328991
649.427920,0.321498
649.741820,0.321517
650.055680,0.325837
650.369500,0.330998
650.683280,0.325472
650.997020,0.328383
651.310720,0.327463
651.624380,0.326374
651.938000,0.329640
652.251580,0.326468
652.565120,0.325321
652.878620,0.327421
653.192080,0.330899
653.505500,0.328471
653.818880,0.335798
654.132220,0.328112
654.445520,0.330686
654.758780,0.326062
655.072000,0.330372
655.385180,0.325250
655.698320,0.330952
656.011420,0.339066
656.324480,0.334305
656.637500,0.324739
656.950480,0.334703
657.263420,0.335797
657.576320,0.333531
657.889180,0.335299
658.202000,0.335145
658.514780,0.333433
658.827520,0.334934
659.140220,0.329937
659.452880,0.327092
659.765500,0.332631
660.078080,0.335841
660.390620,0.337305
660.703120,0.338222
661.015580,0.338037
661.328000,0.339736
661.640380,0.337372
661.952720,0.336032
662.265020,0.341840
662.577280,0.340649
662.889500,0.340271
663.201680,0.340459
663.513820,0.338372
663.825920,0.337496
664.137980,0.342922
664.450000,0.333120
664.761980,0.333552
665.073920,0.338526
665.385820,0.343259
665.697680,0.334876
666.009500,0.342867
666.321280,0.340623
666.633020,0.338763
666.944720,0.342096
667.256380,0.341521
667.568000,0.336617
667.879580,0.344218
668.191120,0.344093
668.502620,0.341664
668.814080,0.339298
669.125500,0.343141
669.436880,0.341286
669.748220,0.341987
670.059520,0.345238
670.370780,0.344816
670.682000,0.350088
670.993180,0.351656
671.304320,0.342827
671.615420,0.342685
671.926480,0.344216
672.237500,0.337263
672.548480,0.348829
672.859420,0.344174
673.170320,0.347842
673.481180,0.347212
673.792000,0.337901
674.102780,0.345781
674.413520,0.340868
674.724220,0.337931
675.034880,0.343968
675.345500,0.340627
675.656080,0.345191
675.966620,0.347763
676.277120,0.341633
676.587580,0.347570
676.898000,0.340426
677.208380,0.339372
677.518720,0.337345
677.829020,0.341094
678.139280,0.345812
678.449500,0.346454
678.759680,0.348070
679.069820,0.337918
679.379920,0.348171
679.689980,0.344226
680.000000,0.344673
680.309980,0.344840
680.619920,0.346081
680.929820,0.344158
681.239680,0.342319
681.549500,0.346667
681.859280,0.342420
682.169020,0.339799
682.478720,0.341810
682.788380,0.339978
683.098000,0.345176
683.407580,0.344465
683.717120,0.346096
684.026620,0.342997
684.336080,0.339523
684.645500,0.337449
684.954880,0.340385
685.264220,0.346546
685.573520,0.346403
685.882780,0.345992
686.192000,0.341986
686.501180,0.345441
686.810320,0.340507
687.119420,0.338274
687.428480,0.343335
687.737500,0.346124
688.046480,0.344709
688.355420,0.341003
688.664320,0.343917
688.973180,0.337289
689.282000,0.345293
689.590780,0.342791
689.899520,0.336118
690.208220,0.344037
690.516880,0.341733
690.825500,0.346415
691.134080,0.340926
691.442620,0.337652
691.751120,0.344710
692.059580,0.342377
692.368000,0.343809
692.676380,0.345802
692.984720,0.339695
693.293020,0.337386
693.601280,0.344525
693.909500,0.338630
694.217680,0.343107
694.525820,0.345011
694.833920,0.337657
695.141980,0.341304
695.450000,0.342748
695.757980,0.341100
696.065920,0.342136
696.373820,0.340647
696.681680,0.339087
696.989500,0.338865
697.297280,0.340723
697.605020,0.342460
697.912720,0.337817
698.220380,0.341598
698.528000,0.344541
698.835580,0.339392
699.143120,0.337101
699.450620,0.345267
699.758080,0.338039
700.065500,0.342378
700.372880,0.348000
700.680220,0.338652
700.987520,0.340873
701.294780,0.342660
701.602000,0.341125
701.909180,0.343402
702.216320,0.337505
702.523420,0.346488
702.830480,0.350099
703.137500,0.343336
703.444480,0.348718
703.751420,0.348323
704.058320,0.344282
704.365180,0.342666
704.672000,0.346535
704.978780,0.341007
705.285520,0.346635
705.592220,0.347451
705.898880,0.348700
706.205500,0.347027
706.512080,0.342812
706.818620,0.351006
707.125120,0.342692
707.431580,0.343103
707.738000,0.349219
708.044380,0.340409
708.350720,0.346580
708.657020,0.354045
708.963280,0.346661
709.269500,0.344423
709.575680,0.351670
709.881820,0.352987
710.187920,0.343969
710.493980,0.350272
710.800000,0.349733
711.105980,0.340738
711.411920,0.351202
711.717820,0.351657
712.023680,0.350175
712.329500,0.357256
712.635280,0.355814
712.941020,0.354465
713.246720,0.352569
713.552380,0.351648
713.858000,0.354750
714.163580,0.351223
714.469120,0.347011
714.774620,0.357679
715.080080,0.353357
715.385500,0.360112
715.690880,0.359763
715.996220,0.355388
716.301520,0.357708
716.606780,0.355739
716.912000,0.360662
717.217180,0.353951
717.522320,0.358250
717.827420,0.361269
718.132480,0.363709
718.437500,0.364044
718.742480,0.357661
719.047420,0.358819
719.352320,0.365297
719.657180,0.356500
719.962000,0.357320
720.266780,0.366431
720.571520,0.360398
720.876220,0.360884
721.180880,0.360786
721.485500,0.359382
721.790080,0.361783
722.094620,0.363636
722.399120,0.365791
722.703580,0.358337
723.008000,0.367831
723.312380,0.369350
723.616720,0.360816
723.921020,0.362061
724.225280,0.366928
724.529500,0.366900
724.833680,0.380783
725.137820,0.368722
725.441920,0.367365
725.745980,0.371365
726.050000,0.373027
726.353980,0.362325
726.657920,0.369321
726.961820,0.364840
727.265680,0.369857
727.569500,0.363346
727.873280,0.366744
728.177020,0.362966
728.480720,0.368519
728.784380,0.375763
729.088000,0.370231
729.391580,0.372809
729.695120,0.369962
729.998620,0.373327
730.302080,0.366651
730.605500,0.371179
730.908880,0.375306
731.212220,0.369246
731.515520,0.373476
731.818780,0.361165
732.122000,0.373031
732.425180,0.370133
732.728320,0.365394
733.031420,0.376942
733.334480,0.366837
733.637500,0.365423
733.940480,0.372057
734.243420,0.374108
734.546320,0.372925
734.849180,0.373967
735.152000,0.368257
735.454780,0.366736
735.757520,0.369336
736.060220,0.372301
736.362880,0.378151
736.665500,0.370757
736.968080,0.375605
737.270620,0.387044
737.573120,0.370087
737.875580,0.374382
738.178000,0.374524
738.480380,0.370811
738.782720,0.368593
739.085020,0.373348
739.387280,0.363636
739.689500,0.375425
739.991680,0.371701
740.293820,0.383637
740.595920,0.375070
740.897980,0.384529
741.200000,0.371284
741.501980,0.386819
741.803920,0.373311
742.105820,0.374506
742.407680,0.377985
742.709500,0.370455
743.011280,0.369871
743.313020,0.373913
743.614720,0.369704
743.916380,0.376744
744.218000,0.379475
744.519580,0.368357
744.821120,0.377246
745.122620,0.377472
745.424080,0.373798
745.725500,0.378395
746.026880,0.378079
746.328220,0.372380
746.629520,0.357616
746.930780,0.371936
747.232000,0.361741
747.533180,0.378890
747.834320,0.371272
748.135420,0.373524
748.436480,0.369308
748.737500,0.369364
749.038480,0.367135
749.339420,0.377722
749.640320,0.367065
749.941180,0.381636
750.242000,0.371859
750.542780,0.370347
750.843520,0.365151
751.144220,0.361538
751.444880,0.363982
751.745500,0.364935
752.046080,0.369468
752.346620,0.373067
752.647120,0.361855
752.947580,0.362872
753.248000,0.369439
753.548380,0.374756
753.848720,0.363812
754.149020,0.356544
754.449280,0.362443
754.749500,0.368945
755.049680,0.363333
755.349820,0.368245
755.649920,0.362855
755.949980,0.367618
756.250000,0.368836
756.549980,0.368977
756.849920,0.373895
757.149820,0.362608
757.449680,0.376898
757.749500,0.380368
758.049280,0.363823
758.349020,0.372045
758.648720,0.371981
758.948380,0.370447
759.248000,0.367251
759.547580,0.353060
759.847120,0.364576
760.146620,0.366035
760.446080,0.371640
760.745500,0.358042
761.044880,0.362216
761.344220,0.367783
761.643520,0.358757
761.942780,0.361092
762.242000,0.361386
762.541180,0.358451
762.840320,0.364466
763.139420,0.347398
763.438480,0.363636
763.737500,0.365955
764.036480,0.368274
764.335420,0.364150
764.634320,0.363132
764.933180,0.360274
765.232000,0.357391
765.530780,0.376842
765.829520,0.363636
766.128220,0.363953
766.426880,0.366027
766.725500,0.352981
767.024080,0.355967
767.322620,0.359613
767.621120,0.365854
767.919580,0.354949
768.218000,0.359781
768.516380,0.361055
768.814720,0.352538
769.113020,0.359063
769.411280,0.372928
769.709500,0.368742
770.007680,0.358555
770.305820,0.363759
770.603920,0.357143
770.901980,0.365437
771.200000,0.364130
771.497980,0.357239
771.795920,0.365886
772.093820,0.360963
772.391680,0.364535
772.689500,0.361486
772.987280,0.369024
773.285020,0.364320
773.582720,0.365541
773.880380,0.373370
774.178000,0.365372
774.475580,0.367716
774.773120,0.356760
775.070620,0.367140
775.368080,0.372077
775.665500,0.356615
775.962880,0.369580
776.260220,0.370794
776.557520,0.369580
776.854780,0.370521
777.152000,0.361406
777.449180,0.372218
777.746320,0.355511
778.043420,0.366985
778.340480,0.370771
778.637500,0.367140
778.934480,0.367855
779.231420,0.360923
779.528320,0.353373
779.825180,0.355731
780.122000,0.364542
780.418780,0.374145
780.715520,0.368880
781.012220,0.371918
781.308880,0.369168
781.605500,0.367123
781.902080,0.367556
782.198620,0.370472
782.495120,0.361454
782.791580,0.378955
783.088000,0.363699
783.384380,0.377579
783.680720,0.367305
783.977020,0.366827
784.273280,0.372727
784.569500,0.377358
784.865680,0.370654
785.161820,0.380556
785.457920,0.370062
785.753980,0.372645
786.050000,0.371547
786.345980,0.363889
786.641920,0.369188
786.937820,0.382479
787.233680,0.366040
787.529500,0.367545
787.825280,0.381020
788.121020,0.375354
788.416720,0.385321
788.712380,0.380113
789.008000,0.372521
789.303580,0.373852
789.599120,0.383273
789.894620,0.371841
790.190080,0.377085
790.485500,0.385169
790.780880,0.367025
791.076220,0.375180
791.371520,0.376906
791.666780,0.394182
791.962000,0.371051
792.257180,0.379941
792.552320,0.385787
792.847420,0.381368
793.142480,0.375824
793.437500,0.383502
793.732480,0.397952
794.027420,0.385015
794.322320,0.384042
794.617180,0.372214
794.912000,0.383358
795.206780,0.378076
795.501520,0.383270
795.796220,0.374815
796.090880,0.392615
796.385500,0.382309
796.680080,0.385939
796.974620,0.388473
797.269120,0.387585
797.563580,0.389313
797.858000,0.399393
798.152380,0.398299
798.446720,0.385385
798.741020,0.385208
799.035280,0.388199
799.329500,0.387991
799.623680,0.393798
