399.985280,0.243243
400.329500,0.175676
400.673680,0.202532
401.017820,0.191176
401.361920,0.242424
401.705980,0.134146
402.050000,0.181818
402.393980,0.176471
402.737920,0.224719
403.081820,0.195876
403.425680,0.220930
403.769500,0.208333
404.113280,0.172414
404.457020,0.235955
404.800720,0.119565
405.144380,0.222222
405.488000,0.150538
405.831580,0.216495
406.175120,0.223404
406.518620,0.240000
406.862080,0.216495
407.205500,0.166667
407.548880,0.224490
407.892220,0.215686
408.235520,0.212766
408.578780,0.257143
408.922000,0.182692
409.265180,0.252525
409.608320,0.181818
409.951420,0.257732
410.294480,0.205882
410.637500,0.217391
410.980480,0.156863
411.323420,0.204082
411.666320,0.211009
412.009180,0.200000
412.352000,0.138614
412.694780,0.256881
413.037520,0.119266
413.380220,0.207207
413.722880,0.196429
414.065500,0.225225
414.408080,0.176991
414.750620,0.221239
415.093120,0.173554
415.435580,0.176471
415.778000,0.219697
416.120380,0.218487
416.462720,0.206349
416.805020,0.240602
417.147280,0.216418
417.489500,0.228571
417.831680,0.178082
418.173820,0.177305
418.515920,0.237762
418.857980,0.183544
419.200000,0.192308
419.541980,0.230769
419.883920,0.207865
420.225820,0.225434
420.567680,0.201117
420.909500,0.234973
421.251280,0.218750
421.593020,0.219388
421.934720,0.186869
422.276380,0.189744
422.618000,0.191176
422.959580,0.171569
423.301120,0.210046
423.642620,0.186957
423.984080,0.204651
424.325500,0.188341
424.666880,0.193966
425.008220,0.184874
425.349520,0.190678
425.690780,0.184615
426.032000,0.184314
426.373180,0.211618
426.714320,0.187500
427.055420,0.200772
427.396480,0.176030
427.737500,0.193676
428.078480,0.177866
428.419420,0.180723
428.760320,0.187739
429.101180,0.228346
429.442000,0.218391
429.782780,0.188462
430.123520,0.211765
430.464220,0.180812
430.804880,0.206897
431.145500,0.192727
431.486080,0.205993
431.826620,0.220930
432.167120,0.187500
432.507580,0.192029
432.848000,0.201439
433.188380,0.209386
433.528720,0.215094
433.869020,0.192857
434.209280,0.200000
434.549500,0.205575
434.889680,0.222222
435.229820,0.170648
435.569920,0.193772
435.909980,0.184466
436.250000,0.210169
436.589980,0.176471
436.929920,0.215873
437.269820,0.194357
437.609680,0.198225
437.949500,0.195783
438.289280,0.206799
438.629020,0.212209
438.968720,0.209302
439.308380,0.192412
439.648000,0.213699
439.987580,0.211640
440.327120,0.218667
440.666620,0.205195
441.006080,0.209719
441.345500,0.201474
441.684880,0.208134
442.024220,0.200993
442.363520,0.188095
442.702780,0.186364
443.042000,0.193833
443.381180,0.213362
443.720320,0.213823
444.059420,0.197479
444.398480,0.205021
444.737500,0.198770
445.076480,0.198413
445.415420,0.203593
445.754320,0.180873
446.093180,0.190826
446.432000,0.204887
446.770780,0.189753
447.109520,0.216912
447.448220,0.207513
447.786880,0.194991
448.125500,0.196552
448.464080,0.198214
448.802620,0.191489
449.141120,0.183391
449.479580,0.194056
449.818000,0.218589
450.156380,0.204013
450.494720,0.193388
450.833020,0.197552
451.171280,0.196918
451.509500,0.202091
451.847680,0.204047
452.185820,0.220310
452.523920,0.199313
452.861980,0.207420
453.200000,0.197674
453.537980,0.198319
453.875920,0.196639
454.213820,0.202055
454.551680,0.201987
454.889500,0.187184
455.227280,0.193950
455.565020,0.192630
455.902720,0.206323
456.240380,0.181364
456.578000,0.203833
456.915580,0.212435
457.253120,0.199013
457.590620,0.197044
457.928080,0.200337
458.265500,0.212838
458.602880,0.194805
458.940220,0.197970
459.277520,0.208000
459.614780,0.212766
459.952000,0.187888
460.289180,0.215190
460.626320,0.201575
460.963420,0.206785
461.300480,0.209480
461.637500,0.206471
461.974480,0.223242
462.311420,0.202683
462.648320,0.203514
462.985180,0.209469
463.322000,0.215774
463.658780,0.196133
463.995520,0.193948
464.332220,0.199446
464.668880,0.202957
465.005500,0.206434
465.342080,0.206146
465.678620,0.204182
466.015120,0.203105
466.351580,0.214918
466.688000,0.213155
467.024380,0.210207
467.360720,0.209091
467.697020,0.211845
468.033280,0.208889
468.369500,0.207506
468.705680,0.211950
469.041820,0.213542
469.377920,0.204989
469.713980,0.203913
470.050000,0.213527
470.385980,0.201566
470.721920,0.210578
471.057820,0.214425
471.393680,0.210477
471.729500,0.208526
472.065280,0.218247
472.401020,0.203014
472.736720,0.219023
473.072380,0.210054
473.408000,0.212359
473.743580,0.205017
474.079120,0.211886
474.414620,0.203562
474.750080,0.205858
475.085500,0.210526
475.420880,0.209825
475.756220,0.209321
476.091520,0.206309
476.426780,0.213592
476.762000,0.206758
477.097180,0.211200
477.432320,0.212439
477.767420,0.214869
478.102480,0.211811
478.437500,0.211823
478.772480,0.203310
479.107420,0.208299
479.442320,0.206235
479.777180,0.217184
480.112000,0.207242
480.446780,0.202650
480.781520,0.209340
481.116220,0.203719
481.450880,0.207650
481.785500,0.212025
482.120080,0.217868
482.454620,0.211344
482.789120,0.218949
483.123580,0.213396
483.458000,0.207278
483.792380,0.210863
484.126720,0.213900
484.461020,0.206089
484.795280,0.213570
485.129500,0.211224
485.463680,0.206202
485.797820,0.213841
486.131920,0.219587
486.465980,0.213900
486.800000,0.222901
487.133980,0.213746
487.467920,0.214996
487.801820,0.228833
488.135680,0.216831
488.469500,0.214070
488.803280,0.214710
489.137020,0.205861
489.470720,0.222552
489.804380,0.221975
490.138000,0.224036
490.471580,0.221076
490.805120,0.214439
491.138620,0.215352
491.472080,0.220495
491.805500,0.218968
492.138880,0.224461
492.472220,0.221453
492.805520,0.224162
493.138780,0.218470
493.472000,0.210702
493.805180,0.221692
494.138320,0.224149
494.471420,0.222005
494.804480,0.216041
495.137500,0.224005
495.470480,0.229446
495.803420,0.226700
496.136320,0.221805
496.469180,0.228975
496.802000,0.223716
497.134780,0.221346
497.467520,0.229358
497.800220,0.226415
498.132880,0.225162
498.465500,0.227694
498.798080,0.230023
499.130620,0.227962
499.463120,0.227400
499.795580,0.227723
500.128000,0.233787
500.460380,0.224973
500.792720,0.217922
501.125020,0.230163
501.457280,0.229765
501.789500,0.224174
502.121680,0.234318
502.453820,0.231005
502.785920,0.226113
503.117980,0.234544
503.450000,0.233049
503.781980,0.233682
504.113920,0.229493
504.445820,0.230433
504.777680,0.222588
505.109500,0.236538
505.441280,0.233748
505.773020,0.226867
506.104720,0.234574
506.436380,0.231898
506.768000,0.235734
507.099580,0.226087
507.431120,0.235597
507.762620,0.227444
508.094080,0.232908
508.425500,0.239029
508.756880,0.233653
509.088220,0.235971
509.419520,0.237896
509.750780,0.229147
510.082000,0.234608
510.413180,0.232151
510.744320,0.236539
511.075420,0.236939
511.406480,0.230371
511.737500,0.234722
512.068480,0.238722
512.399420,0.236150
512.730320,0.231871
513.061180,0.237393
513.392000,0.241836
513.722780,0.241114
514.053520,0.236703
514.384220,0.235966
514.714880,0.231211
515.045500,0.235153
515.376080,0.238741
515.706620,0.243546
516.037120,0.238235
516.367580,0.239527
516.698000,0.238725
517.028380,0.237339
517.358720,0.241481
517.689020,0.242829
518.019280,0.237331
518.349500,0.238723
518.679680,0.243311
519.009820,0.240385
519.339920,0.245992
519.669980,0.240080
520.000000,0.239429
520.329980,0.242613
520.659920,0.240798
520.989820,0.242002
521.319680,0.241770
521.649500,0.242159
521.979280,0.240084
522.309020,0.237033
522.638720,0.248336
522.968380,0.240434
523.298000,0.246868
523.627580,0.243663
523.957120,0.244156
524.286620,0.245961
524.616080,0.245088
524.945500,0.242377
525.274880,0.248332
525.604220,0.243271
525.933520,0.242138
526.262780,0.246325
526.592000,0.246575
526.921180,0.248857
527.250320,0.238458
527.579420,0.246084
527.908480,0.251600
528.237500,0.248759
528.566480,0.249501
528.895420,0.248891
529.224320,0.248638
529.553180,0.247229
529.882000,0.251095
530.210780,0.247104
530.539520,0.255513
530.868220,0.254667
531.196880,0.247969
531.525500,0.256174
531.854080,0.252345
532.182620,0.244745
532.511120,0.250580
532.839580,0.254083
533.168000,0.255242
533.496380,0.250685
533.824720,0.251234
534.153020,0.252786
534.481280,0.256828
534.809500,0.255937
535.137680,0.250434
535.465820,0.251289
535.793920,0.262267
536.121980,0.257239
536.450000,0.263002
536.777980,0.258483
537.105920,0.258198
537.433820,0.256137
537.761680,0.267755
538.089500,0.262242
538.417280,0.255869
538.745020,0.267036
539.072720,0.254198
539.400380,0.262238
539.728000,0.260038
540.055580,0.261049
540.383120,0.268801
540.710620,0.260789
541.038080,0.261158
541.365500,0.265441
541.692880,0.265625
542.020220,0.262684
542.347520,0.272075
542.674780,0.262526
543.002000,0.263471
543.329180,0.269379
543.656320,0.264768
543.983420,0.268376
544.310480,0.261638
544.637500,0.280450
544.964480,0.269179
545.291420,0.268195
545.618320,0.269920
545.945180,0.263019
546.272000,0.263434
546.598780,0.267126
546.925520,0.270030
547.252220,0.268736
547.578880,0.275008
547.905500,0.270588
548.232080,0.269006
548.558620,0.271396
548.885120,0.272162
549.211580,0.269045
549.538000,0.272374
549.864380,0.270418
550.190720,0.274459
550.517020,0.274120
550.843280,0.275896
551.169500,0.271947
551.495680,0.272668
551.821820,0.269758
552.147920,0.269681
552.473980,0.275601
552.800000,0.275343
553.125980,0.279633
553.451920,0.277372
553.777820,0.279813
554.103680,0.276710
554.429500,0.275193
554.755280,0.277370
555.081020,0.273730
555.406720,0.272265
555.732380,0.271433
556.058000,0.275289
556.383580,0.273879
556.709120,0.275672
557.034620,0.275921
557.360080,0.283247
557.685500,0.278354
558.010880,0.275217
558.336220,0.275923
558.661520,0.280043
558.986780,0.282069
559.312000,0.282764
559.637180,0.275763
559.962320,0.275899
560.287420,0.283498
560.612480,0.274130
560.937500,0.282305
561.262480,0.281891
561.587420,0.280740
561.912320,0.277819
562.237180,0.277572
562.562000,0.276468
562.886780,0.278707
563.211520,0.277571
563.536220,0.283117
563.860880,0.285930
564.185500,0.275797
564.510080,0.279533
564.834620,0.279866
565.159120,0.274812
565.483580,0.277081
565.808000,0.272796
566.132380,0.277508
566.456720,0.282691
566.781020,0.284321
567.105280,0.280907
567.429500,0.286419
567.753680,0.285386
568.077820,0.282180
568.401920,0.286860
568.725980,0.281594
569.050000,0.276806
569.373980,0.280548
569.697920,0.282518
570.021820,0.283895
570.345680,0.283582
570.669500,0.285769
570.993280,0.287191
571.317020,0.278772
571.640720,0.284920
571.964380,0.280624
572.288000,0.286350
572.611580,0.287907
572.935120,0.290685
573.258620,0.288332
573.582080,0.283905
573.905500,0.288533
574.228880,0.285449
574.552220,0.291316
574.875520,0.285182
575.198780,0.288760
575.522000,0.291789
575.845180,0.283668
576.168320,0.287819
576.491420,0.295058
576.814480,0.294756
577.137500,0.291847
577.460480,0.291772
577.783420,0.294748
578.106320,0.294160
578.429180,0.295157
578.752000,0.295589
579.074780,0.297370
579.397520,0.294706
579.720220,0.296010
580.042880,0.296994
580.365500,0.292191
580.688080,0.301560
581.010620,0.294971
581.333120,0.300935
581.655580,0.301698
581.978000,0.298304
582.300380,0.296981
582.622720,0.299604
582.945020,0.298440
583.267280,0.298274
583.589500,0.302408
583.911680,0.307717
584.233820,0.296506
584.555920,0.301922
584.877980,0.307789
585.200000,0.298649
585.521980,0.308619
585.843920,0.303539
586.165820,0.302255
586.487680,0.301234
586.809500,0.302130
587.131280,0.307306
587.453020,0.309524
587.774720,0.312241
588.096380,0.313011
588.418000,0.309043
588.739580,0.314746
589.061120,0.310811
589.382620,0.313754
589.704080,0.309677
590.025500,0.312785
590.346880,0.313097
590.668220,0.310837
590.989520,0.308930
591.310780,0.315935
591.632000,0.315574
591.953180,0.314974
592.274320,0.307944
592.595420,0.314386
592.916480,0.316762
593.237500,0.320399
593.558480,0.322572
593.879420,0.320475
594.200320,0.315564
594.521180,0.318991
594.842000,0.322945
595.162780,0.316239
595.483520,0.321989
595.804220,0.323040
596.124880,0.321609
596.445500,0.318313
596.766080,0.326701
597.086620,0.320329
597.407120,0.319642
597.727580,0.319809
598.048000,0.321608
598.368380,0.319306
598.688720,0.323198
599.009020,0.322452
599.329280,0.320915
599.649500,0.324089
599.969680,0.321581
600.289820,0.321581
600.609920,0.324339
600.929980,0.319882
601.250000,0.321892
601.569980,0.317850
601.889920,0.313018
602.209820,0.320346
602.529680,0.327383
602.849500,0.325423
603.169280,0.320750
603.489020,0.324107
603.808720,0.324465
604.128380,0.322572
604.448000,0.319613
604.767580,0.325419
605.087120,0.323546
605.406620,0.322138
605.726080,0.323353
606.045500,0.320424
606.364880,0.320669
606.684220,0.329240
607.003520,0.321674
607.322780,0.322626
607.642000,0.321941
607.961180,0.324082
608.280320,0.324536
608.599420,0.312572
608.918480,0.322581
609.237500,0.321890
609.556480,0.321693
609.875420,0.322504
610.194320,0.321819
610.513180,0.320805
610.832000,0.318642
611.150780,0.325623
611.469520,0.320965
611.788220,0.323761
612.106880,0.323583
612.425500,0.314860
612.744080,0.328409
613.062620,0.323547
613.381120,0.316271
613.699580,0.321275
614.018000,0.321560
614.336380,0.325108
614.654720,0.323411
614.973020,0.324283
615.291280,0.321351
615.609500,0.321078
615.927680,0.319839
616.245820,0.324366
616.563920,0.321728
616.881980,0.323043
617.200000,0.323484
617.517980,0.317984
617.835920,0.319664
618.153820,0.318931
618.471680,0.324651
618.789500,0.317810
619.107280,0.325509
619.425020,0.328893
619.742720,0.324859
620.060380,0.321529
620.378000,0.318754
620.695580,0.322797
621.013120,0.322835
621.330620,0.325071
621.648080,0.316088
621.965500,0.329360
622.282880,0.323140
622.600220,0.330069
622.917520,0.326087
623.234780,0.328190
623.552000,0.325589
623.869180,0.318941
624.186320,0.322827
624.503420,0.327900
624.820480,0.323594
625.137500,0.329018
625.454480,0.323539
625.771420,0.330706
626.088320,0.331652
626.405180,0.329807
626.722000,0.321518
627.038780,0.332393
627.355520,0.327188
627.672220,0.329705
627.988880,0.329082
628.305500,0.331567
628.622080,0.329306
628.938620,0.328135
629.255120,0.331674
629.571580,0.329451
629.888000,0.329856
630.204380,0.333231
630.520720,0.328154
630.837020,0.334567
631.153280,0.336631
631.469500,0.334142
631.785680,0.337553
632.101820,0.332931
632.417920,0.330849
632.733980,0.332233
633.050000,0.338387
633.365980,0.332839
633.681920,0.333532
633.997820,0.338912
634.313680,0.337364
634.629500,0.336774
634.945280,0.342522
635.261020,0.341063
635.576720,0.343805
635.892380,0.342434
636.208000,0.344567
636.523580,0.345805
636.839120,0.344818
637.154620,0.342609
637.470080,0.340316
637.785500,0.349062
638.100880,0.339415
638.416220,0.344262
638.731520,0.347564
639.046780,0.351588
639.362000,0.344037
639.677180,0.350086
639.992320,0.345080
640.307420,0.346727
640.622480,0.349482
640.937500,0.352288
641.252480,0.355208
641.567420,0.350099
641.882320,0.352450
642.197180,0.360191
642.512000,0.354884
642.826780,0.351179
643.141520,0.360934
643.456220,0.358329
643.770880,0.358485
644.085500,0.359698
644.400080,0.356180
644.714620,0.356187
645.029120,0.355061
645.343580,0.359024
645.658000,0.362753
645.972380,0.359825
646.286720,0.358408
646.601020,0.363410
646.915280,0.360022
647.229500,0.362637
647.543680,0.356255
647.857820,0.364712
648.171920,0.362181
648.485980,0.360647
648.800000,0.358777
649.113980,0.359756
649.427920,0.366436
649.741820,0.362737
650.055680,0.364235
650.369500,0.364350
650.683280,0.363208
650.997020,0.363311
651.310720,0.362686
651.624380,0.362637
651.938000,0.369252
652.251580,0.368216
652.565120,0.360816
652.878620,0.371340
653.192080,0.367697
653.505500,0.358205
653.818880,0.363662
654.132220,0.367417
654.445520,0.369541
654.758780,0.364589
655.072000,0.360745
655.385180,0.369472
655.698320,0.361818
656.011420,0.368874
656.324480,0.364617
656.637500,0.360660
656.950480,0.366119
657.263420,0.368017
657.576320,0.364661
657.889180,0.366264
658.202000,0.367150
658.514780,0.371539
658.827520,0.370048
659.140220,0.364699
659.452880,0.366657
659.765500,0.364539
660.078080,0.362925
660.390620,0.364497
660.703120,0.375496
661.015580,0.363190
661.328000,0.371851
661.640380,0.366573
661.952720,0.361258
662.265020,0.362634
662.577280,0.363550
662.889500,0.369599
663.201680,0.370453
663.513820,0.365069
663.825920,0.375280
664.137980,0.367162
664.450000,0.356458
664.761980,0.369885
665.073920,0.361571
665.385820,0.366819
665.697680,0.365289
666.009500,0.368141
666.321280,0.371769
666.633020,0.358378
666.944720,0.370408
667.256380,0.359354
667.568000,0.363791
667.879580,0.360544
668.191120,0.366415
668.502620,0.357069
668.814080,0.360000
669.125500,0.362299
669.436880,0.358230
669.748220,0.358602
670.059520,0.372899
670.370780,0.360821
670.682000,0.368496
670.993180,0.361522
671.304320,0.365682
671.615420,0.359020
671.926480,0.365507
672.237500,0.356556
672.548480,0.357346
672.859420,0.361330
673.170320,0.359086
673.481180,0.360608
673.792000,0.359178
674.102780,0.356194
674.413520,0.359825
674.724220,0.356080
675.034880,0.361569
675.345500,0.351933
675.656080,0.358984
675.966620,0.367406
676.277120,0.355914
676.587580,0.359352
676.898000,0.354610
677.208380,0.359335
677.518720,0.357768
677.829020,0.354398
678.139280,0.356190
678.449500,0.355366
678.759680,0.354065
679.069820,0.353532
679.379920,0.357601
679.689980,0.355366
680.000000,0.359252
680.309980,0.360059
680.619920,0.357819
680.929820,0.356850
681.239680,0.349335
681.549500,0.354074
681.859280,0.351382
682.169020,0.370011
682.478720,0.357517
682.788380,0.354743
683.098000,0.360883
683.407580,0.359850
683.717120,0.361111
684.026620,0.351280
684.336080,0.358848
684.645500,0.359521
684.954880,0.351719
685.264220,0.356738
685.573520,0.359726
685.882780,0.365554
686.192000,0.357788
686.501180,0.354521
686.810320,0.357802
687.119420,0.361460
687.428480,0.360046
687.737500,0.358404
688.046480,0.359663
688.355420,0.357978
688.664320,0.360750
688.973180,0.364855
689.282000,0.363040
689.590780,0.358896
689.899520,0.357767
690.208220,0.364297
690.516880,0.364261
690.825500,0.359245
691.134080,0.357251
691.442620,0.360137
691.751120,0.357983
692.059580,0.355369
692.368000,0.365392
692.676380,0.363359
692.984720,0.363359
693.293020,0.362082
693.601280,0.365128
693.909500,0.359062
694.217680,0.361005
694.525820,0.365575
694.833920,0.363220
695.141980,0.362514
695.450000,0.358779
695.757980,0.360963
696.065920,0.358447
696.373820,0.363741
696.681680,0.360568
696.989500,0.375531
697.297280,0.361727
697.605020,0.370238
697.912720,0.370484
698.220380,0.362456
698.528000,0.370649
698.835580,0.372185
699.143120,0.368277
699.450620,0.373111
699.758080,0.366275
700.065500,0.373105
700.372880,0.374000
700.680220,0.369765
700.987520,0.372619
701.294780,0.372263
701.602000,0.370840
701.909180,0.378378
702.216320,0.371529
702.523420,0.376480
702.830480,0.377426
703.137500,0.377631
703.444480,0.380671
703.751420,0.385404
704.058320,0.381876
704.365180,0.378943
704.672000,0.387723
704.978780,0.382364
705.285520,0.379890
705.592220,0.374118
705.898880,0.379827
706.205500,0.386933
706.512080,0.384676
706.818620,0.381579
707.125120,0.382692
707.431580,0.379836
707.738000,0.383594
708.044380,0.381320
708.350720,0.390524
708.657020,0.391559
708.963280,0.387034
709.269500,0.394912
709.575680,0.396464
709.881820,0.396226
710.187920,0.388716
710.493980,0.390225
710.800000,0.390160
711.105980,0.388178
711.411920,0.387071
711.717820,0.392593
712.023680,0.393704
712.329500,0.398659
712.635280,0.392636
712.941020,0.388481
713.246720,0.400000
713.552380,0.392465
713.858000,0.394166
714.163580,0.389897
714.469120,0.391559
714.774620,0.398737
715.080080,0.402434
715.385500,0.394884
715.690880,0.389744
715.996220,0.395800
716.301520,0.401186
716.606780,0.400943
716.912000,0.398627
717.217180,0.404629
717.522320,0.401988
717.827420,0.405614
718.132480,0.406263
718.437500,0.399511
718.742480,0.395968
719.047420,0.397249
719.352320,0.405562
719.657180,0.397792
719.962000,0.402399
720.266780,0.398421
720.571520,0.395195
720.876220,0.405483
721.180880,0.402592
721.485500,0.412035
721.790080,0.397452
722.094620,0.414666
722.399120,0.404567
722.703580,0.401629
723.008000,0.406210
723.312380,0.402066
723.616720,0.402465
723.921020,0.400606
724.225280,0.403578
724.529500,0.400613
724.833680,0.409253
725.137820,0.410573
725.441920,0.405261
725.745980,0.414765
726.050000,0.405052
726.353980,0.398378
726.657920,0.407557
726.961820,0.397717
727.265680,0.406842
727.569500,0.406307
727.873280,0.407852
728.177020,0.409949
728.480720,0.412037
728.784380,0.408173
729.088000,0.405558
729.391580,0.406916
729.695120,0.416987
729.998620,0.410134
730.302080,0.407496
730.605500,0.398350
730.908880,0.411073
731.212220,0.412831
731.515520,0.400780
731.818780,0.403883
732.122000,0.411417
732.425180,0.403154
732.728320,0.405553
733.031420,0.398496
733.334480,0.405612
733.637500,0.402722
733.940480,0.410440
734.243420,0.406218
734.546320,0.409232
734.849180,0.402893
735.152000,0.408195
735.454780,0.403409
735.757520,0.395680
736.060220,0.407056
736.362880,0.404937
736.665500,0.396345
736.968080,0.403009
737.270620,0.399020
737.573120,0.396834
737.875580,0.406267
738.178000,0.407186
738.480380,0.405405
738.782720,0.395311
739.085020,0.398128
739.387280,0.402439
739.689500,0.404870
739.991680,0.390230
740.293820,0.398010
740.595920,0.396216
740.897980,0.400903
741.200000,0.397644
741.501980,0.408596
741.803920,0.398086
742.105820,0.390863
742.407680,0.397787
742.709500,0.393750
743.011280,0.392732
743.313020,0.396522
743.614720,0.392339
743.916380,0.396512
744.218000,0.399761
744.519580,0.393116
744.821120,0.404192
745.122620,0.404434
745.424080,0.396034
745.725500,0.393482
746.026880,0.399631
746.328220,0.397041
746.629520,0.390126
746.930780,0.392157
747.232000,0.391784
747.533180,0.392312
747.834320,0.392575
748.135420,0.392791
748.436480,0.401747
748.737500,0.388511
749.038480,0.391570
749.339420,0.383945
749.640320,0.386549
749.941180,0.387258
750.242000,0.387563
750.542780,0.387717
750.843520,0.393978
751.144220,0.388462
751.444880,0.386810
751.745500,0.388312
752.046080,0.384862
752.346620,0.385954
752.647120,0.386022
752.947580,0.384217
753.248000,0.386202
753.548380,0.378009
753.848720,0.383773
754.149020,0.382334
754.449280,0.382797
754.749500,0.380226
755.049680,0.386667
755.349820,0.381588
755.649920,0.392597
755.949980,0.390179
756.250000,0.386588
756.549980,0.375578
756.849920,0.383413
757.149820,0.368596
757.449680,0.378878
757.749500,0.384458
758.049280,0.392491
758.349020,0.374131
758.648720,0.389234
758.948380,0.379381
759.248000,0.371968
759.547580,0.392065
759.847120,0.379049
760.146620,0.376184
760.446080,0.383737
760.745500,0.383217
761.044880,0.388494
761.344220,0.380613
761.643520,0.386299
761.942780,0.389083
762.242000,0.383310
762.541180,0.378873
762.840320,0.386938
763.139420,0.393108
763.438480,0.380725
763.737500,0.387319
764.036480,0.388539
764.335420,0.378264
764.634320,0.375606
764.933180,0.396575
765.232000,0.371964
765.530780,0.376140
765.829520,0.379021
766.128220,0.384134
766.426880,0.382374
766.725500,0.376971
767.024080,0.379973
767.322620,0.379668
767.621120,0.379404
767.919580,0.374061
768.218000,0.385773
768.516380,0.388776
768.814720,0.395062
769.113020,0.381116
769.411280,0.386050
769.709500,0.386333
770.007680,0.383776
770.305820,0.387424
770.603920,0.372642
770.901980,0.390710
771.200000,0.372283
771.497980,0.380697
771.795920,0.380602
772.093820,0.380348
772.391680,0.380356
772.689500,0.383784
772.987280,0.385859
773.285020,0.393028
773.582720,0.382432
773.880380,0.385038
774.178000,0.388548
774.475580,0.389819
774.773120,0.384203
775.070620,0.394185
775.368080,0.392118
775.665500,0.380121
775.962880,0.395597
776.260220,0.385599
776.557520,0.392929
776.854780,0.398242
777.152000,0.394562
777.449180,0.396494
777.746320,0.384409
778.043420,0.399045
778.340480,0.393775
778.637500,0.394185
778.934480,0.390720
779.231420,0.382632
779.528320,0.396794
779.825180,0.387352
780.122000,0.399070
780.418780,0.402189
780.715520,0.395708
781.012220,0.401370
781.308880,0.397566
781.605500,0.400685
781.902080,0.404517
782.198620,0.403281
782.495120,0.392318
782.791580,0.403026
783.088000,0.398896
783.384380,0.401651
783.680720,0.405609
783.977020,0.398486
784.273280,0.408392
784.569500,0.399720
784.865680,0.397775
785.161820,0.393750
785.457920,0.401940
785.753980,0.392184
786.050000,0.401243
786.345980,0.397917
786.641920,0.400416
786.937820,0.411681
787.233680,0.400835
787.529500,0.405687
787.825280,0.407224
788.121020,0.400142
788.416720,0.393790
788.712380,0.406911
789.008000,0.404391
789.303580,0.408481
789.599120,0.416000
789.894620,0.420939
790.190080,0.408267
790.485500,0.410367
790.780880,0.405735
791.076220,0.413420
791.371520,0.400145
791.666780,0.421091
791.962000,0.411462
792.257180,0.408492
792.552320,0.416244
792.847420,0.411936
793.142480,0.426374
793.437500,0.411722
793.732480,0.419166
794.027420,0.422107
794.322320,0.416107
794.617180,0.421248
794.912000,0.416790
795.206780,0.415362
795.501520,0.420532
795.796220,0.414815
796.090880,0.427280
796.385500,0.408546
796.680080,0.425580
796.974620,0.416916
797.269120,0.417865
797.563580,0.422901
797.858000,0.420653
798.152380,0.426141
798.446720,0.426154
798.741020,0.426040
799.035280,0.419255
799.329500,0.411855
799.623680,0.425581
