399.985280,0.243243
400.329500,0.175676
400.673680,0.227848
401.017820,0.191176
401.361920,0.136364
401.705980,0.195122
402.050000,0.168831
402.393980,0.235294
402.737920,0.269663
403.081820,0.185567
403.425680,0.197674
403.769500,0.187500
404.113280,0.183908
404.457020,0.202247
404.800720,0.173913
405.144380,0.212121
405.488000,0.182796
405.831580,0.216495
406.175120,0.244681
406.518620,0.210000
406.862080,0.257732
407.205500,0.260417
407.548880,0.193878
407.892220,0.215686
408.235520,0.223404
408.578780,0.200000
408.922000,0.230769
409.265180,0.242424
409.608320,0.212121
409.951420,0.226804
410.294480,0.215686
410.637500,0.206522
410.980480,0.225490
411.323420,0.204082
411.666320,0.211009
412.009180,0.263636
412.352000,0.178218
412.694780,0.238532
413.037520,0.174312
413.380220,0.189189
413.722880,0.241071
414.065500,0.225225
414.408080,0.159292
414.750620,0.150442
415.093120,0.214876
415.435580,0.201681
415.778000,0.227273
416.120380,0.176471
416.462720,0.150794
416.805020,0.210526
417.147280,0.208955
417.489500,0.207143
417.831680,0.253425
418.173820,0.205674
418.515920,0.202797
418.857980,0.246835
419.200000,0.198718
419.541980,0.218935
419.883920,0.202247
420.225820,0.231214
420.567680,0.206704
420.909500,0.202186
421.251280,0.239583
421.593020,0.198980
421.934720,0.196970
422.276380,0.200000
422.618000,0.225490
422.959580,0.220588
423.301120,0.228311
423.642620,0.173913
423.984080,0.209302
424.325500,0.233184
424.666880,0.206897
425.008220,0.193277
425.349520,0.194915
425.690780,0.203846
426.032000,0.211765
426.373180,0.215768
426.714320,0.195312
427.055420,0.196911
427.396480,0.191011
427.737500,0.181818
428.078480,0.193676
428.419420,0.224900
428.760320,0.187739
429.101180,0.236220
429.442000,0.210728
429.782780,0.192308
430.123520,0.231373
430.464220,0.195572
430.804880,0.222222
431.145500,0.218182
431.486080,0.224719
431.826620,0.189922
432.167120,0.194853
432.507580,0.210145
432.848000,0.208633
433.188380,0.198556
433.528720,0.200000
433.869020,0.214286
434.209280,0.192982
434.549500,0.222997
434.889680,0.232323
435.229820,0.197952
435.569920,0.207612
435.909980,0.213592
436.250000,0.227119
436.589980,0.182663
436.929920,0.234921
437.269820,0.222571
437.609680,0.239645
437.949500,0.210843
438.289280,0.215297
438.629020,0.220930
438.968720,0.229651
439.308380,0.186992
439.648000,0.208219
439.987580,0.214286
440.327120,0.202667
440.666620,0.225974
441.006080,0.217391
441.345500,0.218673
441.684880,0.215311
442.024220,0.213400
442.363520,0.204762
442.702780,0.209091
443.042000,0.207048
443.381180,0.217672
443.720320,0.215983
444.059420,0.203782
444.398480,0.205021
444.737500,0.206967
445.076480,0.214286
445.415420,0.215569
445.754320,0.220374
446.093180,0.220183
446.432000,0.216165
446.770780,0.214421
447.109520,0.227941
447.448220,0.227191
447.786880,0.225403
448.125500,0.215517
448.464080,0.221429
448.802620,0.210993
449.141120,0.209343
449.479580,0.215035
449.818000,0.220310
450.156380,0.222408
450.494720,0.219835
450.833020,0.225524
451.171280,0.217466
451.509500,0.221254
451.847680,0.222597
452.185820,0.218589
452.523920,0.219931
452.861980,0.220911
453.200000,0.214286
453.537980,0.208403
453.875920,0.220168
454.213820,0.210616
454.551680,0.208609
454.889500,0.219224
455.227280,0.204626
455.565020,0.226131
455.902720,0.217970
456.240380,0.204659
456.578000,0.235192
456.915580,0.236615
457.253120,0.213816
457.590620,0.238095
457.928080,0.212121
458.265500,0.226351
458.602880,0.220779
458.940220,0.206430
459.277520,0.216000
459.614780,0.235679
459.952000,0.214286
460.289180,0.212025
460.626320,0.217323
460.963420,0.206785
461.300480,0.215596
461.637500,0.208012
461.974480,0.243119
462.311420,0.220566
462.648320,0.221083
462.985180,0.220947
463.322000,0.215774
463.658780,0.220994
463.995520,0.215956
464.332220,0.228532
464.668880,0.227151
465.005500,0.213137
465.342080,0.226633
465.678620,0.221402
466.015120,0.210867
466.351580,0.238938
466.688000,0.235079
467.024380,0.212637
467.360720,0.212500
467.697020,0.217540
468.033280,0.222222
468.369500,0.222958
468.705680,0.226607
469.041820,0.222917
469.377920,0.218004
469.713980,0.217302
470.050000,0.223188
470.385980,0.222114
470.721920,0.227228
471.057820,0.222222
471.393680,0.224509
471.729500,0.223355
472.065280,0.228086
472.401020,0.220745
472.736720,0.230366
473.072380,0.221724
473.408000,0.221932
473.743580,0.228374
474.079120,0.233419
474.414620,0.223919
474.750080,0.222945
475.085500,0.226974
475.420880,0.229808
475.756220,0.224039
476.091520,0.232737
476.426780,0.233010
476.762000,0.226870
477.097180,0.233600
477.432320,0.235057
477.767420,0.231209
478.102480,0.223622
478.437500,0.234811
478.772480,0.228526
479.107420,0.226200
479.442320,0.233413
479.777180,0.231504
480.112000,0.228814
480.446780,0.223694
480.781520,0.230274
481.116220,0.240905
481.450880,0.230289
481.785500,0.242089
482.120080,0.242947
482.454620,0.236208
482.789120,0.244427
483.123580,0.228972
483.458000,0.233386
483.792380,0.234026
484.126720,0.237066
484.461020,0.233411
484.795280,0.243639
485.129500,0.254092
485.463680,0.231783
485.797820,0.245723
486.131920,0.245601
486.465980,0.247876
486.800000,0.248855
487.133980,0.243958
487.467920,0.244070
487.801820,0.249428
488.135680,0.245641
488.469500,0.240545
488.803280,0.252600
489.137020,0.242491
489.470720,0.247033
489.804380,0.249443
490.138000,0.238872
490.471580,0.249816
490.805120,0.252323
491.138620,0.245913
491.472080,0.249470
491.805500,0.246165
492.138880,0.249479
492.472220,0.243599
492.805520,0.252095
493.138780,0.253618
493.472000,0.252174
493.805180,0.255798
494.138320,0.254837
494.471420,0.251953
494.804480,0.245149
495.137500,0.249679
495.470480,0.254302
495.803420,0.251889
496.136320,0.258145
496.469180,0.246163
496.802000,0.257946
497.134780,0.259551
497.467520,0.259939
497.800220,0.258255
498.132880,0.246326
498.465500,0.260718
498.798080,0.255137
499.130620,0.255474
499.463120,0.253229
499.795580,0.249725
500.128000,0.252316
500.460380,0.254575
500.792720,0.250265
501.125020,0.252233
501.457280,0.255352
501.789500,0.261880
502.121680,0.266459
502.453820,0.254462
502.785920,0.253627
503.117980,0.256133
503.450000,0.263687
503.781980,0.261584
504.113920,0.254623
504.445820,0.256684
504.777680,0.254118
505.109500,0.256731
505.441280,0.257648
505.773020,0.261155
506.104720,0.257183
506.436380,0.257927
506.768000,0.262862
507.099580,0.256293
507.431120,0.257611
507.762620,0.257519
508.094080,0.257521
508.425500,0.265173
508.756880,0.258345
509.088220,0.262649
509.419520,0.262104
509.750780,0.270853
510.082000,0.260261
510.413180,0.263473
510.744320,0.256788
511.075420,0.256645
511.406480,0.261871
511.737500,0.254630
512.068480,0.262218
512.399420,0.261502
512.730320,0.262818
513.061180,0.261180
513.392000,0.263606
513.722780,0.268972
514.053520,0.258265
514.384220,0.261180
514.714880,0.263763
515.045500,0.261494
515.376080,0.261985
515.706620,0.264004
516.037120,0.264216
516.367580,0.263184
516.698000,0.257353
517.028380,0.266137
517.358720,0.260741
517.689020,0.268051
518.019280,0.267436
518.349500,0.266599
518.679680,0.271075
519.009820,0.262146
519.339920,0.272044
519.669980,0.266700
520.000000,0.271014
520.329980,0.270088
520.659920,0.268405
520.989820,0.272446
521.319680,0.275206
521.649500,0.268380
521.979280,0.270877
522.309020,0.270747
522.638720,0.265745
522.968380,0.277663
523.298000,0.269311
523.627580,0.272116
523.957120,0.274805
524.286620,0.276186
524.616080,0.274560
524.945500,0.269251
525.274880,0.277065
525.604220,0.276915
525.933520,0.281447
526.262780,0.269640
526.592000,0.282598
526.921180,0.281361
527.250320,0.280568
527.579420,0.282971
527.908480,0.283112
528.237500,0.287488
528.566480,0.280938
528.895420,0.287334
529.224320,0.282813
529.553180,0.282410
529.882000,0.286131
530.210780,0.289093
530.539520,0.284756
530.868220,0.288176
531.196880,0.287148
531.525500,0.289588
531.854080,0.291745
532.182620,0.286782
532.511120,0.290487
532.839580,0.293103
533.168000,0.288514
533.496380,0.301370
533.824720,0.292508
534.153020,0.298707
534.481280,0.300000
534.809500,0.297274
535.137680,0.295573
535.465820,0.298540
535.793920,0.295262
536.121980,0.295426
536.450000,0.300211
536.777980,0.301215
537.105920,0.296389
537.433820,0.300327
537.761680,0.306939
538.089500,0.312019
538.417280,0.304815
538.745020,0.311410
539.072720,0.302616
539.400380,0.306915
539.728000,0.314340
540.055580,0.307491
540.383120,0.310127
540.710620,0.308036
541.038080,0.308742
541.365500,0.320588
541.692880,0.311773
542.020220,0.315221
542.347520,0.309763
542.674780,0.307692
543.002000,0.312806
543.329180,0.321291
543.656320,0.320323
543.983420,0.309744
544.310480,0.307509
544.637500,0.317298
544.964480,0.308883
545.291420,0.310070
545.618320,0.319721
545.945180,0.316744
546.272000,0.310288
546.598780,0.316290
546.925520,0.314540
547.252220,0.319908
547.578880,0.320626
547.905500,0.314706
548.232080,0.315789
548.558620,0.321510
548.885120,0.316977
549.211580,0.319511
549.538000,0.315824
549.864380,0.318971
550.190720,0.318696
550.517020,0.316819
550.843280,0.321173
551.169500,0.316794
551.495680,0.327530
551.821820,0.323318
552.147920,0.315875
552.473980,0.318406
552.800000,0.317528
553.125980,0.323838
553.451920,0.320173
553.777820,0.328448
554.103680,0.321200
554.429500,0.315701
554.755280,0.323765
555.081020,0.320521
555.406720,0.322384
555.732380,0.316503
556.058000,0.317719
556.383580,0.318726
556.709120,0.311854
557.034620,0.315536
557.360080,0.321244
557.685500,0.314315
558.010880,0.319584
558.336220,0.316696
558.661520,0.321163
558.986780,0.321403
559.312000,0.318732
559.637180,0.318133
559.962320,0.317551
560.287420,0.314528
560.612480,0.320775
560.937500,0.319016
561.262480,0.315616
561.587420,0.320276
561.912320,0.314665
562.237180,0.311251
562.562000,0.319865
562.886780,0.318469
563.211520,0.314829
563.536220,0.319481
563.860880,0.313089
564.185500,0.315197
564.510080,0.319037
564.834620,0.314849
565.159120,0.323308
565.483580,0.316990
565.808000,0.317821
566.132380,0.318538
566.456720,0.319350
566.781020,0.318080
567.105280,0.316824
567.429500,0.318665
567.753680,0.321442
568.077820,0.316969
568.401920,0.314744
568.725980,0.319545
569.050000,0.318251
569.373980,0.318614
569.697920,0.313235
570.021820,0.318352
570.345680,0.317260
570.669500,0.317818
570.993280,0.321521
571.317020,0.312751
571.640720,0.319748
571.964380,0.317743
572.288000,0.309718
572.611580,0.322726
572.935120,0.316124
573.258620,0.318624
573.582080,0.324888
573.905500,0.322413
574.228880,0.314031
574.552220,0.316966
574.875520,0.320923
575.198780,0.320202
575.522000,0.323680
575.845180,0.319842
576.168320,0.318361
576.491420,0.320858
576.814480,0.324774
577.137500,0.327922
577.460480,0.327655
577.783420,0.326902
578.106320,0.325499
578.429180,0.332980
578.752000,0.331018
579.074780,0.331760
579.397520,0.324080
579.720220,0.330116
580.042880,0.333003
580.365500,0.330245
580.688080,0.338195
581.010620,0.332433
581.333120,0.337007
581.655580,0.335997
581.978000,0.335218
582.300380,0.333009
582.622720,0.338167
582.945020,0.336151
583.267280,0.339629
583.589500,0.344141
583.911680,0.333757
584.233820,0.338684
584.555920,0.339111
584.877980,0.346420
585.200000,0.332106
585.521980,0.341057
585.843920,0.341062
586.165820,0.345216
586.487680,0.345170
586.809500,0.349235
587.131280,0.341615
587.453020,0.350000
587.774720,0.348315
588.096380,0.354142
588.418000,0.355575
588.739580,0.358149
589.061120,0.354227
589.382620,0.352149
589.704080,0.353436
590.025500,0.362728
590.346880,0.359753
590.668220,0.357323
590.989520,0.354132
591.310780,0.357912
591.632000,0.358743
591.953180,0.359258
592.274320,0.360906
592.595420,0.364224
592.916480,0.366748
593.237500,0.372406
593.558480,0.364272
593.879420,0.369032
594.200320,0.369944
594.521180,0.368659
594.842000,0.373186
595.162780,0.366987
595.483520,0.371710
595.804220,0.374597
596.124880,0.380762
596.445500,0.366780
596.766080,0.379941
597.086620,0.375265
597.407120,0.373091
597.727580,0.380801
598.048000,0.374240
598.368380,0.371120
598.688720,0.380341
599.009020,0.378185
599.329280,0.382118
599.649500,0.386160
599.969680,0.384348
600.289820,0.378205
600.609920,0.379108
600.929980,0.381347
601.250000,0.383514
601.569980,0.382933
601.889920,0.384389
602.209820,0.382305
602.529680,0.396320
602.849500,0.386798
603.169280,0.390466
603.489020,0.392195
603.808720,0.387822
604.128380,0.388521
604.448000,0.387569
604.767580,0.388547
605.087120,0.382271
605.406620,0.390708
605.726080,0.395495
606.045500,0.392031
606.364880,0.395237
606.684220,0.394346
607.003520,0.395356
607.322780,0.395964
607.642000,0.392878
607.961180,0.395779
608.280320,0.395302
608.599420,0.393395
608.918480,0.397361
609.237500,0.398474
609.556480,0.400118
609.875420,0.389250
610.194320,0.396811
610.513180,0.395087
610.832000,0.396367
611.150780,0.402824
611.469520,0.396380
611.788220,0.405381
612.106880,0.395054
612.425500,0.391291
612.744080,0.403509
613.062620,0.395413
613.381120,0.395186
613.699580,0.394237
614.018000,0.399570
614.336380,0.404072
614.654720,0.395659
614.973020,0.400802
615.291280,0.396963
615.609500,0.406973
615.927680,0.392769
616.245820,0.404762
616.563920,0.400373
616.881980,0.403804
617.200000,0.403110
617.517980,0.396391
617.835920,0.397328
618.153820,0.396643
618.471680,0.396279
618.789500,0.400881
619.107280,0.405321
619.425020,0.398985
619.742720,0.397991
620.060380,0.401755
620.378000,0.406545
620.695580,0.402299
621.013120,0.400945
621.330620,0.405711
621.648080,0.396845
621.965500,0.399937
622.282880,0.401955
622.600220,0.394504
622.917520,0.397606
623.234780,0.399871
623.552000,0.400064
623.869180,0.399307
624.186320,0.402420
624.503420,0.404075
624.820480,0.402451
625.137500,0.402273
625.454480,0.393248
625.771420,0.400063
626.088320,0.398172
626.405180,0.398258
626.722000,0.393977
627.038780,0.389098
627.355520,0.394688
627.672220,0.397823
627.988880,0.398445
628.305500,0.397320
628.622080,0.391884
628.938620,0.388685
629.255120,0.398880
629.571580,0.391971
629.888000,0.394600
630.204380,0.391224
630.520720,0.395186
630.837020,0.393771
631.153280,0.392386
631.469500,0.392056
631.785680,0.396926
632.101820,0.393546
632.417920,0.391654
632.733980,0.390156
633.050000,0.392662
633.365980,0.387374
633.681920,0.385740
633.997820,0.395995
634.313680,0.390150
634.629500,0.390150
634.945280,0.385044
635.261020,0.390960
635.576720,0.389900
635.892380,0.381063
636.208000,0.387565
636.523580,0.393452
636.839120,0.388825
637.154620,0.388116
637.470080,0.382496
637.785500,0.393025
638.100880,0.389806
638.416220,0.385677
638.731520,0.385673
639.046780,0.381590
639.362000,0.386181
639.677180,0.385494
639.992320,0.384832
640.307420,0.388311
640.622480,0.379446
640.937500,0.385576
641.252480,0.383692
641.567420,0.393009
641.882320,0.385022
642.197180,0.386861
642.512000,0.390148
642.826780,0.377531
643.141520,0.385107
643.456220,0.387382
643.770880,0.389718
644.085500,0.389044
644.400080,0.393258
644.714620,0.386845
645.029120,0.385589
645.343580,0.387274
645.658000,0.384957
645.972380,0.386681
646.286720,0.391660
646.601020,0.390257
646.915280,0.385248
647.229500,0.387912
647.543680,0.384148
647.857820,0.385356
648.171920,0.383885
648.485980,0.386681
648.800000,0.382199
649.113980,0.386364
649.427920,0.392233
649.741820,0.385820
650.055680,0.387548
650.369500,0.396300
650.683280,0.389845
650.997020,0.392739
651.310720,0.383324
651.624380,0.388736
651.938000,0.390305
652.251580,0.390760
652.565120,0.385411
652.878620,0.388514
653.192080,0.389326
653.505500,0.391304
653.818880,0.390105
654.132220,0.392196
654.445520,0.394782
654.758780,0.391785
655.072000,0.389398
655.385180,0.388017
655.698320,0.390683
656.011420,0.390656
656.324480,0.396386
656.637500,0.394844
656.950480,0.394598
657.263420,0.395211
657.576320,0.398458
657.889180,0.394279
658.202000,0.397645
658.514780,0.400119
658.827520,0.397059
659.140220,0.402158
659.452880,0.398369
659.765500,0.396147
660.078080,0.399338
660.390620,0.397800
660.703120,0.401161
661.015580,0.400613
661.328000,0.405227
661.640380,0.408512
661.952720,0.404858
662.265020,0.407372
662.577280,0.407443
662.889500,0.406812
663.201680,0.403638
663.513820,0.403023
663.825920,0.411143
664.137980,0.413704
664.450000,0.403453
664.761980,0.410147
665.073920,0.405063
665.385820,0.415249
665.697680,0.410248
666.009500,0.417692
666.321280,0.416501
666.633020,0.410572
666.944720,0.417256
667.256380,0.414872
667.568000,0.412024
667.879580,0.423129
668.191120,0.424107
668.502620,0.415953
668.814080,0.426316
669.125500,0.421143
669.436880,0.421162
669.748220,0.424022
670.059520,0.426821
670.370780,0.427627
670.682000,0.427257
670.993180,0.425300
671.304320,0.425105
671.615420,0.424716
671.926480,0.424414
672.237500,0.427295
672.548480,0.432931
672.859420,0.427091
673.170320,0.424012
673.481180,0.442433
673.792000,0.428056
674.102780,0.436625
674.413520,0.437477
674.724220,0.431942
675.034880,0.439677
675.345500,0.432166
675.656080,0.445009
675.966620,0.437250
676.277120,0.441596
676.587580,0.440353
676.898000,0.442329
677.208380,0.439926
677.518720,0.433990
677.829020,0.443829
678.139280,0.447739
678.449500,0.445971
678.759680,0.448483
679.069820,0.442379
679.379920,0.444361
679.689980,0.443372
680.000000,0.446355
680.309980,0.449146
680.619920,0.453616
680.929820,0.453901
681.239680,0.451256
681.549500,0.454444
681.859280,0.457804
682.169020,0.453935
682.478720,0.464847
682.788380,0.460317
683.098000,0.462977
683.407580,0.459287
683.717120,0.460210
684.026620,0.462726
684.336080,0.458128
684.645500,0.459409
684.954880,0.459388
685.264220,0.465459
685.573520,0.466311
685.882780,0.471807
686.192000,0.467269
686.501180,0.468029
686.810320,0.465027
687.119420,0.458761
687.428480,0.468667
687.737500,0.473906
688.046480,0.474310
688.355420,0.475670
688.664320,0.474751
688.973180,0.471669
689.282000,0.476080
689.590780,0.477761
689.899520,0.460311
690.208220,0.465979
690.516880,0.475754
690.825500,0.473208
691.134080,0.472665
691.442620,0.470655
691.751120,0.479333
692.059580,0.476500
692.368000,0.473684
692.676380,0.485878
692.984720,0.475573
693.293020,0.479863
693.601280,0.479206
693.909500,0.489217
694.217680,0.478675
694.525820,0.474105
694.833920,0.481114
695.141980,0.477054
695.450000,0.485496
695.757980,0.488159
696.065920,0.479223
696.373820,0.483064
696.681680,0.476793
696.989500,0.483211
697.297280,0.479191
697.605020,0.486508
697.912720,0.475404
698.220380,0.478552
698.528000,0.489715
698.835580,0.487554
699.143120,0.485191
699.450620,0.486078
699.758080,0.478824
700.065500,0.483240
700.372880,0.485200
700.680220,0.485042
700.987520,0.490079
701.294780,0.500811
701.602000,0.486529
701.909180,0.496820
702.216320,0.486899
702.523420,0.485793
702.830480,0.483960
703.137500,0.482073
703.444480,0.489152
703.751420,0.490335
704.058320,0.489513
704.365180,0.494479
704.672000,0.480792
704.978780,0.484588
705.285520,0.485524
705.592220,0.486275
705.898880,0.486998
706.205500,0.489828
706.512080,0.488547
706.818620,0.489938
707.125120,0.486923
707.431580,0.473232
707.738000,0.485938
708.044380,0.480124
708.350720,0.481085
708.657020,0.495897
708.963280,0.489907
709.269500,0.489628
709.575680,0.493517
709.881820,0.490173
710.187920,0.487938
710.493980,0.480605
710.800000,0.476735
711.105980,0.473645
711.411920,0.476153
711.717820,0.473684
712.023680,0.471823
712.329500,0.481073
712.635280,0.488760
712.941020,0.475454
713.246720,0.477866
713.552380,0.478807
713.858000,0.479700
714.163580,0.474349
714.469120,0.463462
714.774620,0.478089
715.080080,0.477817
715.385500,0.480016
715.690880,0.471400
715.996220,0.477813
716.301520,0.475889
716.606780,0.477594
716.912000,0.474556
717.217180,0.477654
717.522320,0.470378
717.827420,0.475183
718.132480,0.468888
718.437500,0.474521
718.742480,0.465726
719.047420,0.468447
719.352320,0.472810
719.657180,0.464841
719.962000,0.468569
720.266780,0.467387
720.571520,0.465617
720.876220,0.461538
721.180880,0.471154
721.485500,0.462181
721.790080,0.466242
722.094620,0.473842
722.399120,0.466609
722.703580,0.456922
723.008000,0.465287
723.312380,0.465777
723.616720,0.460688
723.921020,0.457774
724.225280,0.458115
724.529500,0.456217
724.833680,0.471975
725.137820,0.453744
725.441920,0.451181
725.745980,0.459955
726.050000,0.461885
726.353980,0.461469
726.657920,0.456590
726.961820,0.453881
727.265680,0.463708
727.569500,0.446527
727.873280,0.453580
728.177020,0.450944
728.480720,0.445370
728.784380,0.459840
729.088000,0.451719
729.391580,0.452392
729.695120,0.457774
729.998620,0.446941
730.302080,0.446420
730.605500,0.451722
730.908880,0.451249
731.212220,0.440744
731.515520,0.445149
731.818780,0.443689
732.122000,0.447835
732.425180,0.447511
732.728320,0.438770
733.031420,0.449123
733.334480,0.448469
733.637500,0.436996
733.940480,0.445241
734.243420,0.445464
734.546320,0.453838
734.849180,0.439050
735.152000,0.442427
735.454780,0.430785
735.757520,0.444679
736.060220,0.435492
736.362880,0.434349
736.665500,0.433420
736.968080,0.439011
737.270620,0.440936
737.573120,0.428493
737.875580,0.442551
738.178000,0.431138
738.480380,0.430270
738.782720,0.431843
739.085020,0.420705
739.387280,0.437361
739.689500,0.428652
739.991680,0.430095
740.293820,0.440022
740.595920,0.429048
740.897980,0.426877
741.200000,0.435222
741.501980,0.442980
741.803920,0.423986
742.105820,0.423012
742.407680,0.433314
742.709500,0.422727
743.011280,0.433177
743.313020,0.430725
743.614720,0.426582
743.916380,0.424419
744.218000,0.435561
744.519580,0.424517
744.821120,0.439521
745.122620,0.430198
745.424080,0.427284
745.725500,0.433917
746.026880,0.426108
746.328220,0.428483
746.629520,0.422637
746.930780,0.435049
747.232000,0.423666
747.533180,0.422209
747.834320,0.428484
748.135420,0.429459
748.436480,0.424205
748.737500,0.421248
749.038480,0.426390
749.339420,0.433105
749.640320,0.433061
749.941180,0.434728
750.242000,0.434673
750.542780,0.422457
750.843520,0.442024
751.144220,0.437179
751.444880,0.443247
751.745500,0.426623
752.046080,0.429763
752.346620,0.418170
752.647120,0.420640
752.947580,0.419146
753.248000,0.426821
753.548380,0.431360
753.848720,0.434643
754.149020,0.422953
754.449280,0.429416
754.749500,0.422031
755.049680,0.423333
755.349820,0.430287
755.649920,0.433576
755.949980,0.429993
756.250000,0.426693
756.549980,0.418482
756.849920,0.437118
757.149820,0.423154
757.449680,0.423762
757.749500,0.431493
758.049280,0.429352
758.349020,0.426982
758.648720,0.443754
758.948380,0.430241
759.248000,0.427898
759.547580,0.431069
759.847120,0.436940
760.146620,0.442490
760.446080,0.434812
760.745500,0.446154
761.044880,0.439631
761.344220,0.447612
761.643520,0.440678
761.942780,0.430371
762.242000,0.441301
762.541180,0.428169
762.840320,0.435393
763.139420,0.442335
763.438480,0.444976
763.737500,0.440386
764.036480,0.455625
764.335420,0.441073
764.634320,0.434511
764.933180,0.436986
765.232000,0.442748
765.530780,0.443509
765.829520,0.449650
766.128220,0.446764
766.426880,0.457001
766.725500,0.444825
767.024080,0.445816
767.322620,0.455740
767.621120,0.439024
767.919580,0.446416
768.218000,0.452120
768.516380,0.451657
768.814720,0.442387
769.113020,0.450724
769.411280,0.457182
769.709500,0.457375
770.007680,0.445808
770.305820,0.451657
770.603920,0.460243
770.901980,0.457650
771.200000,0.456522
771.497980,0.436327
771.795920,0.460201
772.093820,0.443850
772.391680,0.452868
772.689500,0.451351
772.987280,0.455219
773.285020,0.462064
773.582720,0.468243
773.880380,0.466712
774.178000,0.467621
774.475580,0.472873
774.773120,0.455823
775.070620,0.466531
775.368080,0.475618
775.665500,0.470786
775.962880,0.470314
776.260220,0.477120
776.557520,0.460974
776.854780,0.472617
777.152000,0.475464
777.449180,0.481457
777.746320,0.463710
778.043420,0.482947
778.340480,0.467524
778.637500,0.478026
778.934480,0.474781
779.231420,0.471506
779.528320,0.464930
779.825180,0.465744
780.122000,0.472776
780.418780,0.488372
780.715520,0.470154
781.012220,0.482877
781.308880,0.480054
781.605500,0.473973
781.902080,0.490760
782.198620,0.481887
782.495120,0.496571
782.791580,0.486933
783.088000,0.492754
783.384380,0.484869
783.680720,0.495212
783.977020,0.492085
784.273280,0.497902
784.569500,0.502446
784.865680,0.496523
785.161820,0.491667
785.457920,0.493416
785.753980,0.489184
786.050000,0.494475
786.345980,0.490972
786.641920,0.485080
786.937820,0.506410
787.233680,0.502436
787.529500,0.499307
787.825280,0.500708
788.121020,0.499292
788.416720,0.492590
788.712380,0.500000
789.008000,0.487960
789.303580,0.501767
789.599120,0.508364
789.894620,0.505415
790.190080,0.513416
790.485500,0.518359
790.780880,0.506093
791.076220,0.508658
791.371520,0.515614
791.666780,0.513455
791.962000,0.522410
792.257180,0.501464
792.552320,0.525743
792.847420,0.505822
793.142480,0.515018
793.437500,0.518090
793.732480,0.520117
794.027420,0.510386
794.322320,0.527218
794.617180,0.518574
794.912000,0.526746
795.206780,0.516779
795.501520,0.533080
795.796220,0.501481
796.090880,0.523738
796.385500,0.530735
796.680080,0.537771
796.974620,0.524701
797.269120,0.512491
797.563580,0.530534
797.858000,0.532270
798.152380,0.542150
798.446720,0.536154
798.741020,0.530046
799.035280,0.528727
799.329500,0.532717
799.623680,0.535659
