399.985280,0.202703
400.329500,0.162162
400.673680,0.189873
401.017820,0.205882
401.361920,0.181818
401.705980,0.207317
402.050000,0.194805
402.393980,0.270588
402.737920,0.269663
403.081820,0.257732
403.425680,0.197674
403.769500,0.177083
404.113280,0.172414
404.457020,0.303371
404.800720,0.163043
405.144380,0.262626
405.488000,0.215054
405.831580,0.226804
406.175120,0.223404
406.518620,0.230000
406.862080,0.226804
407.205500,0.156250
407.548880,0.214286
407.892220,0.156863
408.235520,0.297872
408.578780,0.190476
408.922000,0.192308
409.265180,0.232323
409.608320,0.191919
409.951420,0.268041
410.294480,0.284314
410.637500,0.173913
410.980480,0.245098
411.323420,0.193878
411.666320,0.229358
412.009180,0.227273
412.352000,0.207921
412.694780,0.220183
413.037520,0.165138
413.380220,0.198198
413.722880,0.276786
414.065500,0.216216
414.408080,0.185841
414.750620,0.212389
415.093120,0.206612
415.435580,0.218487
415.778000,0.227273
416.120380,0.201681
416.462720,0.190476
416.805020,0.240602
417.147280,0.216418
417.489500,0.221429
417.831680,0.226027
418.173820,0.212766
418.515920,0.223776
418.857980,0.246835
419.200000,0.205128
419.541980,0.242604
419.883920,0.213483
420.225820,0.208092
420.567680,0.189944
420.909500,0.196721
421.251280,0.234375
421.593020,0.224490
421.934720,0.186869
422.276380,0.179487
422.618000,0.210784
422.959580,0.210784
423.301120,0.237443
423.642620,0.195652
423.984080,0.218605
424.325500,0.228700
424.666880,0.219828
425.008220,0.214286
425.349520,0.207627
425.690780,0.223077
426.032000,0.203922
426.373180,0.207469
426.714320,0.218750
427.055420,0.212355
427.396480,0.224719
427.737500,0.189723
428.078480,0.225296
428.419420,0.204819
428.760320,0.203065
429.101180,0.228346
429.442000,0.222222
429.782780,0.200000
430.123520,0.231373
430.464220,0.214022
430.804880,0.272031
431.145500,0.192727
431.486080,0.224719
431.826620,0.213178
432.167120,0.238971
432.507580,0.217391
432.848000,0.223022
433.188380,0.234657
433.528720,0.207547
433.869020,0.228571
434.209280,0.207018
434.549500,0.219512
434.889680,0.212121
435.229820,0.208191
435.569920,0.179931
435.909980,0.213592
436.250000,0.216949
436.589980,0.201238
436.929920,0.228571
437.269820,0.200627
437.609680,0.221893
437.949500,0.225904
438.289280,0.209632
438.629020,0.223837
438.968720,0.229651
439.308380,0.205962
439.648000,0.216438
439.987580,0.214286
440.327120,0.240000
440.666620,0.210390
441.006080,0.227621
441.345500,0.206388
441.684880,0.210526
442.024220,0.210918
442.363520,0.204762
442.702780,0.220455
443.042000,0.202643
443.381180,0.221983
443.720320,0.226782
444.059420,0.212185
444.398480,0.211297
444.737500,0.213115
445.076480,0.224206
445.415420,0.217565
445.754320,0.216216
446.093180,0.209174
446.432000,0.218045
446.770780,0.214421
447.109520,0.224265
447.448220,0.236136
447.786880,0.236136
448.125500,0.232759
448.464080,0.217857
448.802620,0.228723
449.141120,0.226644
449.479580,0.218531
449.818000,0.218589
450.156380,0.207358
450.494720,0.228099
450.833020,0.230769
451.171280,0.217466
451.509500,0.235192
451.847680,0.209106
452.185820,0.223752
452.523920,0.240550
452.861980,0.236088
453.200000,0.227575
453.537980,0.218487
453.875920,0.218487
454.213820,0.229452
454.551680,0.225166
454.889500,0.232715
455.227280,0.215302
455.565020,0.224456
455.902720,0.241265
456.240380,0.209651
456.578000,0.233449
456.915580,0.224525
457.253120,0.223684
457.590620,0.236453
457.928080,0.230640
458.265500,0.219595
458.602880,0.209416
458.940220,0.225042
459.277520,0.220800
459.614780,0.225859
459.952000,0.218944
460.289180,0.242089
460.626320,0.233071
460.963420,0.234249
461.300480,0.233945
461.637500,0.226502
461.974480,0.241590
462.311420,0.235469
462.648320,0.218155
462.985180,0.236729
463.322000,0.239583
463.658780,0.227901
463.995520,0.229711
464.332220,0.236842
464.668880,0.241935
465.005500,0.225201
465.342080,0.225352
465.678620,0.225092
466.015120,0.227684
466.351580,0.238938
466.688000,0.228989
467.024380,0.233293
467.360720,0.229545
467.697020,0.241458
468.033280,0.237778
468.369500,0.240618
468.705680,0.234498
469.041820,0.229167
469.377920,0.233189
469.713980,0.234809
470.050000,0.241546
470.385980,0.234834
470.721920,0.235064
471.057820,0.232943
471.393680,0.231057
471.729500,0.229842
472.065280,0.241503
472.401020,0.230496
472.736720,0.237347
473.072380,0.239677
473.408000,0.237598
473.743580,0.220588
474.079120,0.237726
474.414620,0.232400
474.750080,0.232710
475.085500,0.240132
475.420880,0.237302
475.756220,0.227310
476.091520,0.236999
476.426780,0.228155
476.762000,0.231698
477.097180,0.232800
477.432320,0.235057
477.767420,0.235294
478.102480,0.229921
478.437500,0.231527
478.772480,0.234043
479.107420,0.230269
479.442320,0.223821
479.777180,0.233890
480.112000,0.229584
480.446780,0.234606
480.781520,0.234300
481.116220,0.233630
481.450880,0.231850
481.785500,0.232595
482.120080,0.240596
482.454620,0.235431
482.789120,0.236465
483.123580,0.235202
483.458000,0.236551
483.792380,0.241214
484.126720,0.235521
484.461020,0.240437
484.795280,0.242868
485.129500,0.242401
485.463680,0.241085
485.797820,0.248056
486.131920,0.237184
486.465980,0.238610
486.800000,0.245802
487.133980,0.237160
487.467920,0.246366
487.801820,0.250191
488.135680,0.243366
488.469500,0.242814
488.803280,0.249629
489.137020,0.241026
489.470720,0.244065
489.804380,0.250186
490.138000,0.251484
490.471580,0.251290
490.805120,0.240172
491.138620,0.247335
491.472080,0.242403
491.805500,0.248954
492.138880,0.261293
492.472220,0.245675
492.805520,0.256983
493.138780,0.252929
493.472000,0.254181
493.805180,0.247613
494.138320,0.257505
494.471420,0.255859
494.804480,0.254851
495.137500,0.260591
495.470480,0.264500
495.803420,0.255038
496.136320,0.262531
496.469180,0.258441
496.802000,0.257335
497.134780,0.263190
497.467520,0.266667
497.800220,0.261203
498.132880,0.262787
498.465500,0.259560
498.798080,0.264840
499.130620,0.263897
499.463120,0.266704
499.795580,0.257426
500.128000,0.270300
500.460380,0.268030
500.792720,0.264581
501.125020,0.266947
501.457280,0.266319
501.789500,0.268079
502.121680,0.278383
502.453820,0.268740
502.785920,0.272136
503.117980,0.270854
503.450000,0.282772
503.781980,0.278027
504.113920,0.262684
504.445820,0.266894
504.777680,0.276706
505.109500,0.277885
505.441280,0.272945
505.773020,0.274307
506.104720,0.277438
506.436380,0.280644
506.768000,0.282975
507.099580,0.273684
507.431120,0.280562
507.762620,0.281955
508.094080,0.282133
508.425500,0.288515
508.756880,0.280750
509.088220,0.283809
509.419520,0.274209
509.750780,0.285380
510.082000,0.278451
510.413180,0.285122
510.744320,0.281178
511.075420,0.280477
511.406480,0.285849
511.737500,0.277315
512.068480,0.278195
512.399420,0.284977
512.730320,0.274827
513.061180,0.284491
513.392000,0.281590
513.722780,0.288665
514.053520,0.284140
514.384220,0.284491
514.714880,0.291048
515.045500,0.277299
515.376080,0.281840
515.706620,0.282513
516.037120,0.282353
516.367580,0.284377
516.698000,0.281373
517.028380,0.287488
517.358720,0.282469
517.689020,0.287834
518.019280,0.281485
518.349500,0.283325
518.679680,0.287229
519.009820,0.283401
519.339920,0.292585
519.669980,0.283777
520.000000,0.285787
520.329980,0.288751
520.659920,0.285276
520.989820,0.292570
521.319680,0.285494
521.649500,0.282262
521.979280,0.293841
522.309020,0.287344
522.638720,0.289299
522.968380,0.289038
523.298000,0.288100
523.627580,0.286601
523.957120,0.285195
524.286620,0.287650
524.616080,0.285419
524.945500,0.286305
525.274880,0.288866
525.604220,0.289337
525.933520,0.288260
526.262780,0.282818
526.592000,0.286657
526.921180,0.285932
527.250320,0.281076
527.579420,0.294593
527.908480,0.294929
528.237500,0.291460
528.566480,0.291417
528.895420,0.288812
529.224320,0.290738
529.553180,0.284819
529.882000,0.299270
530.210780,0.285714
530.539520,0.287632
530.868220,0.285783
531.196880,0.293837
531.525500,0.292494
531.854080,0.288931
532.182620,0.281177
532.511120,0.290951
532.839580,0.296733
533.168000,0.295351
533.496380,0.294064
533.824720,0.288022
534.153020,0.290682
534.481280,0.289868
534.809500,0.297713
535.137680,0.287760
535.465820,0.295103
535.793920,0.293993
536.121980,0.290810
536.450000,0.292600
536.777980,0.293255
537.105920,0.291407
537.433820,0.297463
537.761680,0.296327
538.089500,0.290571
538.417280,0.296856
538.745020,0.296355
539.072720,0.295588
539.400380,0.295649
539.728000,0.294073
540.055580,0.294382
540.383120,0.294118
540.710620,0.296875
541.038080,0.299520
541.365500,0.297794
541.692880,0.303416
542.020220,0.304066
542.347520,0.302943
542.674780,0.299577
543.002000,0.299160
543.329180,0.311119
543.656320,0.305907
543.983420,0.298462
544.310480,0.301393
544.637500,0.311839
544.964480,0.303836
545.291420,0.302094
545.618320,0.301461
545.945180,0.302241
546.272000,0.308322
546.598780,0.303179
546.925520,0.306297
547.252220,0.312644
547.578880,0.313131
547.905500,0.309150
548.232080,0.309292
548.558620,0.312073
548.885120,0.308799
549.211580,0.312761
549.538000,0.313554
549.864380,0.319293
550.190720,0.321279
550.517020,0.321382
550.843280,0.321824
551.169500,0.313931
551.495680,0.316032
551.821820,0.327564
552.147920,0.320755
552.473980,0.322687
552.800000,0.324068
553.125980,0.326785
553.451920,0.325149
553.777820,0.324450
554.103680,0.327267
554.429500,0.318045
554.755280,0.336782
555.081020,0.325869
555.406720,0.331189
555.732380,0.330058
556.058000,0.337067
556.383580,0.331736
556.709120,0.334597
557.034620,0.328970
557.360080,0.337133
557.685500,0.342669
558.010880,0.334142
558.336220,0.332513
558.661520,0.342432
558.986780,0.341602
559.312000,0.345085
559.637180,0.346140
559.962320,0.339623
560.287420,0.343441
560.612480,0.343021
560.937500,0.345448
561.262480,0.341276
561.587420,0.343489
561.912320,0.351511
562.237180,0.342709
562.562000,0.347924
562.886780,0.353029
563.211520,0.348733
563.536220,0.347681
563.860880,0.351943
564.185500,0.351220
564.510080,0.358164
564.834620,0.346855
565.159120,0.351128
565.483580,0.355378
565.808000,0.357170
566.132380,0.359194
566.456720,0.358655
566.781020,0.353713
567.105280,0.359924
567.429500,0.358877
567.753680,0.354430
568.077820,0.359876
568.401920,0.367074
568.725980,0.363188
569.050000,0.364639
569.373980,0.357442
569.697920,0.366705
570.021820,0.364794
570.345680,0.367777
570.669500,0.363983
570.993280,0.365079
571.317020,0.364267
571.640720,0.363468
571.964380,0.370824
572.288000,0.366469
572.611580,0.374766
572.935120,0.364385
573.258620,0.366492
573.582080,0.371461
573.905500,0.369695
574.228880,0.372309
574.552220,0.373030
574.875520,0.370439
575.198780,0.367907
575.522000,0.372801
575.845180,0.360673
576.168320,0.370464
576.491420,0.376453
576.814480,0.368897
577.137500,0.369048
577.460480,0.372961
577.783420,0.370489
578.106320,0.374644
578.429180,0.374691
578.752000,0.366099
579.074780,0.373904
579.397520,0.372821
579.720220,0.375483
580.042880,0.378593
580.365500,0.378557
580.688080,0.378223
581.010620,0.369220
581.333120,0.377756
581.655580,0.373626
581.978000,0.375457
582.300380,0.367413
582.622720,0.382334
582.945020,0.381339
583.267280,0.373820
583.589500,0.371750
583.911680,0.375675
584.233820,0.371734
584.555920,0.371573
584.877980,0.370603
585.200000,0.364641
585.521980,0.379364
585.843920,0.371568
586.165820,0.368068
586.487680,0.373759
586.809500,0.372337
587.131280,0.362615
587.453020,0.372024
587.774720,0.369308
588.096380,0.372229
588.418000,0.373427
588.739580,0.374533
589.061120,0.370903
589.382620,0.370201
589.704080,0.369144
590.025500,0.372146
590.346880,0.372400
590.668220,0.373565
590.989520,0.367998
591.310780,0.365645
591.632000,0.367213
591.953180,0.365347
592.274320,0.363090
592.595420,0.361800
592.916480,0.368106
593.237500,0.374023
593.558480,0.370460
593.879420,0.369301
594.200320,0.363515
594.521180,0.370784
594.842000,0.368350
595.162780,0.362714
595.483520,0.366392
595.804220,0.368958
596.124880,0.364508
596.445500,0.358397
596.766080,0.366496
597.086620,0.364384
597.407120,0.363086
597.727580,0.364890
598.048000,0.364718
598.368380,0.363493
598.688720,0.360419
599.009020,0.361465
599.329280,0.364290
599.649500,0.358162
599.969680,0.361111
600.289820,0.366186
600.609920,0.359070
600.929980,0.362908
601.250000,0.355676
601.569980,0.352957
601.889920,0.357926
602.209820,0.355249
602.529680,0.366108
602.849500,0.358974
603.169280,0.359879
603.489020,0.354830
603.808720,0.362315
604.128380,0.362307
604.448000,0.356077
604.767580,0.361173
605.087120,0.359557
605.406620,0.363000
605.726080,0.366695
606.045500,0.351630
606.364880,0.356394
606.684220,0.365505
607.003520,0.359518
607.322780,0.357305
607.642000,0.363297
607.961180,0.363689
608.280320,0.363689
608.599420,0.353129
608.918480,0.361290
609.237500,0.360622
609.556480,0.359870
609.875420,0.360898
610.194320,0.360791
610.513180,0.359278
610.832000,0.365098
611.150780,0.367978
611.469520,0.367421
611.788220,0.363966
612.106880,0.366707
612.425500,0.364190
612.744080,0.368113
613.062620,0.364220
613.381120,0.360451
613.699580,0.377376
614.018000,0.371622
614.336380,0.379087
614.654720,0.364031
614.973020,0.365628
615.291280,0.371243
615.609500,0.379398
615.927680,0.372991
616.245820,0.372294
616.563920,0.370532
616.881980,0.378547
617.200000,0.376983
617.517980,0.371811
617.835920,0.371855
618.153820,0.382344
618.471680,0.382016
618.789500,0.382945
619.107280,0.381221
619.425020,0.383127
619.742720,0.380100
620.060380,0.380758
620.378000,0.385777
620.695580,0.384419
621.013120,0.382362
621.330620,0.388139
621.648080,0.381703
621.965500,0.386449
622.282880,0.390605
622.600220,0.385976
622.917520,0.391304
623.234780,0.401479
623.552000,0.394017
623.869180,0.398361
624.186320,0.396052
624.503420,0.398119
624.820480,0.397110
625.137500,0.399432
625.454480,0.400438
625.771420,0.399433
626.088320,0.402900
626.405180,0.406347
626.722000,0.405897
627.038780,0.404449
627.355520,0.406562
627.672220,0.411198
627.988880,0.407154
628.305500,0.411655
628.622080,0.415737
628.938620,0.419878
629.255120,0.408836
629.571580,0.408826
629.888000,0.411169
630.204380,0.410249
630.520720,0.415296
630.837020,0.425532
631.153280,0.417866
631.469500,0.419042
631.785680,0.419530
632.101820,0.426116
632.417920,0.420566
632.733980,0.415666
633.050000,0.425106
633.365980,0.431832
633.681920,0.428103
633.997820,0.432457
634.313680,0.427897
634.629500,0.430846
634.945280,0.428152
635.261020,0.434987
635.576720,0.438050
635.892380,0.433924
636.208000,0.433759
636.523580,0.437884
636.839120,0.434279
637.154620,0.444058
637.470080,0.439024
637.785500,0.435229
638.100880,0.444541
638.416220,0.439747
638.731520,0.435817
639.046780,0.446257
639.362000,0.449541
639.677180,0.448601
639.992320,0.447702
640.307420,0.442540
640.622480,0.449174
640.937500,0.454924
641.252480,0.455459
641.567420,0.452401
641.882320,0.451281
642.197180,0.462661
642.512000,0.454800
642.826780,0.454924
643.141520,0.461795
643.456220,0.457665
643.770880,0.459370
644.085500,0.463667
644.400080,0.464326
644.714620,0.461817
645.029120,0.462596
645.343580,0.466264
645.658000,0.465445
645.972380,0.465881
646.286720,0.462796
646.601020,0.464988
646.915280,0.471621
647.229500,0.464286
647.543680,0.471693
647.857820,0.470685
648.171920,0.467716
648.485980,0.476843
648.800000,0.466795
649.113980,0.472561
649.427920,0.471567
649.741820,0.466062
650.055680,0.476413
650.369500,0.472814
650.683280,0.469478
650.997020,0.474422
651.310720,0.473032
651.624380,0.471703
651.938000,0.479224
652.251580,0.479822
652.565120,0.468139
652.878620,0.480011
653.192080,0.477528
653.505500,0.475736
653.818880,0.478249
654.132220,0.474509
654.445520,0.474759
654.758780,0.471388
655.072000,0.474785
655.385180,0.471612
655.698320,0.470992
656.011420,0.472342
656.324480,0.477120
656.637500,0.474508
656.950480,0.473576
657.263420,0.477091
657.576320,0.479692
657.889180,0.479505
658.202000,0.480978
658.514780,0.476332
658.827520,0.475690
659.140220,0.475877
659.452880,0.479613
659.765500,0.475617
660.078080,0.462534
660.390620,0.466239
660.703120,0.470516
661.015580,0.481595
661.328000,0.475756
661.640380,0.468468
661.952720,0.467456
662.265020,0.480466
662.577280,0.470420
662.889500,0.468307
663.201680,0.472559
663.513820,0.475394
663.825920,0.473583
664.137980,0.473174
664.450000,0.472826
664.761980,0.471358
665.073920,0.467705
665.385820,0.467932
665.697680,0.469091
666.009500,0.477220
666.321280,0.471836
666.633020,0.466090
666.944720,0.470509
667.256380,0.460633
667.568000,0.458560
667.879580,0.470068
668.191120,0.474588
668.502620,0.466963
668.814080,0.473684
669.125500,0.462881
669.436880,0.459889
669.748220,0.466944
670.059520,0.464286
670.370780,0.463118
670.682000,0.468319
670.993180,0.464059
671.304320,0.462729
671.615420,0.457741
671.926480,0.461320
672.237500,0.456592
672.548480,0.458836
672.859420,0.458542
673.170320,0.459920
673.481180,0.460174
673.792000,0.456185
674.102780,0.449910
674.413520,0.455341
674.724220,0.446098
675.034880,0.461313
675.345500,0.456966
675.656080,0.447913
675.966620,0.447435
676.277120,0.454778
676.587580,0.452504
676.898000,0.451288
677.208380,0.448059
677.518720,0.446025
677.829020,0.448263
678.139280,0.451075
678.449500,0.447085
678.759680,0.450356
679.069820,0.444981
679.379920,0.447001
679.689980,0.443743
680.000000,0.441869
680.309980,0.440238
680.619920,0.436956
680.929820,0.441209
681.239680,0.434269
681.549500,0.431852
681.859280,0.448096
682.169020,0.438269
682.478720,0.444652
682.788380,0.437800
683.098000,0.432311
683.407580,0.433771
683.717120,0.430556
684.026620,0.431852
684.336080,0.438803
684.645500,0.430228
684.954880,0.426898
685.264220,0.436391
685.573520,0.431671
685.882780,0.438435
686.192000,0.430775
686.501180,0.427923
686.810320,0.436972
687.119420,0.432155
687.428480,0.428029
687.737500,0.437452
688.046480,0.428681
688.355420,0.429272
688.664320,0.429610
688.973180,0.429939
689.282000,0.422454
689.590780,0.427914
689.899520,0.417774
690.208220,0.428135
690.516880,0.425353
690.825500,0.429434
691.134080,0.416097
691.442620,0.428735
691.751120,0.424725
692.059580,0.426442
692.368000,0.415373
692.676380,0.412977
692.984720,0.420611
693.293020,0.419833
693.601280,0.420832
693.909500,0.421491
694.217680,0.422696
694.525820,0.420030
694.833920,0.425029
695.141980,0.421905
695.450000,0.419466
695.757980,0.419404
696.065920,0.421359
696.373820,0.420708
696.681680,0.419256
696.989500,0.413740
697.297280,0.415792
697.605020,0.426587
697.912720,0.413144
698.220380,0.411649
698.528000,0.415744
698.835580,0.419597
699.143120,0.414653
699.450620,0.419650
699.758080,0.415294
700.065500,0.416201
700.372880,0.414000
700.680220,0.410850
700.987520,0.421429
701.294780,0.427007
701.602000,0.413629
701.909180,0.426073
702.216320,0.419632
702.523420,0.423836
702.830480,0.427327
703.137500,0.408028
703.444480,0.419329
703.751420,0.420907
704.058320,0.421844
704.365180,0.416009
704.672000,0.417822
704.978780,0.420211
705.285520,0.420579
705.592220,0.423922
705.898880,0.419228
706.205500,0.417449
706.512080,0.424961
706.818620,0.422988
707.125120,0.415769
707.431580,0.424385
707.738000,0.435937
708.044380,0.425704
708.350720,0.419564
708.657020,0.426729
708.963280,0.427407
709.269500,0.428571
709.575680,0.432220
709.881820,0.430425
710.187920,0.435019
710.493980,0.429791
710.800000,0.426392
711.105980,0.422816
711.411920,0.430035
711.717820,0.428070
712.023680,0.422853
712.329500,0.433360
712.635280,0.431008
712.941020,0.439119
713.246720,0.435573
713.552380,0.435636
713.858000,0.434371
714.163580,0.428571
714.469120,0.427902
714.774620,0.437031
715.080080,0.440126
715.385500,0.438449
715.690880,0.427219
715.996220,0.436212
716.301520,0.433597
716.606780,0.437893
716.912000,0.443457
717.217180,0.450918
717.522320,0.438569
717.827420,0.446298
718.132480,0.444400
718.437500,0.445985
718.742480,0.450000
719.047420,0.453883
719.352320,0.455376
719.657180,0.448896
719.962000,0.443342
720.266780,0.451600
720.571520,0.448633
720.876220,0.443944
721.180880,0.455268
721.485500,0.459256
721.790080,0.461996
722.094620,0.465266
722.399120,0.460146
722.703580,0.455637
723.008000,0.466149
723.312380,0.462764
723.616720,0.460688
723.921020,0.447813
724.225280,0.450698
724.529500,0.461909
724.833680,0.465747
725.137820,0.462996
725.441920,0.460990
725.745980,0.464877
726.050000,0.474966
726.353980,0.471384
726.657920,0.471885
726.961820,0.468493
727.265680,0.470180
727.569500,0.476691
727.873280,0.475751
728.177020,0.476278
728.480720,0.475000
728.784380,0.478159
729.088000,0.471032
729.391580,0.477499
729.695120,0.487044
729.998620,0.484226
730.302080,0.476213
730.605500,0.487627
730.908880,0.487016
731.212220,0.485309
731.515520,0.481229
731.818780,0.485922
732.122000,0.489173
732.425180,0.476097
732.728320,0.479921
733.031420,0.483208
733.334480,0.483163
733.637500,0.482863
733.940480,0.495394
734.243420,0.492864
734.546320,0.493776
734.849180,0.489669
735.152000,0.499481
735.454780,0.490702
735.757520,0.493678
736.060220,0.497630
736.362880,0.494748
736.665500,0.495039
736.968080,0.493821
737.270620,0.517148
737.573120,0.508734
737.875580,0.507971
738.178000,0.510071
738.480380,0.515135
738.782720,0.504362
739.085020,0.501101
739.387280,0.504989
739.689500,0.507928
739.991680,0.512633
740.293820,0.506910
740.595920,0.503061
740.897980,0.516657
741.200000,0.512058
741.501980,0.524355
741.803920,0.505631
742.105820,0.511562
742.407680,0.528247
742.709500,0.507955
743.011280,0.521688
743.313020,0.523478
743.614720,0.511898
743.916380,0.523256
744.218000,0.528043
744.519580,0.524155
744.821120,0.544910
745.122620,0.524865
745.424080,0.522236
745.725500,0.523838
746.026880,0.532635
746.328220,0.533292
746.629520,0.527995
746.930780,0.530025
747.232000,0.530963
747.533180,0.531422
747.834320,0.539866
748.135420,0.533872
748.436480,0.535246
748.737500,0.521309
749.038480,0.523519
749.339420,0.545115
749.640320,0.534884
749.941180,0.535915
750.242000,0.540829
750.542780,0.535980
750.843520,0.554773
751.144220,0.539744
751.444880,0.544071
751.745500,0.542208
752.046080,0.547787
752.346620,0.548325
752.647120,0.549314
752.947580,0.540750
753.248000,0.553836
753.548380,0.540013
753.848720,0.553767
754.149020,0.536428
754.449280,0.557452
754.749500,0.538155
755.049680,0.537333
755.349820,0.549033
755.649920,0.546596
755.949980,0.548109
756.250000,0.554898
756.549980,0.551155
756.849920,0.557444
757.149820,0.541583
757.449680,0.546535
757.749500,0.559646
758.049280,0.556314
758.349020,0.559110
758.648720,0.550035
758.948380,0.552577
759.248000,0.555930
759.547580,0.557498
759.847120,0.554101
760.146620,0.548714
760.446080,0.557124
760.745500,0.565035
761.044880,0.554687
761.344220,0.555239
761.643520,0.554379
761.942780,0.555633
762.242000,0.566478
762.541180,0.552113
762.840320,0.555478
763.139420,0.566807
763.438480,0.558442
763.737500,0.563749
764.036480,0.565339
764.335420,0.558222
764.634320,0.556480
764.933180,0.565753
765.232000,0.568355
765.530780,0.564211
765.829520,0.565734
766.128220,0.565066
766.426880,0.557925
766.725500,0.559287
767.024080,0.554870
767.322620,0.555325
767.621120,0.559621
767.919580,0.556314
768.218000,0.566347
768.516380,0.564571
768.814720,0.561728
769.113020,0.566506
769.411280,0.572514
769.709500,0.568336
770.007680,0.553511
770.305820,0.561190
770.603920,0.551213
770.901980,0.570355
771.200000,0.552310
771.497980,0.554290
771.795920,0.560535
772.093820,0.551471
772.391680,0.562294
772.689500,0.583108
772.987280,0.562290
773.285020,0.559125
773.582720,0.556757
773.880380,0.560055
774.178000,0.562372
774.475580,0.555928
774.773120,0.554217
775.070620,0.560514
775.368080,0.565130
775.665500,0.554735
775.962880,0.552368
776.260220,0.571332
776.557520,0.570380
776.854780,0.562542
777.152000,0.546419
777.449180,0.561025
777.746320,0.552419
778.043420,0.550477
778.340480,0.558863
778.637500,0.563895
778.934480,0.556826
779.231420,0.552239
779.528320,0.547762
779.825180,0.540843
780.122000,0.553121
780.418780,0.558824
780.715520,0.548625
781.012220,0.564384
781.308880,0.555781
781.605500,0.561644
781.902080,0.557153
782.198620,0.558442
782.495120,0.556241
782.791580,0.563961
783.088000,0.553485
783.384380,0.557772
783.680720,0.543092
783.977020,0.538885
784.273280,0.553147
784.569500,0.558351
784.865680,0.535466
785.161820,0.538889
785.457920,0.551629
785.753980,0.549895
786.050000,0.549033
786.345980,0.530556
786.641920,0.541985
786.937820,0.554843
787.233680,0.531663
787.529500,0.539528
787.825280,0.553824
788.121020,0.529745
788.416720,0.546930
788.712380,0.542313
789.008000,0.529037
789.303580,0.529329
789.599120,0.548364
789.894620,0.542238
790.190080,0.541697
790.485500,0.531317
790.780880,0.539785
791.076220,0.523810
791.371520,0.528686
791.666780,0.541818
791.962000,0.528288
792.257180,0.534407
792.552320,0.535896
792.847420,0.534934
793.142480,0.536996
793.437500,0.523155
793.732480,0.528164
794.027420,0.535608
794.322320,0.533184
794.617180,0.523031
794.912000,0.526746
795.206780,0.519761
795.501520,0.537643
795.796220,0.526667
796.090880,0.532027
796.385500,0.515742
796.680080,0.516081
796.974620,0.508982
797.269120,0.506435
797.563580,0.524427
797.858000,0.522399
798.152380,0.520495
798.446720,0.516923
798.741020,0.517720
799.035280,0.522516
799.329500,0.520400
799.623680,0.510078
