399.985280,0.202703
400.329500,0.243243
400.673680,0.202532
401.017820,0.235294
401.361920,0.166667
401.705980,0.195122
402.050000,0.220779
402.393980,0.247059
402.737920,0.258427
403.081820,0.278351
403.425680,0.209302
403.769500,0.187500
404.113280,0.172414
404.457020,0.213483
404.800720,0.184783
405.144380,0.242424
405.488000,0.204301
405.831580,0.257732
406.175120,0.223404
406.518620,0.230000
406.862080,0.226804
407.205500,0.208333
407.548880,0.193878
407.892220,0.215686
408.235520,0.202128
408.578780,0.257143
408.922000,0.201923
409.265180,0.212121
409.608320,0.181818
409.951420,0.247423
410.294480,0.186275
410.637500,0.250000
410.980480,0.254902
411.323420,0.214286
411.666320,0.247706
412.009180,0.236364
412.352000,0.148515
412.694780,0.229358
413.037520,0.238532
413.380220,0.234234
413.722880,0.241071
414.065500,0.198198
414.408080,0.221239
414.750620,0.283186
415.093120,0.198347
415.435580,0.201681
415.778000,0.227273
416.120380,0.184874
416.462720,0.206349
416.805020,0.248120
417.147280,0.238806
417.489500,0.228571
417.831680,0.205479
418.173820,0.248227
418.515920,0.223776
418.857980,0.208861
419.200000,0.237179
419.541980,0.236686
419.883920,0.224719
420.225820,0.260116
420.567680,0.178771
420.909500,0.218579
421.251280,0.250000
421.593020,0.229592
421.934720,0.212121
422.276380,0.241026
422.618000,0.215686
422.959580,0.254902
423.301120,0.251142
423.642620,0.226087
423.984080,0.209302
424.325500,0.224215
424.666880,0.224138
425.008220,0.239496
425.349520,0.207627
425.690780,0.226923
426.032000,0.184314
426.373180,0.215768
426.714320,0.242187
427.055420,0.196911
427.396480,0.224719
427.737500,0.213439
428.078480,0.193676
428.419420,0.220884
428.760320,0.206897
429.101180,0.232283
429.442000,0.229885
429.782780,0.226923
430.123520,0.219608
430.464220,0.239852
430.804880,0.252874
431.145500,0.214545
431.486080,0.232210
431.826620,0.228682
432.167120,0.183824
432.507580,0.221014
432.848000,0.212230
433.188380,0.223827
433.528720,0.218868
433.869020,0.210714
434.209280,0.214035
434.549500,0.222997
434.889680,0.235690
435.229820,0.249147
435.569920,0.238754
435.909980,0.223301
436.250000,0.203390
436.589980,0.207430
436.929920,0.225397
437.269820,0.206897
437.609680,0.230769
437.949500,0.228916
438.289280,0.209632
438.629020,0.218023
438.968720,0.200581
439.308380,0.197832
439.648000,0.230137
439.987580,0.214286
440.327120,0.226667
440.666620,0.215584
441.006080,0.217391
441.345500,0.228501
441.684880,0.203349
442.024220,0.218362
442.363520,0.214286
442.702780,0.211364
443.042000,0.202643
443.381180,0.206897
443.720320,0.226782
444.059420,0.216387
444.398480,0.209205
444.737500,0.227459
445.076480,0.204365
445.415420,0.217565
445.754320,0.218295
446.093180,0.211009
446.432000,0.218045
446.770780,0.225806
447.109520,0.231618
447.448220,0.223614
447.786880,0.230769
448.125500,0.222414
448.464080,0.210714
448.802620,0.210993
449.141120,0.216263
449.479580,0.215035
449.818000,0.227194
450.156380,0.220736
450.494720,0.218182
450.833020,0.229021
451.171280,0.208904
451.509500,0.219512
451.847680,0.210793
452.185820,0.227194
452.523920,0.235395
452.861980,0.219224
453.200000,0.220930
453.537980,0.223529
453.875920,0.240336
454.213820,0.215753
454.551680,0.223510
454.889500,0.224283
455.227280,0.202847
455.565020,0.239531
455.902720,0.237937
456.240380,0.217970
456.578000,0.221254
456.915580,0.226252
457.253120,0.225329
457.590620,0.239737
457.928080,0.239057
458.265500,0.236486
458.602880,0.224026
458.940220,0.214890
459.277520,0.230400
459.614780,0.238953
459.952000,0.228261
460.289180,0.246835
460.626320,0.220472
460.963420,0.224556
461.300480,0.240061
461.637500,0.235747
461.974480,0.238532
462.311420,0.230999
462.648320,0.234261
462.985180,0.223816
463.322000,0.229167
463.658780,0.233425
463.995520,0.242091
464.332220,0.246537
464.668880,0.237903
465.005500,0.234584
465.342080,0.236876
465.678620,0.239852
466.015120,0.232859
466.351580,0.246523
466.688000,0.230207
467.024380,0.238153
467.360720,0.239773
467.697020,0.246014
468.033280,0.251111
468.369500,0.247241
468.705680,0.248027
469.041820,0.243750
469.377920,0.242950
469.713980,0.248198
470.050000,0.252174
470.385980,0.239726
470.721920,0.250735
471.057820,0.247563
471.393680,0.238541
471.729500,0.243744
472.065280,0.246869
472.401020,0.241135
472.736720,0.246073
473.072380,0.251346
473.408000,0.247171
473.743580,0.236159
474.079120,0.246339
474.414620,0.237489
474.750080,0.247356
475.085500,0.245066
475.420880,0.243963
475.756220,0.244481
476.091520,0.248934
476.426780,0.242718
476.762000,0.242961
477.097180,0.249600
477.432320,0.241519
477.767420,0.253268
478.102480,0.248031
478.437500,0.248768
478.772480,0.252167
479.107420,0.246542
479.442320,0.250999
479.777180,0.259348
480.112000,0.240370
480.446780,0.247857
480.781520,0.251208
481.116220,0.250606
481.450880,0.249024
481.785500,0.245253
482.120080,0.250784
482.454620,0.250194
482.789120,0.249204
483.123580,0.251558
483.458000,0.250000
483.792380,0.256390
484.126720,0.251737
484.461020,0.250585
484.795280,0.249036
485.129500,0.254092
485.463680,0.248837
485.797820,0.248056
486.131920,0.247131
486.465980,0.248649
486.800000,0.261832
487.133980,0.246979
487.467920,0.251721
487.801820,0.260107
488.135680,0.251706
488.469500,0.248109
488.803280,0.251857
489.137020,0.247619
489.470720,0.249258
489.804380,0.259837
490.138000,0.251484
490.471580,0.252763
490.805120,0.252323
491.138620,0.249467
491.472080,0.250883
491.805500,0.255927
492.138880,0.248784
492.472220,0.256055
492.805520,0.257682
493.138780,0.257753
493.472000,0.254849
493.805180,0.258527
494.138320,0.259506
494.471420,0.257161
494.804480,0.258085
495.137500,0.252888
495.470480,0.253665
495.803420,0.258186
496.136320,0.255639
496.469180,0.256599
496.802000,0.252445
497.134780,0.255913
497.467520,0.267890
497.800220,0.250590
498.132880,0.253380
498.465500,0.255504
498.798080,0.250000
499.130620,0.256597
499.463120,0.253790
499.795580,0.259626
500.128000,0.257766
500.460380,0.266416
500.792720,0.255567
501.125020,0.255386
501.457280,0.263185
501.789500,0.258781
502.121680,0.264904
502.453820,0.255992
502.785920,0.261131
503.117980,0.266438
503.450000,0.264189
503.781980,0.268560
504.113920,0.263632
504.445820,0.260088
504.777680,0.260235
505.109500,0.263462
505.441280,0.272945
505.773020,0.264913
506.104720,0.264249
506.436380,0.268339
506.768000,0.271282
507.099580,0.264073
507.431120,0.268852
507.762620,0.270207
508.094080,0.270283
508.425500,0.272176
508.756880,0.279378
509.088220,0.272309
509.419520,0.278864
509.750780,0.278351
510.082000,0.276119
510.413180,0.271764
510.744320,0.279798
511.075420,0.275435
511.406480,0.276446
511.737500,0.277315
512.068480,0.279135
512.399420,0.284977
512.730320,0.273441
513.061180,0.288773
513.392000,0.283483
513.722780,0.286263
514.053520,0.287015
514.384220,0.283539
514.714880,0.288655
515.045500,0.282567
515.376080,0.285714
515.706620,0.294204
516.037120,0.291667
516.367580,0.295712
516.698000,0.286765
517.028380,0.292453
517.358720,0.291852
517.689020,0.290801
518.019280,0.294531
518.349500,0.288900
518.679680,0.289753
519.009820,0.300607
519.339920,0.301603
519.669980,0.292315
520.000000,0.305145
520.329980,0.297564
520.659920,0.298569
520.989820,0.307534
521.319680,0.302984
521.649500,0.300257
521.979280,0.306367
522.309020,0.301867
522.638720,0.303635
522.968380,0.302482
523.298000,0.313674
523.627580,0.302638
523.957120,0.309091
524.286620,0.307452
524.616080,0.314891
524.945500,0.304910
525.274880,0.314520
525.604220,0.309006
525.933520,0.311321
526.262780,0.314242
526.592000,0.315576
526.921180,0.312341
527.250320,0.314054
527.579420,0.320364
527.908480,0.315116
528.237500,0.322741
528.566480,0.324351
528.895420,0.317398
529.224320,0.323923
529.553180,0.311807
529.882000,0.320681
530.210780,0.325290
530.539520,0.317354
530.868220,0.319770
531.196880,0.317726
531.525500,0.332203
531.854080,0.318949
532.182620,0.324148
532.511120,0.321114
532.839580,0.322142
533.168000,0.324066
533.496380,0.321005
533.824720,0.327501
534.153020,0.329024
534.481280,0.329956
534.809500,0.324538
535.137680,0.325087
535.465820,0.321735
535.793920,0.329949
536.121980,0.323961
536.450000,0.330655
536.777980,0.335568
537.105920,0.320880
537.433820,0.327741
537.761680,0.336327
538.089500,0.332659
538.417280,0.326303
538.745020,0.336371
539.072720,0.328387
539.400380,0.329060
539.728000,0.328872
540.055580,0.329588
540.383120,0.328369
540.710620,0.328125
541.038080,0.327186
541.365500,0.317279
541.692880,0.328852
542.020220,0.328535
542.347520,0.331658
542.674780,0.325335
543.002000,0.322603
543.329180,0.321642
543.656320,0.331224
543.983420,0.327863
544.310480,0.318043
544.637500,0.334016
544.964480,0.325034
545.291420,0.326022
545.618320,0.323705
545.945180,0.324324
546.272000,0.321429
546.598780,0.318256
546.925520,0.328058
547.252220,0.322549
547.578880,0.322906
547.905500,0.324510
548.232080,0.325861
548.558620,0.319557
548.885120,0.320576
549.211580,0.325297
549.538000,0.322633
549.864380,0.318328
550.190720,0.322893
550.517020,0.322686
550.843280,0.321824
551.169500,0.312659
551.495680,0.319645
551.821820,0.320705
552.147920,0.324008
552.473980,0.317748
552.800000,0.316220
553.125980,0.320236
553.451920,0.322163
553.777820,0.320120
554.103680,0.318841
554.429500,0.321058
554.755280,0.314753
555.081020,0.316845
555.406720,0.316289
555.732380,0.320569
556.058000,0.316361
556.383580,0.317357
556.709120,0.316334
557.034620,0.320014
557.360080,0.312608
557.685500,0.319156
558.010880,0.311265
558.336220,0.312478
558.661520,0.311946
558.986780,0.319631
559.312000,0.313746
559.637180,0.324596
559.962320,0.317907
560.287420,0.315233
560.612480,0.318263
560.937500,0.317915
561.262480,0.313416
561.587420,0.317374
561.912320,0.319455
562.237180,0.318653
562.562000,0.320988
562.886780,0.320327
563.211520,0.321908
563.536220,0.324675
563.860880,0.325160
564.185500,0.323827
564.510080,0.328066
564.834620,0.325270
565.159120,0.327068
565.483580,0.320791
565.808000,0.322361
566.132380,0.321895
566.456720,0.326909
566.781020,0.323331
567.105280,0.320605
567.429500,0.330804
567.753680,0.324895
568.077820,0.324700
568.401920,0.324293
568.725980,0.329412
569.050000,0.332319
569.373980,0.327370
569.697920,0.330300
570.021820,0.332584
570.345680,0.329506
570.669500,0.332697
570.993280,0.331488
571.317020,0.334308
571.640720,0.333457
571.964380,0.331106
572.288000,0.336795
572.611580,0.342943
572.935120,0.339319
573.258620,0.339566
573.582080,0.339791
573.905500,0.341400
574.228880,0.348924
574.552220,0.351044
574.875520,0.347729
575.198780,0.337550
575.522000,0.347874
575.845180,0.344914
576.168320,0.346389
576.491420,0.359012
576.814480,0.353707
577.137500,0.353535
577.460480,0.360275
577.783420,0.355841
578.106320,0.353632
578.429180,0.361965
578.752000,0.352900
579.074780,0.364464
579.397520,0.360878
579.720220,0.358430
580.042880,0.367360
580.365500,0.366976
580.688080,0.370421
581.010620,0.369895
581.333120,0.376754
581.655580,0.371628
581.978000,0.370801
582.300380,0.368062
582.622720,0.374423
582.945020,0.376463
583.267280,0.372843
583.589500,0.381059
583.911680,0.380121
584.233820,0.378030
584.555920,0.378821
584.877980,0.381281
585.200000,0.381522
585.521980,0.384615
585.843920,0.385906
586.165820,0.382389
586.487680,0.387000
586.809500,0.386139
587.131280,0.385980
587.453020,0.397917
587.774720,0.399468
588.096380,0.394107
588.418000,0.392742
588.739580,0.396953
589.061120,0.398217
589.382620,0.399140
589.704080,0.396914
590.025500,0.403824
590.346880,0.408938
590.668220,0.406609
590.989520,0.409872
591.310780,0.406518
591.632000,0.406831
591.953180,0.406587
592.274320,0.405132
592.595420,0.410560
592.916480,0.406411
593.237500,0.409054
593.558480,0.416465
593.879420,0.408417
594.200320,0.419234
594.521180,0.416999
594.842000,0.425309
595.162780,0.419071
595.483520,0.423823
595.804220,0.429646
596.124880,0.424993
596.445500,0.419177
596.766080,0.425383
597.086620,0.425955
597.407120,0.426014
597.727580,0.431451
598.048000,0.427400
598.368380,0.420042
598.688720,0.426212
599.009020,0.424363
599.329280,0.429484
599.649500,0.425779
599.969680,0.427618
600.289820,0.426816
600.609920,0.426129
600.929980,0.430251
601.250000,0.427568
601.569980,0.430732
601.889920,0.425822
602.209820,0.419643
602.529680,0.437517
602.849500,0.432079
603.169280,0.434004
603.489020,0.443122
603.808720,0.435546
604.128380,0.430464
604.448000,0.427348
604.767580,0.434358
605.087120,0.431856
605.406620,0.434929
605.726080,0.437126
606.045500,0.425745
606.364880,0.436348
606.684220,0.436893
607.003520,0.433200
607.322780,0.434338
607.642000,0.437392
607.961180,0.436542
608.280320,0.434745
608.599420,0.426709
608.918480,0.442522
609.237500,0.440434
609.556480,0.443326
609.875420,0.440933
610.194320,0.437555
610.513180,0.436816
610.832000,0.439547
611.150780,0.434965
611.469520,0.434389
611.788220,0.439238
612.106880,0.435163
612.425500,0.437576
612.744080,0.439212
613.062620,0.433639
613.381120,0.435405
613.699580,0.432250
614.018000,0.437039
614.336380,0.436151
614.654720,0.437209
614.973020,0.434742
615.291280,0.431360
615.609500,0.428209
615.927680,0.434796
616.245820,0.429808
616.563920,0.436742
616.881980,0.435298
617.200000,0.432970
617.517980,0.429060
617.835920,0.430568
618.153820,0.427106
618.471680,0.426047
618.789500,0.428886
619.107280,0.425352
619.425020,0.434190
619.742720,0.426240
620.060380,0.424005
620.378000,0.424795
620.695580,0.433908
621.013120,0.427402
621.330620,0.429244
621.648080,0.416404
621.965500,0.426913
622.282880,0.421185
622.600220,0.419457
622.917520,0.434783
623.234780,0.429122
623.552000,0.429981
623.869180,0.423259
624.186320,0.422477
624.503420,0.424451
624.820480,0.420044
625.137500,0.427534
625.454480,0.416693
625.771420,0.422131
626.088320,0.424968
626.405180,0.417859
626.722000,0.417503
627.038780,0.414787
627.355520,0.412187
627.672220,0.409642
627.988880,0.411509
628.305500,0.419134
628.622080,0.416667
628.938620,0.412844
629.255120,0.410081
629.571580,0.407907
629.888000,0.407794
630.204380,0.410862
630.520720,0.408897
630.837020,0.410422
631.153280,0.407374
631.469500,0.412068
631.785680,0.408379
632.101820,0.404704
632.417920,0.407750
632.733980,0.404262
633.050000,0.406913
633.365980,0.408714
633.681920,0.399761
633.997820,0.409145
634.313680,0.399882
634.629500,0.401946
634.945280,0.403812
635.261020,0.402700
635.576720,0.399883
635.892380,0.399942
636.208000,0.398024
636.523580,0.396668
636.839120,0.398089
637.154620,0.397101
637.470080,0.394548
637.785500,0.408558
638.100880,0.403707
638.416220,0.398907
638.731520,0.391977
639.046780,0.398194
639.362000,0.396216
639.677180,0.398915
639.992320,0.393572
640.307420,0.390278
640.622480,0.391767
640.937500,0.399168
641.252480,0.394303
641.567420,0.400398
641.882320,0.390869
642.197180,0.398933
642.512000,0.397985
642.826780,0.389182
643.141520,0.395388
643.456220,0.394300
643.770880,0.395799
644.085500,0.396870
644.400080,0.399438
644.714620,0.391583
645.029120,0.393014
645.343580,0.392759
645.658000,0.394671
645.972380,0.393807
646.286720,0.388389
646.601020,0.395793
646.915280,0.397039
647.229500,0.391209
647.543680,0.395195
647.857820,0.397192
648.171920,0.393380
648.485980,0.391888
648.800000,0.392946
649.113980,0.397173
649.427920,0.400832
649.741820,0.398461
650.055680,0.395502
650.369500,0.397422
650.683280,0.396781
650.997020,0.395490
651.310720,0.398184
651.624380,0.396154
651.938000,0.393629
652.251580,0.397161
652.565120,0.404975
652.878620,0.400901
653.192080,0.399157
653.505500,0.391585
653.818880,0.403469
654.132220,0.400741
654.445520,0.399887
654.758780,0.396317
655.072000,0.398854
655.385180,0.395720
655.698320,0.399829
656.011420,0.402981
656.324480,0.403381
656.637500,0.398030
656.950480,0.402819
657.263420,0.404966
657.576320,0.402609
657.889180,0.405780
658.202000,0.404589
658.514780,0.411432
658.827520,0.407563
659.140220,0.408151
659.452880,0.414376
659.765500,0.408790
660.078080,0.407764
660.390620,0.411855
660.703120,0.414604
661.015580,0.411656
661.328000,0.416562
661.640380,0.416900
661.952720,0.414513
662.265020,0.421235
662.577280,0.416667
662.889500,0.420057
663.201680,0.419272
663.513820,0.417819
663.825920,0.417547
664.137980,0.421138
664.450000,0.416240
664.761980,0.417676
665.073920,0.424537
665.385820,0.422775
665.697680,0.422149
666.009500,0.429664
666.321280,0.431412
666.633020,0.423537
666.944720,0.432086
667.256380,0.436406
667.568000,0.425951
667.879580,0.435374
668.191120,0.434066
668.502620,0.438891
668.814080,0.436140
669.125500,0.435169
669.436880,0.432227
669.748220,0.431983
670.059520,0.450980
670.370780,0.448156
670.682000,0.444956
670.993180,0.451022
671.304320,0.444796
671.615420,0.442827
671.926480,0.445351
672.237500,0.440514
672.548480,0.454223
672.859420,0.450322
673.170320,0.460283
673.481180,0.461622
673.792000,0.450054
674.102780,0.452783
674.413520,0.458987
674.724220,0.460980
675.034880,0.462046
675.345500,0.460248
675.656080,0.470054
675.966620,0.459076
676.277120,0.461369
676.587580,0.469440
676.898000,0.472564
677.208380,0.473567
677.518720,0.464989
677.829020,0.474501
678.139280,0.474796
678.449500,0.477534
678.759680,0.478082
679.069820,0.475465
679.379920,0.478310
679.689980,0.476049
680.000000,0.479626
680.309980,0.475130
680.619920,0.473684
680.929820,0.481896
681.239680,0.484490
681.549500,0.476296
681.859280,0.489544
682.169020,0.484148
682.478720,0.495512
682.788380,0.493171
683.098000,0.489529
683.407580,0.497186
683.717120,0.487237
684.026620,0.498117
684.336080,0.498674
684.645500,0.490460
684.954880,0.496789
685.264220,0.497546
685.573520,0.504378
685.882780,0.506713
686.192000,0.502634
686.501180,0.507756
686.810320,0.506149
687.119420,0.508552
687.428480,0.511584
687.737500,0.516884
688.046480,0.508436
688.355420,0.510751
688.664320,0.511859
688.973180,0.520291
689.282000,0.522762
689.590780,0.524540
689.899520,0.511584
690.208220,0.520642
690.516880,0.516991
690.825500,0.518491
691.134080,0.515186
691.442620,0.516387
691.751120,0.521426
692.059580,0.527703
692.368000,0.518364
692.676380,0.529389
692.984720,0.524046
693.293020,0.527356
693.601280,0.524990
693.909500,0.527053
694.217680,0.525133
694.525820,0.535796
694.833920,0.532621
695.141980,0.526803
695.450000,0.532061
695.757980,0.536287
696.065920,0.528544
696.373820,0.539646
696.681680,0.529728
696.989500,0.532999
697.297280,0.530144
697.605020,0.547222
697.912720,0.538432
698.220380,0.546242
698.528000,0.541139
698.835580,0.529435
699.143120,0.533515
699.450620,0.544948
699.758080,0.530588
700.065500,0.529928
700.372880,0.548000
700.680220,0.541683
700.987520,0.543651
701.294780,0.549473
701.602000,0.536846
701.909180,0.549285
702.216320,0.542433
702.523420,0.537490
702.830480,0.550891
703.137500,0.536633
703.444480,0.551085
703.751420,0.554241
704.058320,0.552434
704.365180,0.547319
704.672000,0.549703
704.978780,0.545455
705.285520,0.546557
705.592220,0.551765
705.898880,0.545311
706.205500,0.550078
706.512080,0.552528
706.818620,0.555728
707.125120,0.550000
707.431580,0.550996
707.738000,0.556250
708.044380,0.561173
708.350720,0.547956
708.657020,0.558421
708.963280,0.552795
709.269500,0.553816
709.575680,0.558350
709.881820,0.550708
710.187920,0.551751
710.493980,0.549651
710.800000,0.554920
711.105980,0.545934
711.411920,0.550650
711.717820,0.551657
712.023680,0.551108
712.329500,0.559937
712.635280,0.553876
712.941020,0.551218
713.246720,0.554941
713.552380,0.556122
713.858000,0.551439
714.163580,0.560773
714.469120,0.551778
714.774620,0.553889
715.080080,0.550844
715.385500,0.553957
715.690880,0.547929
715.996220,0.549128
716.301520,0.559684
716.606780,0.555031
716.912000,0.562601
717.217180,0.549880
717.522320,0.549503
717.827420,0.550854
718.132480,0.550381
718.437500,0.539340
718.742480,0.538306
719.047420,0.549757
719.352320,0.548775
719.657180,0.554783
719.962000,0.552109
720.266780,0.539260
720.571520,0.550953
720.876220,0.544190
721.180880,0.546823
721.485500,0.547012
721.790080,0.545223
722.094620,0.546312
722.399120,0.542869
722.703580,0.534934
723.008000,0.548512
723.312380,0.537667
723.616720,0.534637
723.921020,0.536596
724.225280,0.531414
724.529500,0.540718
724.833680,0.535142
725.137820,0.542291
725.441920,0.531431
725.745980,0.529754
726.050000,0.538115
726.353980,0.525913
726.657920,0.533063
726.961820,0.537900
727.265680,0.531207
727.569500,0.533364
727.873280,0.528868
728.177020,0.524643
728.480720,0.525926
728.784380,0.539690
729.088000,0.524258
729.391580,0.534818
729.695120,0.525432
729.998620,0.537285
730.302080,0.523306
730.605500,0.527899
730.908880,0.530132
731.212220,0.524486
731.515520,0.518771
731.818780,0.513107
732.122000,0.514764
732.425180,0.514539
732.728320,0.510659
733.031420,0.514787
733.334480,0.517347
733.637500,0.509577
733.940480,0.524053
734.243420,0.511723
734.546320,0.518672
734.849180,0.508264
735.152000,0.514004
735.454780,0.510847
735.757520,0.509484
736.060220,0.511322
736.362880,0.501050
736.665500,0.499217
736.968080,0.500806
737.270620,0.505171
737.573120,0.515830
737.875580,0.509071
738.178000,0.501905
738.480380,0.507027
738.782720,0.494002
739.085020,0.501652
739.387280,0.497228
739.689500,0.504530
739.991680,0.490736
740.293820,0.491985
740.595920,0.491931
740.897980,0.494071
741.200000,0.482333
741.501980,0.496275
741.803920,0.487613
742.105820,0.491258
742.407680,0.502038
742.709500,0.482386
743.011280,0.488277
743.313020,0.485217
743.614720,0.483459
743.916380,0.483721
744.218000,0.488663
744.519580,0.484903
744.821120,0.492814
745.122620,0.483523
745.424080,0.478966
745.725500,0.480990
746.026880,0.482759
746.328220,0.479655
746.629520,0.465382
746.930780,0.471201
747.232000,0.469651
747.533180,0.477120
747.834320,0.475959
748.135420,0.461156
748.436480,0.466001
748.737500,0.463867
749.038480,0.458766
749.339420,0.473553
749.640320,0.472030
749.941180,0.463460
750.242000,0.462312
750.542780,0.460918
750.843520,0.470852
751.144220,0.466667
751.444880,0.474318
751.745500,0.460390
752.046080,0.470815
752.346620,0.449742
752.647120,0.460483
752.947580,0.459897
753.248000,0.466151
753.548380,0.472999
753.848720,0.454604
754.149020,0.448098
754.449280,0.463559
754.749500,0.445919
755.049680,0.452000
755.349820,0.451634
755.649920,0.454065
755.949980,0.451891
756.250000,0.459566
756.549980,0.438944
756.849920,0.457512
757.149820,0.444444
757.449680,0.455446
757.749500,0.456033
758.049280,0.458020
758.349020,0.453408
758.648720,0.445825
758.948380,0.446735
759.248000,0.453504
759.547580,0.451244
759.847120,0.441075
760.146620,0.447226
760.446080,0.450269
760.745500,0.447552
761.044880,0.451705
761.344220,0.441197
761.643520,0.454802
761.942780,0.448565
762.242000,0.449081
762.541180,0.446479
762.840320,0.452949
763.139420,0.440928
763.438480,0.436774
763.737500,0.450034
764.036480,0.437456
764.335420,0.445307
764.634320,0.445599
764.933180,0.436301
765.232000,0.440666
765.530780,0.440000
765.829520,0.435664
766.128220,0.448156
766.426880,0.432125
766.725500,0.442084
767.024080,0.438272
767.322620,0.439834
767.621120,0.441057
767.919580,0.442321
768.218000,0.445280
768.516380,0.448952
768.814720,0.436900
769.113020,0.450724
769.411280,0.447514
769.709500,0.444520
770.007680,0.444444
770.305820,0.445571
770.603920,0.438679
770.901980,0.448087
771.200000,0.437500
771.497980,0.433646
771.795920,0.440134
772.093820,0.444519
772.391680,0.440343
772.689500,0.435135
772.987280,0.438384
773.285020,0.447027
773.582720,0.433108
773.880380,0.456417
774.178000,0.445808
774.475580,0.438044
774.773120,0.441767
775.070620,0.442191
775.368080,0.446894
775.665500,0.431162
775.962880,0.445630
776.260220,0.441454
776.557520,0.446965
776.854780,0.446247
777.152000,0.429708
777.449180,0.447067
777.746320,0.432796
778.043420,0.444748
778.340480,0.444520
778.637500,0.448276
778.934480,0.433759
779.231420,0.445726
779.528320,0.442886
779.825180,0.446640
780.122000,0.438911
780.418780,0.454172
780.715520,0.453387
781.012220,0.452055
781.308880,0.451657
781.605500,0.454110
781.902080,0.452430
782.198620,0.453178
782.495120,0.444444
782.791580,0.457359
783.088000,0.451346
783.384380,0.458735
783.680720,0.448700
783.977020,0.459050
784.273280,0.458741
784.569500,0.471698
784.865680,0.461752
785.161820,0.456944
785.457920,0.447678
785.753980,0.456385
786.050000,0.453729
786.345980,0.463194
786.641920,0.464261
786.937820,0.471510
787.233680,0.453027
787.529500,0.459085
787.825280,0.470963
788.121020,0.469547
788.416720,0.462950
788.712380,0.468970
789.008000,0.467422
789.303580,0.476325
789.599120,0.474182
789.894620,0.477256
790.190080,0.472806
790.485500,0.480202
790.780880,0.466667
791.076220,0.471861
791.371520,0.484386
791.666780,0.483636
791.962000,0.479794
792.257180,0.465593
792.552320,0.480058
792.847420,0.473071
793.142480,0.493773
793.437500,0.469609
793.732480,0.471105
794.027420,0.469585
794.322320,0.488441
794.617180,0.478455
794.912000,0.490342
795.206780,0.487696
795.501520,0.492015
795.796220,0.481481
796.090880,0.484552
796.385500,0.486507
796.680080,0.481675
796.974620,0.479042
797.269120,0.490537
797.563580,0.493130
797.858000,0.495065
798.152380,0.491106
798.446720,0.495385
798.741020,0.496148
799.035280,0.491460
799.329500,0.495766
799.623680,0.496124
