399.985280,0.216216
400.329500,0.297297
400.673680,0.278481
401.017820,0.294118
401.361920,0.257576
401.705980,0.207317
402.050000,0.233766
402.393980,0.352941
402.737920,0.280899
403.081820,0.237113
403.425680,0.220930
403.769500,0.260417
404.113280,0.195402
404.457020,0.280899
404.800720,0.206522
405.144380,0.292929
405.488000,0.290323
405.831580,0.237113
406.175120,0.159574
406.518620,0.280000
406.862080,0.237113
407.205500,0.250000
407.548880,0.234694
407.892220,0.245098
408.235520,0.244681
408.578780,0.247619
408.922000,0.221154
409.265180,0.292929
409.608320,0.191919
409.951420,0.298969
410.294480,0.274510
410.637500,0.239130
410.980480,0.274510
411.323420,0.234694
411.666320,0.256881
412.009180,0.300000
412.352000,0.237624
412.694780,0.192661
413.037520,0.211009
413.380220,0.261261
413.722880,0.258929
414.065500,0.225225
414.408080,0.185841
414.750620,0.238938
415.093120,0.206612
415.435580,0.235294
415.778000,0.257576
416.120380,0.268908
416.462720,0.285714
416.805020,0.263158
417.147280,0.238806
417.489500,0.257143
417.831680,0.260274
418.173820,0.219858
418.515920,0.237762
418.857980,0.240506
419.200000,0.294872
419.541980,0.248521
419.883920,0.230337
420.225820,0.219653
420.567680,0.223464
420.909500,0.245902
421.251280,0.270833
421.593020,0.234694
421.934720,0.237374
422.276380,0.241026
422.618000,0.230392
422.959580,0.250000
423.301120,0.255708
423.642620,0.191304
423.984080,0.223256
424.325500,0.219731
424.666880,0.232759
425.008220,0.218487
425.349520,0.237288
425.690780,0.226923
426.032000,0.215686
426.373180,0.224066
426.714320,0.230469
427.055420,0.220077
427.396480,0.247191
427.737500,0.221344
428.078480,0.221344
428.419420,0.212851
428.760320,0.226054
429.101180,0.248031
429.442000,0.245211
429.782780,0.234615
430.123520,0.250980
430.464220,0.221402
430.804880,0.245211
431.145500,0.207273
431.486080,0.243446
431.826620,0.236434
432.167120,0.224265
432.507580,0.257246
432.848000,0.226619
433.188380,0.231047
433.528720,0.241509
433.869020,0.242857
434.209280,0.224561
434.549500,0.229965
434.889680,0.245791
435.229820,0.225256
435.569920,0.235294
435.909980,0.216828
436.250000,0.237288
436.589980,0.222910
436.929920,0.238095
437.269820,0.216301
437.609680,0.248521
437.949500,0.222892
438.289280,0.249292
438.629020,0.264535
438.968720,0.241279
439.308380,0.224932
439.648000,0.230137
439.987580,0.248677
440.327120,0.237333
440.666620,0.246753
441.006080,0.245524
441.345500,0.238329
441.684880,0.255981
442.024220,0.248139
442.363520,0.240476
442.702780,0.252273
443.042000,0.237885
443.381180,0.267241
443.720320,0.254860
444.059420,0.250000
444.398480,0.242678
444.737500,0.264344
445.076480,0.242063
445.415420,0.261477
445.754320,0.234927
446.093180,0.244037
446.432000,0.248120
446.770780,0.250474
447.109520,0.272059
447.448220,0.257603
447.786880,0.254025
448.125500,0.263793
448.464080,0.257143
448.802620,0.250000
449.141120,0.252595
449.479580,0.248252
449.818000,0.266781
450.156380,0.257525
450.494720,0.262810
450.833020,0.250000
451.171280,0.258562
451.509500,0.268293
451.847680,0.271501
452.185820,0.253012
452.523920,0.252577
452.861980,0.261383
453.200000,0.255814
453.537980,0.262185
453.875920,0.267227
454.213820,0.270548
454.551680,0.261589
454.889500,0.251265
455.227280,0.254448
455.565020,0.276382
455.902720,0.272879
456.240380,0.256240
456.578000,0.263066
456.915580,0.272884
457.253120,0.248355
457.590620,0.270936
457.928080,0.272727
458.265500,0.261824
458.602880,0.254870
458.940220,0.267343
459.277520,0.262400
459.614780,0.268412
459.952000,0.256211
460.289180,0.259494
460.626320,0.255118
460.963420,0.255250
461.300480,0.250765
461.637500,0.251156
461.974480,0.262997
462.311420,0.248882
462.648320,0.262079
462.985180,0.253945
463.322000,0.248512
463.658780,0.247238
463.995520,0.244842
464.332220,0.252078
464.668880,0.252688
465.005500,0.261394
465.342080,0.261204
465.678620,0.254613
466.015120,0.263907
466.351580,0.252845
466.688000,0.249695
467.024380,0.245443
467.360720,0.248864
467.697020,0.257403
468.033280,0.245556
468.369500,0.256071
468.705680,0.251409
469.041820,0.251042
469.377920,0.242950
469.713980,0.250257
470.050000,0.249275
470.385980,0.245597
470.721920,0.242899
471.057820,0.246589
471.393680,0.232928
471.729500,0.240037
472.065280,0.249553
472.401020,0.242908
472.736720,0.241710
473.072380,0.246858
473.408000,0.241950
473.743580,0.237889
474.079120,0.239449
474.414620,0.241730
474.750080,0.235151
475.085500,0.232730
475.420880,0.238135
475.756220,0.234669
476.091520,0.233589
476.426780,0.237864
476.762000,0.231698
477.097180,0.237600
477.432320,0.239095
477.767420,0.236111
478.102480,0.227559
478.437500,0.226601
478.772480,0.239559
479.107420,0.235964
479.442320,0.234213
479.777180,0.233095
480.112000,0.226502
480.446780,0.238504
480.781520,0.232689
481.116220,0.234438
481.450880,0.236534
481.785500,0.231013
482.120080,0.233542
482.454620,0.236208
482.789120,0.237261
483.123580,0.229751
483.458000,0.232595
483.792380,0.236422
484.126720,0.228571
484.461020,0.237315
484.795280,0.232074
485.129500,0.233048
485.463680,0.230233
485.797820,0.246501
486.131920,0.231064
486.465980,0.232432
486.800000,0.237405
487.133980,0.240181
487.467920,0.240245
487.801820,0.245614
488.135680,0.241850
488.469500,0.230711
488.803280,0.236999
489.137020,0.235165
489.470720,0.247033
489.804380,0.247216
490.138000,0.243323
490.471580,0.249079
490.805120,0.238027
491.138620,0.233831
491.472080,0.243110
491.805500,0.246165
492.138880,0.248089
492.472220,0.251903
492.805520,0.250000
493.138780,0.257753
493.472000,0.250167
493.805180,0.261937
494.138320,0.254837
494.471420,0.253906
494.804480,0.252911
495.137500,0.263158
495.470480,0.255577
495.803420,0.259446
496.136320,0.255639
496.469180,0.258441
496.802000,0.260391
497.134780,0.258945
497.467520,0.272783
497.800220,0.261792
498.132880,0.266902
498.465500,0.271147
498.798080,0.265411
499.130620,0.272319
499.463120,0.272880
499.795580,0.270077
500.128000,0.273025
500.460380,0.271798
500.792720,0.276246
501.125020,0.276406
501.457280,0.279896
501.789500,0.280475
502.121680,0.293416
502.453820,0.280979
502.785920,0.281141
503.117980,0.288518
503.450000,0.295831
503.781980,0.292975
504.113920,0.284021
504.445820,0.287798
504.777680,0.291294
505.109500,0.301442
505.441280,0.299713
505.773020,0.294035
506.104720,0.292511
506.436380,0.300994
506.768000,0.301684
507.099580,0.303432
507.431120,0.307260
507.762620,0.302162
508.094080,0.299909
508.425500,0.318861
508.756880,0.312300
509.088220,0.316927
509.419520,0.309590
509.750780,0.313496
510.082000,0.319496
510.413180,0.311377
510.744320,0.317073
511.075420,0.317140
511.406480,0.318759
511.737500,0.318056
512.068480,0.328477
512.399420,0.320657
512.730320,0.316397
513.061180,0.329686
513.392000,0.325130
513.722780,0.331412
514.053520,0.329660
514.384220,0.321598
514.714880,0.337482
515.045500,0.329502
515.376080,0.335109
515.706620,0.341452
516.037120,0.343137
516.367580,0.335633
516.698000,0.338725
517.028380,0.340616
517.358720,0.344198
517.689020,0.340257
518.019280,0.353738
518.349500,0.342625
518.679680,0.345280
519.009820,0.348178
519.339920,0.351202
519.669980,0.346057
520.000000,0.354050
520.329980,0.351996
520.659920,0.349693
520.989820,0.357585
521.319680,0.356996
521.649500,0.356298
521.979280,0.361691
522.309020,0.353734
522.638720,0.350230
522.968380,0.350569
523.298000,0.359081
523.627580,0.358510
523.957120,0.366753
524.286620,0.361126
524.616080,0.366081
524.945500,0.361757
525.274880,0.368907
525.604220,0.357143
525.933520,0.362159
526.262780,0.353776
526.592000,0.370370
526.921180,0.364144
527.250320,0.359716
527.579420,0.362304
527.908480,0.360906
528.237500,0.367925
528.566480,0.370259
528.895420,0.373090
529.224320,0.368995
529.553180,0.360482
529.882000,0.362530
530.210780,0.362452
530.539520,0.370086
530.868220,0.368119
531.196880,0.362160
531.525500,0.367554
531.854080,0.357880
532.182620,0.361980
532.511120,0.360557
532.839580,0.370690
533.168000,0.358250
533.496380,0.364384
533.824720,0.365635
534.153020,0.360678
534.481280,0.359471
534.809500,0.368953
535.137680,0.365017
535.465820,0.362113
535.793920,0.365905
536.121980,0.362568
536.450000,0.363214
536.777980,0.361123
537.105920,0.362391
537.433820,0.360884
537.761680,0.369388
538.089500,0.366653
538.417280,0.361321
538.745020,0.362916
539.072720,0.351425
539.400380,0.353924
539.728000,0.356405
540.055580,0.349438
540.383120,0.363738
540.710620,0.350074
541.038080,0.354113
541.365500,0.352574
541.692880,0.355015
542.020220,0.353724
542.347520,0.344939
542.674780,0.345095
543.002000,0.347096
543.329180,0.347948
543.656320,0.351617
543.983420,0.345983
544.310480,0.341148
544.637500,0.352781
544.964480,0.336137
545.291420,0.335660
545.618320,0.335325
545.945180,0.335860
546.272000,0.334862
546.598780,0.332350
546.925520,0.336960
547.252220,0.333774
547.578880,0.334637
547.905500,0.331699
548.232080,0.328460
548.558620,0.336479
548.885120,0.334969
549.211580,0.321119
549.538000,0.323606
549.864380,0.321865
550.190720,0.320633
550.517020,0.323990
550.843280,0.329642
551.169500,0.312659
551.495680,0.319645
551.821820,0.321032
552.147920,0.316526
552.473980,0.318406
552.800000,0.312950
553.125980,0.313687
553.451920,0.312873
553.777820,0.310127
554.103680,0.313111
554.429500,0.308671
554.755280,0.307744
555.081020,0.307821
555.406720,0.302743
555.732380,0.299559
556.058000,0.304141
556.383580,0.302294
556.709120,0.300827
557.034620,0.298312
557.360080,0.299482
557.685500,0.295643
558.010880,0.296360
558.336220,0.295255
558.661520,0.302375
558.986780,0.297661
559.312000,0.293803
559.637180,0.294075
559.962320,0.298683
560.287420,0.297955
560.612480,0.290635
560.937500,0.288913
561.262480,0.290323
561.587420,0.281103
561.912320,0.291452
562.237180,0.284974
562.562000,0.294052
562.886780,0.289483
563.211520,0.289866
563.536220,0.281262
563.860880,0.283667
564.185500,0.284053
564.510080,0.283296
564.834620,0.279122
565.159120,0.280451
565.483580,0.277841
565.808000,0.282633
566.132380,0.284222
566.456720,0.283825
566.781020,0.279820
567.105280,0.282420
567.429500,0.275038
567.753680,0.283851
568.077820,0.274836
568.401920,0.285714
568.725980,0.281214
569.050000,0.284411
569.373980,0.281309
569.697920,0.283276
570.021820,0.278277
570.345680,0.279755
570.669500,0.281572
570.993280,0.279070
571.317020,0.278042
571.640720,0.280845
571.964380,0.276912
572.288000,0.282270
572.611580,0.285661
572.935120,0.284699
573.258620,0.284218
573.582080,0.283905
573.905500,0.287789
574.228880,0.286563
574.552220,0.283987
574.875520,0.285555
575.198780,0.280810
575.522000,0.291789
575.845180,0.283309
576.168320,0.294646
576.491420,0.298328
576.814480,0.296203
577.137500,0.298341
577.460480,0.302646
577.783420,0.299750
578.106320,0.301282
578.429180,0.301166
578.752000,0.292463
579.074780,0.298045
579.397520,0.299225
579.720220,0.297297
580.042880,0.305253
580.365500,0.308074
580.688080,0.311398
581.010620,0.311846
581.333120,0.309285
581.655580,0.312021
581.978000,0.317260
582.300380,0.308666
582.622720,0.314436
582.945020,0.318270
583.267280,0.320742
583.589500,0.321669
583.911680,0.323595
584.233820,0.320113
584.555920,0.328396
584.877980,0.331344
585.200000,0.321977
585.521980,0.332407
585.843920,0.327029
586.165820,0.331505
586.487680,0.333735
586.809500,0.335134
587.131280,0.336883
587.453020,0.347024
587.774720,0.340331
588.096380,0.345683
588.418000,0.347673
588.739580,0.355849
589.061120,0.346463
589.382620,0.352149
589.704080,0.352034
590.025500,0.356164
590.346880,0.356942
590.668220,0.363484
590.989520,0.361620
591.310780,0.361779
591.632000,0.367486
591.953180,0.371713
592.274320,0.370461
592.595420,0.369073
592.916480,0.370823
593.237500,0.371867
593.558480,0.380414
593.879420,0.380092
594.200320,0.381998
594.521180,0.381408
594.842000,0.392262
595.162780,0.387019
595.483520,0.393778
595.804220,0.398765
596.124880,0.393818
596.445500,0.387739
596.766080,0.405754
597.086620,0.401274
597.407120,0.398631
597.727580,0.406523
598.048000,0.401481
598.368380,0.413467
598.688720,0.410485
599.009020,0.413217
599.329280,0.415647
599.649500,0.417327
599.969680,0.415331
600.289820,0.424947
600.609920,0.426129
600.929980,0.422234
601.250000,0.427297
601.569980,0.428571
601.889920,0.427693
602.209820,0.434794
602.529680,0.437517
602.849500,0.439716
603.169280,0.446404
603.489020,0.446443
603.808720,0.443774
604.128380,0.452815
604.448000,0.443370
604.767580,0.447765
605.087120,0.447922
605.406620,0.458158
605.726080,0.464500
606.045500,0.459459
606.364880,0.460164
606.684220,0.462022
607.003520,0.461009
607.322780,0.469016
607.642000,0.472717
607.961180,0.475860
608.280320,0.470708
608.599420,0.472190
608.918480,0.479179
609.237500,0.477993
609.556480,0.483575
609.875420,0.487891
610.194320,0.482433
610.513180,0.484759
610.832000,0.491066
611.150780,0.485131
611.469520,0.496833
611.788220,0.493652
612.106880,0.499397
612.425500,0.493605
612.744080,0.499231
613.062620,0.494495
613.381120,0.503352
613.699580,0.503066
614.018000,0.506450
614.336380,0.508328
614.654720,0.506667
614.973020,0.512496
615.291280,0.513170
615.609500,0.527734
615.927680,0.516069
616.245820,0.515152
616.563920,0.518495
616.881980,0.524790
617.200000,0.517574
617.517980,0.523647
617.835920,0.518484
618.153820,0.529064
618.471680,0.520310
618.789500,0.527061
619.107280,0.527700
619.425020,0.531557
619.742720,0.536723
620.060380,0.530555
620.378000,0.538389
620.695580,0.540549
621.013120,0.537008
621.330620,0.538751
621.648080,0.531546
621.965500,0.537955
622.282880,0.534048
622.600220,0.546115
622.917520,0.549464
623.234780,0.557377
623.552000,0.546785
623.869180,0.547747
624.186320,0.552053
624.503420,0.549843
624.820480,0.556079
625.137500,0.555731
625.454480,0.546733
625.771420,0.555801
626.088320,0.554540
626.405180,0.559428
626.722000,0.553011
627.038780,0.556704
627.355520,0.558750
627.672220,0.567341
627.988880,0.560498
628.305500,0.571829
628.622080,0.566295
628.938620,0.562997
629.255120,0.569073
629.571580,0.563592
629.888000,0.563363
630.204380,0.565204
630.520720,0.569775
630.837020,0.567068
631.153280,0.563549
631.469500,0.568830
631.785680,0.567209
632.101820,0.567853
632.417920,0.569300
632.733980,0.573229
633.050000,0.578836
633.365980,0.563723
633.681920,0.560263
633.997820,0.573521
634.313680,0.570628
634.629500,0.570923
634.945280,0.568915
635.261020,0.570296
635.576720,0.573987
635.892380,0.566657
636.208000,0.571761
636.523580,0.572347
636.839120,0.565142
637.154620,0.576232
637.470080,0.561263
637.785500,0.580012
638.100880,0.575731
638.416220,0.570607
638.731520,0.565330
639.046780,0.565395
639.362000,0.568234
639.677180,0.567676
639.992320,0.571469
640.307420,0.564203
640.622480,0.567908
640.937500,0.562552
641.252480,0.571070
641.567420,0.568343
641.882320,0.563753
642.197180,0.568782
642.512000,0.566191
642.826780,0.565881
643.141520,0.562101
643.456220,0.567239
643.770880,0.567993
644.085500,0.562325
644.400080,0.573034
644.714620,0.571628
645.029120,0.559681
645.343580,0.558146
645.658000,0.569525
645.972380,0.562072
646.286720,0.553557
646.601020,0.560476
646.915280,0.550041
647.229500,0.550549
647.543680,0.547639
647.857820,0.554638
648.171920,0.546663
648.485980,0.554673
648.800000,0.540920
649.113980,0.548780
649.427920,0.550902
649.741820,0.543006
650.055680,0.549369
650.369500,0.551289
650.683280,0.544118
650.997020,0.544279
651.310720,0.539351
651.624380,0.535165
651.938000,0.539612
652.251580,0.539382
652.565120,0.531302
652.878620,0.535473
653.192080,0.537921
653.505500,0.530435
653.818880,0.537674
654.132220,0.533466
654.445520,0.526943
654.758780,0.521530
655.072000,0.526934
655.385180,0.519829
655.698320,0.519005
656.011420,0.517913
656.324480,0.520256
656.637500,0.514195
656.950480,0.514386
657.263420,0.521135
657.576320,0.513193
657.889180,0.511943
658.202000,0.514191
658.514780,0.509973
658.827520,0.506903
659.140220,0.501648
659.452880,0.508608
659.765500,0.506924
660.078080,0.495035
660.390620,0.498931
660.703120,0.498931
661.015580,0.505828
661.328000,0.502204
661.640380,0.499223
661.952720,0.494239
662.265020,0.490863
662.577280,0.492366
662.889500,0.483128
663.201680,0.484365
663.513820,0.480862
663.825920,0.486071
664.137980,0.487395
664.450000,0.477941
664.761980,0.477578
665.073920,0.477118
665.385820,0.472840
665.697680,0.468760
666.009500,0.470236
666.321280,0.469516
666.633020,0.454787
666.944720,0.465453
667.256380,0.467026
667.568000,0.460937
667.879580,0.460204
668.191120,0.463599
668.502620,0.458062
668.814080,0.461404
669.125500,0.452959
669.436880,0.452628
669.748220,0.446521
670.059520,0.456232
670.370780,0.440849
670.682000,0.452743
670.993180,0.446441
671.304320,0.445148
671.615420,0.436435
671.926480,0.436835
672.237500,0.436584
672.548480,0.436835
672.859420,0.434239
673.170320,0.433805
673.481180,0.435192
673.792000,0.428417
674.102780,0.426571
674.413520,0.429092
674.724220,0.418149
675.034880,0.423909
675.345500,0.420861
675.656080,0.418512
675.966620,0.419789
676.277120,0.421091
676.587580,0.415317
676.898000,0.405748
677.208380,0.404806
677.518720,0.410649
677.829020,0.409460
678.139280,0.407339
678.449500,0.405496
678.759680,0.406519
679.069820,0.403346
679.379920,0.400981
679.689980,0.395098
680.000000,0.390280
680.309980,0.395323
680.619920,0.399470
680.929820,0.392311
681.239680,0.385894
681.549500,0.386296
681.859280,0.390590
682.169020,0.382693
682.478720,0.392670
682.788380,0.385751
683.098000,0.383695
683.407580,0.378987
683.717120,0.381006
684.026620,0.380648
684.336080,0.384236
684.645500,0.375982
684.954880,0.373631
685.264220,0.373348
685.573520,0.380662
685.882780,0.380130
686.192000,0.367193
686.501180,0.370791
686.810320,0.375865
687.119420,0.372102
687.428480,0.368401
687.737500,0.364160
688.046480,0.366948
688.355420,0.362505
688.664320,0.357307
688.973180,0.359112
689.282000,0.368056
689.590780,0.366181
689.899520,0.347892
690.208220,0.367355
690.516880,0.354334
690.825500,0.352453
691.134080,0.351177
691.442620,0.352134
691.751120,0.351157
692.059580,0.356515
692.368000,0.349110
692.676380,0.354962
692.984720,0.353053
693.293020,0.351444
693.601280,0.351393
693.909500,0.346576
694.217680,0.348819
694.525820,0.351866
694.833920,0.347959
695.141980,0.344389
695.450000,0.345420
695.757980,0.347212
696.065920,0.349126
696.373820,0.341032
696.681680,0.344841
696.989500,0.343497
697.297280,0.345002
697.605020,0.349603
697.912720,0.341276
698.220380,0.341204
698.528000,0.344146
698.835580,0.342552
699.143120,0.338659
699.450620,0.341289
699.758080,0.336863
700.065500,0.336792
700.372880,0.338800
700.680220,0.340646
700.987520,0.335317
701.294780,0.344282
701.602000,0.333994
701.909180,0.344992
702.216320,0.333594
702.523420,0.350039
702.830480,0.348911
703.137500,0.328137
703.444480,0.340039
703.751420,0.341617
704.058320,0.337159
704.365180,0.339905
704.672000,0.346535
704.978780,0.338666
705.285520,0.335681
705.592220,0.335294
705.898880,0.337273
706.205500,0.338811
706.512080,0.345577
706.818620,0.341331
707.125120,0.343077
707.431580,0.340758
707.738000,0.350000
708.044380,0.339637
708.350720,0.339702
708.657020,0.350137
708.963280,0.341615
709.269500,0.348728
709.575680,0.344204
709.881820,0.344733
710.187920,0.352918
710.493980,0.348720
710.800000,0.348207
711.105980,0.349774
711.411920,0.344896
711.717820,0.348538
712.023680,0.342791
712.329500,0.361199
712.635280,0.349612
712.941020,0.352145
713.246720,0.358103
713.552380,0.356358
713.858000,0.349231
714.163580,0.354775
714.469120,0.355998
714.774620,0.355310
715.080080,0.357283
715.385500,0.365707
715.690880,0.359369
715.996220,0.355388
716.301520,0.361265
716.606780,0.359277
716.912000,0.365509
717.217180,0.371109
717.522320,0.357853
717.827420,0.369813
718.132480,0.366921
718.437500,0.370159
718.742480,0.359677
719.047420,0.371764
719.352320,0.373184
719.657180,0.379804
719.962000,0.368486
720.266780,0.371001
720.571520,0.375311
720.876220,0.375205
721.180880,0.375836
721.485500,0.373590
721.790080,0.378769
722.094620,0.389794
722.399120,0.385610
722.703580,0.384912
723.008000,0.391117
723.312380,0.383986
723.616720,0.388865
723.921020,0.393244
724.225280,0.387871
724.529500,0.392294
724.833680,0.398577
725.137820,0.391189
725.441920,0.402586
725.745980,0.398658
726.050000,0.404601
726.353980,0.395674
726.657920,0.399010
726.961820,0.404110
727.265680,0.413315
727.569500,0.408135
727.873280,0.403233
728.177020,0.406725
728.480720,0.411111
728.784380,0.412870
729.088000,0.413095
729.391580,0.417338
729.695120,0.418906
729.998620,0.417304
730.302080,0.426237
730.605500,0.421155
730.908880,0.432141
731.212220,0.426543
731.515520,0.419308
731.818780,0.426699
732.122000,0.433071
732.425180,0.429276
732.728320,0.428855
733.031420,0.435088
733.334480,0.444898
733.637500,0.432460
733.940480,0.447799
734.243420,0.440877
734.546320,0.451763
734.849180,0.443182
735.152000,0.445539
735.454780,0.453512
735.757520,0.455216
736.060220,0.452870
736.362880,0.454832
736.665500,0.448564
736.968080,0.458893
737.270620,0.464888
737.573120,0.462882
737.875580,0.470038
738.178000,0.469788
738.480380,0.467027
738.782720,0.467285
739.085020,0.468612
739.387280,0.466741
739.689500,0.483012
739.991680,0.481190
740.293820,0.484245
740.595920,0.496383
740.897980,0.482778
741.200000,0.486820
741.501980,0.489398
741.803920,0.481982
742.105820,0.487874
742.407680,0.505533
742.709500,0.491477
743.011280,0.492966
743.313020,0.503188
743.614720,0.496808
743.916380,0.496512
744.218000,0.511337
744.519580,0.514493
744.821120,0.517365
745.122620,0.512283
745.424080,0.506010
745.725500,0.521424
746.026880,0.514163
746.328220,0.518496
746.629520,0.509332
746.930780,0.516544
747.232000,0.510730
747.533180,0.535692
747.834320,0.534997
748.135420,0.528278
748.436480,0.532751
748.737500,0.522545
749.038480,0.540623
749.339420,0.559428
749.640320,0.549969
749.941180,0.545284
750.242000,0.532663
750.542780,0.542184
750.843520,0.559257
751.144220,0.546154
751.444880,0.545973
751.745500,0.563636
752.046080,0.570237
752.346620,0.547036
752.647120,0.569562
752.947580,0.566624
753.248000,0.562218
753.548380,0.566688
753.848720,0.560850
754.149020,0.562218
754.449280,0.577807
754.749500,0.570007
755.049680,0.578000
755.349820,0.576384
755.649920,0.582287
755.949980,0.589250
756.250000,0.589744
756.549980,0.572937
756.849920,0.592794
757.149820,0.584165
757.449680,0.590099
757.749500,0.601909
758.049280,0.589078
758.349020,0.584145
758.648720,0.605935
758.948380,0.600000
759.248000,0.599730
759.547580,0.603228
759.847120,0.605100
760.146620,0.612314
760.446080,0.608871
760.745500,0.612587
761.044880,0.620739
761.344220,0.613685
761.643520,0.617938
761.942780,0.615115
762.242000,0.628006
762.541180,0.629577
762.840320,0.634129
763.139420,0.635021
763.438480,0.616541
763.737500,0.625086
764.036480,0.626834
764.335420,0.628088
764.634320,0.627166
764.933180,0.623288
765.232000,0.644691
765.530780,0.654035
765.829520,0.648252
766.128220,0.636743
766.426880,0.659559
766.725500,0.647704
767.024080,0.640604
767.322620,0.652144
767.621120,0.647696
767.919580,0.669625
768.218000,0.658687
768.516380,0.664638
768.814720,0.645405
769.113020,0.668504
769.411280,0.680939
769.709500,0.668471
770.007680,0.659168
770.305820,0.672076
770.603920,0.655660
770.901980,0.672814
771.200000,0.661685
771.497980,0.671582
771.795920,0.674247
772.093820,0.669786
772.391680,0.675016
772.689500,0.674324
772.987280,0.690236
773.285020,0.684211
773.582720,0.695270
773.880380,0.701441
774.178000,0.686435
774.475580,0.685198
774.773120,0.678046
775.070620,0.698445
775.368080,0.699399
775.665500,0.693083
775.962880,0.694463
776.260220,0.718708
776.557520,0.703135
776.854780,0.705206
777.152000,0.683024
777.449180,0.714767
777.746320,0.700269
778.043420,0.700546
778.340480,0.709066
778.637500,0.713996
778.934480,0.710155
779.231420,0.713026
779.528320,0.702739
779.825180,0.693017
780.122000,0.705179
780.418780,0.731874
780.715520,0.731724
781.012220,0.731507
781.308880,0.723462
781.605500,0.709589
781.902080,0.726899
782.198620,0.719754
782.495120,0.733196
782.791580,0.742779
783.088000,0.734300
783.384380,0.733838
783.680720,0.720246
783.977020,0.724019
784.273280,0.740559
784.569500,0.743536
784.865680,0.728790
785.161820,0.731250
785.457920,0.726958
785.753980,0.739707
786.050000,0.740331
786.345980,0.719444
786.641920,0.741152
786.937820,0.745726
787.233680,0.746695
787.529500,0.745492
787.825280,0.746459
788.121020,0.761331
788.416720,0.745942
788.712380,0.748942
789.008000,0.736544
789.303580,0.737102
789.599120,0.749818
789.894620,0.763899
790.190080,0.746918
790.485500,0.741541
790.780880,0.746953
791.076220,0.746753
791.371520,0.757444
791.666780,0.754182
791.962000,0.761940
792.257180,0.756223
792.552320,0.746918
792.847420,0.751820
793.142480,0.756777
793.437500,0.752533
793.732480,0.754206
794.027420,0.761128
794.322320,0.774795
794.617180,0.767459
794.912000,0.757058
795.206780,0.751678
795.501520,0.769582
795.796220,0.761481
796.090880,0.764130
796.385500,0.747376
796.680080,0.751683
796.974620,0.761976
797.269120,0.757002
797.563580,0.767176
797.858000,0.770691
798.152380,0.777262
798.446720,0.769231
798.741020,0.756549
799.035280,0.770186
799.329500,0.775212
799.623680,0.772868
