399.985280,0.256757
400.329500,0.283784
400.673680,0.177215
401.017820,0.235294
401.361920,0.303030
401.705980,0.219512
402.050000,0.129870
402.393980,0.235294
402.737920,0.258427
403.081820,0.288660
403.425680,0.313953
403.769500,0.260417
404.113280,0.264368
404.457020,0.258427
404.800720,0.260870
405.144380,0.303030
405.488000,0.247312
405.831580,0.319588
406.175120,0.265957
406.518620,0.290000
406.862080,0.309278
407.205500,0.239583
407.548880,0.244898
407.892220,0.274510
408.235520,0.308511
408.578780,0.285714
408.922000,0.250000
409.265180,0.303030
409.608320,0.282828
409.951420,0.340206
410.294480,0.313725
410.637500,0.304348
410.980480,0.225490
411.323420,0.265306
411.666320,0.266055
412.009180,0.309091
412.352000,0.168317
412.694780,0.302752
413.037520,0.256881
413.380220,0.288288
413.722880,0.285714
414.065500,0.324324
414.408080,0.274336
414.750620,0.292035
415.093120,0.247934
415.435580,0.302521
415.778000,0.310606
416.120380,0.235294
416.462720,0.246032
416.805020,0.323308
417.147280,0.305970
417.489500,0.300000
417.831680,0.287671
418.173820,0.283688
418.515920,0.258741
418.857980,0.234177
419.200000,0.250000
419.541980,0.266272
419.883920,0.292135
420.225820,0.277457
420.567680,0.279330
420.909500,0.311475
421.251280,0.276042
421.593020,0.250000
421.934720,0.257576
422.276380,0.271795
422.618000,0.294118
422.959580,0.264706
423.301120,0.283105
423.642620,0.252174
423.984080,0.279070
424.325500,0.242152
424.666880,0.254310
425.008220,0.252101
425.349520,0.254237
425.690780,0.215385
426.032000,0.235294
426.373180,0.265560
426.714320,0.277344
427.055420,0.250965
427.396480,0.262172
427.737500,0.233202
428.078480,0.264822
428.419420,0.253012
428.760320,0.233716
429.101180,0.267717
429.442000,0.245211
429.782780,0.246154
430.123520,0.223529
430.464220,0.236162
430.804880,0.249042
431.145500,0.232727
431.486080,0.254682
431.826620,0.240310
432.167120,0.220588
432.507580,0.250000
432.848000,0.233813
433.188380,0.245487
433.528720,0.230189
433.869020,0.246429
434.209280,0.214035
434.549500,0.247387
434.889680,0.242424
435.229820,0.201365
435.569920,0.228374
435.909980,0.213592
436.250000,0.227119
436.589980,0.210526
436.929920,0.250794
437.269820,0.219436
437.609680,0.233728
437.949500,0.225904
438.289280,0.229462
438.629020,0.212209
438.968720,0.206395
439.308380,0.203252
439.648000,0.216438
439.987580,0.222222
440.327120,0.237333
440.666620,0.218182
441.006080,0.204604
441.345500,0.216216
441.684880,0.212919
442.024220,0.205955
442.363520,0.226190
442.702780,0.222727
443.042000,0.202643
443.381180,0.221983
443.720320,0.224622
444.059420,0.216387
444.398480,0.205021
444.737500,0.215164
445.076480,0.212302
445.415420,0.221557
445.754320,0.205821
446.093180,0.209174
446.432000,0.218045
446.770780,0.214421
447.109520,0.211397
447.448220,0.214669
447.786880,0.220036
448.125500,0.217241
448.464080,0.208929
448.802620,0.209220
449.141120,0.205882
449.479580,0.208042
449.818000,0.228916
450.156380,0.214047
450.494720,0.221488
450.833020,0.213287
451.171280,0.208904
451.509500,0.226481
451.847680,0.231029
452.185820,0.218589
452.523920,0.233677
452.861980,0.212479
453.200000,0.234219
453.537980,0.223529
453.875920,0.228571
454.213820,0.215753
454.551680,0.226821
454.889500,0.225970
455.227280,0.211744
455.565020,0.241206
455.902720,0.227953
456.240380,0.227953
456.578000,0.236934
456.915580,0.233161
457.253120,0.235197
457.590620,0.241379
457.928080,0.244108
458.265500,0.236486
458.602880,0.246753
458.940220,0.228426
459.277520,0.244800
459.614780,0.245499
459.952000,0.236025
460.289180,0.242089
460.626320,0.244094
460.963420,0.234249
461.300480,0.249235
461.637500,0.238829
461.974480,0.261468
462.311420,0.257824
462.648320,0.243045
462.985180,0.245337
463.322000,0.251488
463.658780,0.254144
463.995520,0.243466
464.332220,0.247922
464.668880,0.252688
465.005500,0.261394
465.342080,0.249680
465.678620,0.244772
466.015120,0.263907
466.351580,0.273072
466.688000,0.265530
467.024380,0.274605
467.360720,0.255682
467.697020,0.268793
468.033280,0.272222
468.369500,0.278146
468.705680,0.269448
469.041820,0.275000
469.377920,0.266811
469.713980,0.270855
470.050000,0.278261
470.385980,0.278865
470.721920,0.264447
471.057820,0.278752
471.393680,0.275023
471.729500,0.284523
472.065280,0.290698
472.401020,0.275709
472.736720,0.277487
473.072380,0.283662
473.408000,0.270670
473.743580,0.275952
474.079120,0.285099
474.414620,0.286684
474.750080,0.276648
475.085500,0.288651
475.420880,0.283930
475.756220,0.291905
476.091520,0.286445
476.426780,0.291262
476.762000,0.289622
477.097180,0.287200
477.432320,0.290792
477.767420,0.292484
478.102480,0.298425
478.437500,0.294745
478.772480,0.292356
479.107420,0.285598
479.442320,0.293365
479.777180,0.301512
480.112000,0.291217
480.446780,0.289166
480.781520,0.304348
481.116220,0.301536
481.450880,0.286495
481.785500,0.306171
482.120080,0.304075
482.454620,0.306915
482.789120,0.298567
483.123580,0.303738
483.458000,0.298259
483.792380,0.295527
484.126720,0.297297
484.461020,0.297424
484.795280,0.296839
485.129500,0.316446
485.463680,0.303101
485.797820,0.301711
486.131920,0.299158
486.465980,0.299614
486.800000,0.307634
487.133980,0.292296
487.467920,0.299923
487.801820,0.310450
488.135680,0.294920
488.469500,0.295764
488.803280,0.299406
489.137020,0.298901
489.470720,0.297478
489.804380,0.296214
490.138000,0.300445
490.471580,0.296979
490.805120,0.295211
491.138620,0.292822
491.472080,0.295406
491.805500,0.298466
492.138880,0.289090
492.472220,0.296194
492.805520,0.304469
493.138780,0.304618
493.472000,0.291639
493.805180,0.306276
494.138320,0.295530
494.471420,0.298177
494.804480,0.290427
495.137500,0.288190
495.470480,0.295092
495.803420,0.286524
496.136320,0.285714
496.469180,0.285451
496.802000,0.290954
497.134780,0.296543
497.467520,0.296636
497.800220,0.292453
498.132880,0.295121
498.465500,0.284473
498.798080,0.280251
499.130620,0.281303
499.463120,0.279618
499.795580,0.276678
500.128000,0.273025
500.460380,0.278256
500.792720,0.277837
501.125020,0.273778
501.457280,0.271540
501.789500,0.277893
502.121680,0.278901
502.453820,0.270270
502.785920,0.270635
503.117980,0.270854
503.450000,0.274736
503.781980,0.265571
504.113920,0.263632
504.445820,0.268352
504.777680,0.260235
505.109500,0.262500
505.441280,0.262906
505.773020,0.264443
506.104720,0.259067
506.436380,0.262660
506.768000,0.261459
507.099580,0.248970
507.431120,0.256206
507.762620,0.255169
508.094080,0.258432
508.425500,0.260504
508.756880,0.256516
509.088220,0.249770
509.419520,0.255121
509.750780,0.254920
510.082000,0.249534
510.413180,0.249194
510.744320,0.246203
511.075420,0.252979
511.406480,0.248237
511.737500,0.246759
512.068480,0.249530
512.399420,0.248357
512.730320,0.240647
513.061180,0.245956
513.392000,0.247515
513.722780,0.241595
514.053520,0.238620
514.384220,0.234063
514.714880,0.241742
515.045500,0.232280
515.376080,0.237288
515.706620,0.240623
516.037120,0.235784
516.367580,0.236077
516.698000,0.241176
517.028380,0.239325
517.358720,0.240988
517.689020,0.239367
518.019280,0.237331
518.349500,0.243791
518.679680,0.238264
519.009820,0.229757
519.339920,0.245992
519.669980,0.233551
520.000000,0.234335
520.329980,0.228616
520.659920,0.234663
520.989820,0.235810
521.319680,0.239198
521.649500,0.231362
521.979280,0.240084
522.309020,0.237552
522.638720,0.229391
522.968380,0.241468
523.298000,0.235908
523.627580,0.235903
523.957120,0.232208
524.286620,0.234497
524.616080,0.238366
524.945500,0.237209
525.274880,0.242175
525.604220,0.237060
525.933520,0.240042
526.262780,0.234668
526.592000,0.239980
526.921180,0.239716
527.250320,0.238458
527.579420,0.249621
527.908480,0.240768
528.237500,0.250745
528.566480,0.242515
528.895420,0.244455
529.224320,0.246161
529.553180,0.247711
529.882000,0.254015
530.210780,0.251931
530.539520,0.246884
530.868220,0.254189
531.196880,0.254658
531.525500,0.261501
531.854080,0.255629
532.182620,0.249416
532.511120,0.251972
532.839580,0.268603
533.168000,0.261623
533.496380,0.261644
533.824720,0.257963
534.153020,0.262595
534.481280,0.261233
534.809500,0.268250
535.137680,0.266493
535.465820,0.265893
535.793920,0.270728
536.121980,0.271507
536.450000,0.278224
536.777980,0.275241
537.105920,0.283105
537.433820,0.277823
537.761680,0.280408
538.089500,0.283691
538.417280,0.281735
538.745020,0.285261
539.072720,0.281921
539.400380,0.285936
539.728000,0.296750
540.055580,0.291011
540.383120,0.294862
540.710620,0.294271
541.038080,0.291774
541.365500,0.300000
541.692880,0.301235
542.020220,0.300828
542.347520,0.307968
542.674780,0.301341
543.002000,0.304759
543.329180,0.317082
543.656320,0.314698
543.983420,0.309744
544.310480,0.313965
544.637500,0.321733
544.964480,0.317295
545.291420,0.322366
545.618320,0.318061
545.945180,0.319051
546.272000,0.322412
546.598780,0.326123
546.925520,0.327069
547.252220,0.334104
547.578880,0.333985
547.905500,0.338235
548.232080,0.341455
548.558620,0.342987
548.885120,0.343801
549.211580,0.342334
549.538000,0.345979
549.864380,0.345338
550.190720,0.351954
550.517020,0.358866
550.843280,0.365147
551.169500,0.351463
551.495680,0.360710
551.821820,0.365121
552.147920,0.364346
552.473980,0.364175
552.800000,0.366906
553.125980,0.367387
553.451920,0.379562
553.777820,0.375416
554.103680,0.374115
554.429500,0.371276
554.755280,0.378505
555.081020,0.378342
555.406720,0.387403
555.732380,0.384277
556.058000,0.384589
556.383580,0.386169
556.709120,0.391454
557.034620,0.393731
557.360080,0.392746
557.685500,0.396266
558.010880,0.394454
558.336220,0.403866
558.661520,0.401985
558.986780,0.408930
559.312000,0.403846
559.637180,0.404309
559.962320,0.408686
560.287420,0.417842
560.612480,0.418730
560.937500,0.414097
561.262480,0.415323
561.587420,0.417845
561.912320,0.421887
562.237180,0.415618
562.562000,0.421250
562.886780,0.424378
563.211520,0.422876
563.536220,0.425603
563.860880,0.431912
564.185500,0.429268
564.510080,0.440181
564.834620,0.439151
565.159120,0.435338
565.483580,0.438616
565.808000,0.439274
566.132380,0.436777
566.456720,0.448602
566.781020,0.451988
567.105280,0.451040
567.429500,0.451062
567.753680,0.458765
568.077820,0.449942
568.401920,0.450344
568.725980,0.450474
569.050000,0.460076
569.373980,0.445756
569.697920,0.458476
570.021820,0.458801
570.345680,0.459242
570.669500,0.456314
570.993280,0.461056
571.317020,0.457070
571.640720,0.456095
571.964380,0.465108
572.288000,0.469585
572.611580,0.469487
572.935120,0.465021
573.258620,0.470830
573.582080,0.468703
573.905500,0.463887
574.228880,0.479213
574.552220,0.475632
574.875520,0.474684
575.198780,0.474521
575.522000,0.478372
575.845180,0.470630
576.168320,0.472871
576.491420,0.487645
576.814480,0.476673
577.137500,0.484848
577.460480,0.484596
577.783420,0.482672
578.106320,0.486823
578.429180,0.484977
578.752000,0.489059
579.074780,0.485840
579.397520,0.488702
579.720220,0.482304
580.042880,0.483317
580.365500,0.483124
580.688080,0.484735
581.010620,0.493081
581.333120,0.493320
581.655580,0.492174
581.978000,0.494180
582.300380,0.489776
582.622720,0.491101
582.945020,0.488947
583.267280,0.487789
583.589500,0.486035
583.911680,0.495078
584.233820,0.482216
584.555920,0.489757
584.877980,0.492776
585.200000,0.473910
585.521980,0.491196
585.843920,0.489628
586.165820,0.487203
586.487680,0.481493
586.809500,0.482748
587.131280,0.479740
587.453020,0.488095
587.774720,0.484329
588.096380,0.488915
588.418000,0.490196
588.739580,0.487209
589.061120,0.487924
589.382620,0.488252
589.704080,0.488359
590.025500,0.485731
590.346880,0.491287
590.668220,0.479698
590.989520,0.476983
591.310780,0.480806
591.632000,0.479235
591.953180,0.478550
592.274320,0.480480
592.595420,0.475485
592.916480,0.477044
593.237500,0.472379
593.558480,0.479688
593.879420,0.478284
594.200320,0.475221
594.521180,0.468792
594.842000,0.475551
595.162780,0.478098
595.483520,0.471949
595.804220,0.474221
596.124880,0.475087
596.445500,0.464239
596.766080,0.477817
597.086620,0.464437
597.407120,0.461559
597.727580,0.468311
598.048000,0.465221
598.368380,0.464755
598.688720,0.461599
599.009020,0.460191
599.329280,0.459287
599.649500,0.456947
599.969680,0.458066
600.289820,0.457265
600.609920,0.451242
600.929980,0.452966
601.250000,0.451081
601.569980,0.450986
601.889920,0.443732
602.209820,0.439665
602.529680,0.453172
602.849500,0.442171
603.169280,0.442271
603.489020,0.445890
603.808720,0.439660
604.128380,0.440397
604.448000,0.430663
604.767580,0.441620
605.087120,0.429086
605.406620,0.428771
605.726080,0.435130
606.045500,0.424909
606.364880,0.429544
606.684220,0.427470
607.003520,0.418005
607.322780,0.421546
607.642000,0.424182
607.961180,0.415727
608.280320,0.416473
608.599420,0.411356
608.918480,0.415543
609.237500,0.408744
609.556480,0.411956
609.875420,0.408447
610.194320,0.401240
610.513180,0.402782
610.832000,0.407385
611.150780,0.405527
611.469520,0.403922
611.788220,0.403265
612.106880,0.398070
612.425500,0.389464
612.744080,0.398892
613.062620,0.390520
613.381120,0.390311
613.699580,0.392397
614.018000,0.386057
614.336380,0.392967
614.654720,0.382946
614.973020,0.383524
615.291280,0.382089
615.609500,0.389223
615.927680,0.382262
616.245820,0.373531
616.563920,0.374883
616.881980,0.371687
617.200000,0.368585
617.517980,0.374611
617.835920,0.360982
618.153820,0.368356
618.471680,0.365271
618.789500,0.365639
619.107280,0.366823
619.425020,0.364415
619.742720,0.361268
620.060380,0.355374
620.378000,0.360289
620.695580,0.352171
621.013120,0.352756
621.330620,0.354879
621.648080,0.342587
621.965500,0.348181
622.282880,0.346784
622.600220,0.345862
622.917520,0.344360
623.234780,0.347798
623.552000,0.345958
623.869180,0.339426
624.186320,0.346387
624.503420,0.342320
624.820480,0.340559
625.137500,0.341332
625.454480,0.338543
625.771420,0.337957
626.088320,0.331652
626.405180,0.334785
626.722000,0.328419
627.038780,0.331454
627.355520,0.328125
627.672220,0.329705
627.988880,0.327527
628.305500,0.330009
628.622080,0.327447
628.938620,0.324771
629.255120,0.326385
629.571580,0.319032
629.888000,0.318809
630.204380,0.319730
630.520720,0.316575
630.837020,0.318841
631.153280,0.318645
631.469500,0.320800
631.785680,0.314949
632.101820,0.313028
632.417920,0.315946
632.733980,0.312125
633.050000,0.320497
633.365980,0.311203
633.681920,0.313544
633.997820,0.314106
634.313680,0.311413
634.629500,0.304630
634.945280,0.312317
635.261020,0.309070
635.576720,0.310041
635.892380,0.303224
636.208000,0.306798
636.523580,0.317451
636.839120,0.307759
637.154620,0.304058
637.470080,0.301578
637.785500,0.307151
638.100880,0.302346
638.416220,0.307161
638.731520,0.303725
639.046780,0.304690
639.362000,0.307913
639.677180,0.307824
639.992320,0.303919
640.307420,0.308514
640.622480,0.308037
640.937500,0.303190
641.252480,0.301871
641.567420,0.305200
641.882320,0.305122
642.197180,0.305727
642.512000,0.303387
642.826780,0.297920
643.141520,0.307030
643.456220,0.305755
643.770880,0.308734
644.085500,0.300727
644.400080,0.302809
644.714620,0.304905
645.029120,0.310231
645.343580,0.304169
645.658000,0.308077
645.972380,0.307756
646.286720,0.308258
646.601020,0.306947
646.915280,0.303811
647.229500,0.305769
647.543680,0.307097
647.857820,0.309937
648.171920,0.310906
648.485980,0.310770
648.800000,0.311656
649.113980,0.312361
649.427920,0.311234
649.741820,0.311074
650.055680,0.313494
650.369500,0.314182
650.683280,0.310766
650.997020,0.314081
651.310720,0.311227
651.624380,0.310989
651.938000,0.314681
652.251580,0.317562
652.565120,0.310788
652.878620,0.319820
653.192080,0.321629
653.505500,0.319495
653.818880,0.321297
654.132220,0.325548
654.445520,0.328701
654.758780,0.326629
655.072000,0.333238
655.385180,0.320685
655.698320,0.322949
656.011420,0.331900
656.324480,0.327310
656.637500,0.332851
656.950480,0.328831
657.263420,0.326929
657.576320,0.331456
657.889180,0.334415
658.202000,0.337560
658.514780,0.337898
658.827520,0.336735
659.140220,0.342224
659.452880,0.340381
659.765500,0.330524
660.078080,0.341860
660.390620,0.344332
660.703120,0.342194
661.015580,0.341411
661.328000,0.351071
661.640380,0.351662
661.952720,0.355652
662.265020,0.354127
662.577280,0.352735
662.889500,0.349732
663.201680,0.357371
663.513820,0.353490
663.825920,0.362152
664.137980,0.360375
664.450000,0.359335
664.761980,0.359083
665.073920,0.362220
665.385820,0.364856
665.697680,0.366612
666.009500,0.371134
666.321280,0.373095
666.633020,0.375665
666.944720,0.376475
667.256380,0.378869
667.568000,0.370584
667.879580,0.377891
668.191120,0.388736
668.502620,0.377610
668.814080,0.388772
669.125500,0.386247
669.436880,0.391770
669.748220,0.390100
670.059520,0.394958
670.370780,0.398399
670.682000,0.400708
670.993180,0.404863
671.304320,0.400844
671.615420,0.396307
671.926480,0.408091
672.237500,0.400143
672.548480,0.405252
672.859420,0.409936
673.170320,0.412768
673.481180,0.418537
673.792000,0.415074
674.102780,0.420826
674.413520,0.424353
674.724220,0.417786
675.034880,0.425009
675.345500,0.421590
675.656080,0.424319
675.966620,0.429611
676.277120,0.433175
676.587580,0.434094
676.898000,0.430011
677.208380,0.437338
677.518720,0.432166
677.829020,0.440872
678.139280,0.449592
678.449500,0.436316
678.759680,0.452604
679.069820,0.445725
679.379920,0.452282
679.689980,0.450056
680.000000,0.459439
680.309980,0.468077
680.619920,0.459296
680.929820,0.465099
681.239680,0.459380
681.549500,0.471111
681.859280,0.475355
682.169020,0.474077
682.478720,0.479806
682.788380,0.478405
683.098000,0.474196
683.407580,0.483302
683.717120,0.486486
684.026620,0.484940
684.336080,0.488822
684.645500,0.484474
684.954880,0.493389
685.264220,0.500189
685.573520,0.503236
685.882780,0.507863
686.192000,0.499624
686.501180,0.499811
686.810320,0.513836
687.119420,0.510072
687.428480,0.511584
687.737500,0.508442
688.046480,0.511887
688.355420,0.512260
688.664320,0.512242
688.973180,0.523354
689.282000,0.527392
689.590780,0.525307
689.899520,0.515002
690.208220,0.530963
690.516880,0.531501
690.825500,0.529811
691.134080,0.525057
691.442620,0.531250
691.751120,0.537732
692.059580,0.546809
692.368000,0.543355
692.676380,0.551908
692.984720,0.540076
693.293020,0.554711
693.601280,0.552079
693.909500,0.557321
694.217680,0.553313
694.525820,0.559025
694.833920,0.561236
695.141980,0.564983
695.450000,0.564122
695.757980,0.570283
696.065920,0.569320
696.373820,0.567360
696.681680,0.575758
696.989500,0.586260
697.297280,0.569039
697.605020,0.582937
697.912720,0.573021
698.220380,0.576938
698.528000,0.587421
698.835580,0.583959
699.143120,0.591972
699.450620,0.587510
699.758080,0.589020
700.065500,0.590982
700.372880,0.604800
700.680220,0.593538
700.987520,0.595635
701.294780,0.605434
701.602000,0.597464
701.909180,0.606121
702.216320,0.601877
702.523420,0.610497
702.830480,0.617030
703.137500,0.608340
703.444480,0.619724
703.751420,0.621696
704.058320,0.621290
704.365180,0.625394
704.672000,0.623762
704.978780,0.616465
705.285520,0.629108
705.592220,0.618431
705.898880,0.618597
706.205500,0.632629
706.512080,0.623223
706.818620,0.634675
707.125120,0.633846
707.431580,0.630715
707.738000,0.641797
708.044380,0.643767
708.350720,0.638900
708.657020,0.644392
708.963280,0.648292
709.269500,0.648141
709.575680,0.653831
709.881820,0.654481
710.187920,0.656809
710.493980,0.645849
710.800000,0.643021
711.105980,0.650979
711.411920,0.658652
711.717820,0.648733
712.023680,0.653323
712.329500,0.666798
712.635280,0.661628
712.941020,0.657905
713.246720,0.667589
713.552380,0.663265
713.858000,0.669689
714.163580,0.663773
714.469120,0.667448
714.774620,0.669562
715.080080,0.679230
715.385500,0.680256
715.690880,0.673767
715.996220,0.686212
716.301520,0.673913
716.606780,0.676887
716.912000,0.684168
717.217180,0.691939
717.522320,0.688270
717.827420,0.687958
718.132480,0.692493
718.437500,0.683245
718.742480,0.677419
719.047420,0.684871
719.352320,0.679535
719.657180,0.707686
719.962000,0.690653
720.266780,0.686747
720.571520,0.693041
720.876220,0.695581
721.180880,0.683946
721.485500,0.685750
721.790080,0.690021
722.094620,0.705832
722.399120,0.707454
722.703580,0.695671
723.008000,0.690815
723.312380,0.696944
723.616720,0.696558
723.921020,0.699004
724.225280,0.695026
724.529500,0.702715
724.833680,0.711744
725.137820,0.702643
725.441920,0.701293
725.745980,0.701119
726.050000,0.712224
726.353980,0.701667
726.657920,0.700855
726.961820,0.700913
727.265680,0.719371
727.569500,0.699269
727.873280,0.696074
728.177020,0.723630
728.480720,0.702315
728.784380,0.707374
729.088000,0.706547
729.391580,0.710090
729.695120,0.722649
729.998620,0.709847
730.302080,0.703988
730.605500,0.710820
730.908880,0.707496
731.212220,0.711068
731.515520,0.699659
731.818780,0.700971
732.122000,0.713583
732.425180,0.710202
732.728320,0.718394
733.031420,0.709774
733.334480,0.709694
733.637500,0.709173
733.940480,0.721085
734.243420,0.710499
734.546320,0.726141
734.849180,0.707128
735.152000,0.728216
735.454780,0.723140
735.757520,0.714963
736.060220,0.716166
736.362880,0.706933
736.665500,0.704961
736.968080,0.717894
737.270620,0.720740
737.573120,0.718341
737.875580,0.727872
738.178000,0.715841
738.480380,0.717297
738.782720,0.717012
739.085020,0.710352
739.387280,0.715632
739.689500,0.725934
739.991680,0.727681
740.293820,0.711996
740.595920,0.723428
740.897980,0.727837
741.200000,0.716209
741.501980,0.714613
741.803920,0.715653
742.105820,0.715172
742.407680,0.719860
742.709500,0.703409
743.011280,0.720399
743.313020,0.711884
743.614720,0.699942
743.916380,0.711047
744.218000,0.720167
744.519580,0.711353
744.821120,0.720359
745.122620,0.714799
745.424080,0.710337
745.725500,0.719976
746.026880,0.706281
746.328220,0.709618
746.629520,0.684527
746.930780,0.697304
747.232000,0.712446
747.533180,0.696766
747.834320,0.704200
748.135420,0.707893
748.436480,0.704928
748.737500,0.701668
749.038480,0.702505
749.339420,0.699440
749.640320,0.714645
749.941180,0.701437
750.242000,0.714824
750.542780,0.708437
750.843520,0.723254
751.144220,0.701923
751.444880,0.697527
751.745500,0.692208
752.046080,0.713278
752.346620,0.691366
752.647120,0.697583
752.947580,0.685640
753.248000,0.707286
753.548380,0.694209
753.848720,0.699936
754.149020,0.685364
754.449280,0.691399
754.749500,0.691440
755.049680,0.686667
755.349820,0.679119
755.649920,0.692664
755.949980,0.686131
756.250000,0.701512
756.549980,0.684488
756.849920,0.690687
757.149820,0.660679
757.449680,0.684488
757.749500,0.691207
758.049280,0.672355
758.349020,0.674548
758.648720,0.684610
758.948380,0.680412
759.248000,0.685984
759.547580,0.679220
759.847120,0.679531
760.146620,0.667794
760.446080,0.668683
760.745500,0.669231
761.044880,0.670455
761.344220,0.665716
761.643520,0.670904
761.942780,0.662001
762.242000,0.659830
762.541180,0.664085
762.840320,0.661517
763.139420,0.656821
763.438480,0.647984
763.737500,0.671950
764.036480,0.666667
764.335420,0.657728
764.634320,0.660430
764.933180,0.654795
765.232000,0.655101
765.530780,0.651930
765.829520,0.652448
766.128220,0.651357
766.426880,0.665245
766.725500,0.639479
767.024080,0.650892
767.322620,0.649378
767.621120,0.646341
767.919580,0.639590
768.218000,0.641587
768.516380,0.643002
768.814720,0.633059
769.113020,0.637491
769.411280,0.638122
769.709500,0.646820
770.007680,0.638037
770.305820,0.637593
770.603920,0.630728
770.901980,0.624317
771.200000,0.629755
771.497980,0.617292
771.795920,0.622742
772.093820,0.626337
772.391680,0.617666
772.689500,0.616216
772.987280,0.624916
773.285020,0.623377
773.582720,0.617568
773.880380,0.624571
774.178000,0.620314
774.475580,0.614869
774.773120,0.614458
775.070620,0.611900
775.368080,0.611222
775.665500,0.603089
775.962880,0.614410
776.260220,0.611036
776.557520,0.609740
776.854780,0.598377
777.152000,0.602785
777.449180,0.602158
777.746320,0.584677
778.043420,0.605730
778.340480,0.611637
778.637500,0.598377
778.934480,0.591796
779.231420,0.590231
779.528320,0.580494
779.825180,0.574440
780.122000,0.592297
780.418780,0.599179
780.715520,0.587525
781.012220,0.589726
781.308880,0.582826
781.605500,0.575342
781.902080,0.568104
782.198620,0.570745
782.495120,0.564472
782.791580,0.584594
783.088000,0.572809
783.384380,0.572902
783.680720,0.568399
783.977020,0.559532
784.273280,0.575524
784.569500,0.566737
784.865680,0.570236
785.161820,0.545833
785.457920,0.563410
785.753980,0.561061
786.050000,0.554558
786.345980,0.554167
786.641920,0.545455
786.937820,0.555556
787.233680,0.528184
787.529500,0.545076
787.825280,0.546742
788.121020,0.538952
788.416720,0.546224
788.712380,0.545839
789.008000,0.535411
789.303580,0.530035
789.599120,0.549091
789.894620,0.536462
790.190080,0.540247
790.485500,0.537077
790.780880,0.521864
791.076220,0.533911
791.371520,0.526507
791.666780,0.528727
791.962000,0.522410
792.257180,0.522694
792.552320,0.525743
792.847420,0.513828
793.142480,0.526740
793.437500,0.515195
793.732480,0.522312
794.027420,0.511128
794.322320,0.513796
794.617180,0.508172
794.912000,0.511144
795.206780,0.521999
795.501520,0.522433
795.796220,0.492593
796.090880,0.498870
796.385500,0.497751
796.680080,0.501122
796.974620,0.501497
797.269120,0.492808
797.563580,0.484733
797.858000,0.487472
798.152380,0.497293
798.446720,0.485385
798.741020,0.483051
799.035280,0.491460
799.329500,0.480370
799.623680,0.489922
