399.985280,0.270270
400.329500,0.216216
400.673680,0.316456
401.017820,0.279412
401.361920,0.227273
401.705980,0.280488
402.050000,0.207792
402.393980,0.341176
402.737920,0.303371
403.081820,0.237113
403.425680,0.244186
403.769500,0.208333
404.113280,0.160920
404.457020,0.235955
404.800720,0.217391
405.144380,0.252525
405.488000,0.225806
405.831580,0.278351
406.175120,0.159574
406.518620,0.260000
406.862080,0.278351
407.205500,0.250000
407.548880,0.224490
407.892220,0.186275
408.235520,0.223404
408.578780,0.238095
408.922000,0.163462
409.265180,0.232323
409.608320,0.252525
409.951420,0.216495
410.294480,0.254902
410.637500,0.184783
410.980480,0.215686
411.323420,0.234694
411.666320,0.256881
412.009180,0.236364
412.352000,0.168317
412.694780,0.275229
413.037520,0.155963
413.380220,0.234234
413.722880,0.205357
414.065500,0.252252
414.408080,0.230088
414.750620,0.168142
415.093120,0.190083
415.435580,0.243697
415.778000,0.204545
416.120380,0.226891
416.462720,0.222222
416.805020,0.248120
417.147280,0.194030
417.489500,0.221429
417.831680,0.205479
418.173820,0.177305
418.515920,0.237762
418.857980,0.208861
419.200000,0.230769
419.541980,0.224852
419.883920,0.219101
420.225820,0.225434
420.567680,0.217877
420.909500,0.191257
421.251280,0.229167
421.593020,0.219388
421.934720,0.191919
422.276380,0.220513
422.618000,0.210784
422.959580,0.230392
423.301120,0.223744
423.642620,0.221739
423.984080,0.209302
424.325500,0.183857
424.666880,0.211207
425.008220,0.205882
425.349520,0.224576
425.690780,0.188462
426.032000,0.200000
426.373180,0.236515
426.714320,0.207031
427.055420,0.200772
427.396480,0.239700
427.737500,0.221344
428.078480,0.249012
428.419420,0.228916
428.760320,0.218391
429.101180,0.251969
429.442000,0.272031
429.782780,0.250000
430.123520,0.243137
430.464220,0.239852
430.804880,0.245211
431.145500,0.225455
431.486080,0.235955
431.826620,0.236434
432.167120,0.250000
432.507580,0.235507
432.848000,0.237410
433.188380,0.256318
433.528720,0.222642
433.869020,0.260714
434.209280,0.242105
434.549500,0.264808
434.889680,0.242424
435.229820,0.221843
435.569920,0.238754
435.909980,0.249191
436.250000,0.257627
436.589980,0.253870
436.929920,0.250794
437.269820,0.269592
437.609680,0.251479
437.949500,0.262048
438.289280,0.274788
438.629020,0.273256
438.968720,0.281977
439.308380,0.271003
439.648000,0.257534
439.987580,0.261905
440.327120,0.258667
440.666620,0.272727
441.006080,0.273657
441.345500,0.262899
441.684880,0.253589
442.024220,0.260546
442.363520,0.261905
442.702780,0.268182
443.042000,0.279736
443.381180,0.262931
443.720320,0.289417
444.059420,0.262605
444.398480,0.280335
444.737500,0.278689
445.076480,0.259921
445.415420,0.277445
445.754320,0.274428
446.093180,0.273394
446.432000,0.268797
446.770780,0.275142
447.109520,0.284926
447.448220,0.282648
447.786880,0.288014
448.125500,0.284483
448.464080,0.267857
448.802620,0.273050
449.141120,0.278547
449.479580,0.290210
449.818000,0.275387
450.156380,0.287625
450.494720,0.287603
450.833020,0.291958
451.171280,0.273973
451.509500,0.285714
451.847680,0.283305
452.185820,0.277108
452.523920,0.278351
452.861980,0.283305
453.200000,0.282392
453.537980,0.267227
453.875920,0.275630
454.213820,0.284247
454.551680,0.279801
454.889500,0.274874
455.227280,0.274021
455.565020,0.283082
455.902720,0.279534
456.240380,0.261231
456.578000,0.289199
456.915580,0.290155
457.253120,0.276316
457.590620,0.290640
457.928080,0.279461
458.265500,0.283784
458.602880,0.272727
458.940220,0.279188
459.277520,0.280000
459.614780,0.301146
459.952000,0.268634
460.289180,0.289557
460.626320,0.274016
460.963420,0.279483
461.300480,0.288991
461.637500,0.275809
461.974480,0.298165
462.311420,0.260805
462.648320,0.275256
462.985180,0.269727
463.322000,0.273810
463.658780,0.265193
463.995520,0.273728
464.332220,0.271468
464.668880,0.267473
465.005500,0.269437
465.342080,0.271447
465.678620,0.253383
466.015120,0.269082
466.351580,0.268015
466.688000,0.264312
467.024380,0.268530
467.360720,0.252273
467.697020,0.256264
468.033280,0.257778
468.369500,0.254967
468.705680,0.263811
469.041820,0.267708
469.377920,0.249458
469.713980,0.258496
470.050000,0.253140
470.385980,0.251468
470.721920,0.242899
471.057820,0.250487
471.393680,0.250702
471.729500,0.239110
472.065280,0.247764
472.401020,0.242021
472.736720,0.252182
473.072380,0.249551
473.408000,0.244560
473.743580,0.236159
474.079120,0.243755
474.414620,0.242578
474.750080,0.239219
475.085500,0.235197
475.420880,0.236470
475.756220,0.246116
476.091520,0.233589
476.426780,0.231392
476.762000,0.229284
477.097180,0.236000
477.432320,0.228595
477.767420,0.225490
478.102480,0.232283
478.437500,0.229064
478.772480,0.217494
479.107420,0.228641
479.442320,0.222222
479.777180,0.225139
480.112000,0.216487
480.446780,0.221356
480.781520,0.225443
481.116220,0.222312
481.450880,0.220141
481.785500,0.224684
482.120080,0.225705
482.454620,0.220668
482.789120,0.221338
483.123580,0.217290
483.458000,0.210443
483.792380,0.222045
484.126720,0.219305
484.461020,0.219360
484.795280,0.205089
485.129500,0.219797
485.463680,0.227132
485.797820,0.219285
486.131920,0.213466
486.465980,0.211583
486.800000,0.214504
487.133980,0.210725
487.467920,0.207345
487.801820,0.212052
488.135680,0.212282
488.469500,0.208018
488.803280,0.212481
489.137020,0.216117
489.470720,0.218101
489.804380,0.213808
490.138000,0.218843
490.471580,0.216654
490.805120,0.212294
491.138620,0.212509
491.472080,0.209187
491.805500,0.207810
492.138880,0.209868
492.472220,0.212457
492.805520,0.217877
493.138780,0.209511
493.472000,0.216054
493.805180,0.214188
494.138320,0.208806
494.471420,0.210937
494.804480,0.214748
495.137500,0.215019
495.470480,0.215424
495.803420,0.215365
496.136320,0.217419
496.469180,0.216083
496.802000,0.225550
497.134780,0.217708
497.467520,0.220795
497.800220,0.215212
498.132880,0.222810
498.465500,0.225377
498.798080,0.220320
499.130620,0.226277
499.463120,0.231331
499.795580,0.227173
500.128000,0.231608
500.460380,0.228741
500.792720,0.225345
501.125020,0.225959
501.457280,0.221410
501.789500,0.235021
502.121680,0.237947
502.453820,0.226415
502.785920,0.230115
503.117980,0.234053
503.450000,0.247112
503.781980,0.239163
504.113920,0.234234
504.445820,0.234322
504.777680,0.240000
505.109500,0.240385
505.441280,0.245220
505.773020,0.244246
506.104720,0.242110
506.436380,0.248935
506.768000,0.253508
507.099580,0.246224
507.431120,0.251991
507.762620,0.248590
508.094080,0.252051
508.425500,0.257703
508.756880,0.257888
509.088220,0.264029
509.419520,0.264898
509.750780,0.262887
510.082000,0.268657
510.413180,0.267158
510.744320,0.268753
511.075420,0.269478
511.406480,0.268923
511.737500,0.266667
512.068480,0.277256
512.399420,0.278404
512.730320,0.271132
513.061180,0.281637
513.392000,0.278277
513.722780,0.285303
514.053520,0.286536
514.384220,0.285442
514.714880,0.292006
515.045500,0.291188
515.376080,0.286199
515.706620,0.296152
516.037120,0.298039
516.367580,0.305076
516.698000,0.291176
517.028380,0.298908
517.358720,0.309630
517.689020,0.310089
518.019280,0.304566
518.349500,0.309681
518.679680,0.307925
519.009820,0.308198
519.339920,0.317635
519.669980,0.312406
520.000000,0.322466
520.329980,0.321410
520.659920,0.328732
520.989820,0.326625
521.319680,0.323045
521.649500,0.328021
521.979280,0.335073
522.309020,0.321058
522.638720,0.325141
522.968380,0.338159
523.298000,0.328810
523.627580,0.331609
523.957120,0.342857
524.286620,0.336634
524.616080,0.343330
524.945500,0.352455
525.274880,0.353002
525.604220,0.342650
525.933520,0.349057
526.262780,0.341612
526.592000,0.355657
526.921180,0.352971
527.250320,0.355657
527.579420,0.359272
527.908480,0.359429
528.237500,0.365938
528.566480,0.366267
528.895420,0.374076
529.224320,0.362556
529.553180,0.368675
529.882000,0.372749
530.210780,0.372104
530.539520,0.374401
530.868220,0.378171
531.196880,0.368849
531.525500,0.385472
531.854080,0.375235
532.182620,0.384867
532.511120,0.389791
532.839580,0.396552
533.168000,0.392434
533.496380,0.389041
533.824720,0.391655
534.153020,0.383415
534.481280,0.388546
534.809500,0.396658
535.137680,0.391927
535.465820,0.390893
535.793920,0.400169
536.121980,0.397818
536.450000,0.405497
536.777980,0.403435
537.105920,0.403902
537.433820,0.406301
537.761680,0.412653
538.089500,0.410360
538.417280,0.405094
538.745020,0.414422
539.072720,0.409215
539.400380,0.410256
539.728000,0.417208
540.055580,0.405618
540.383120,0.415115
540.710620,0.410342
541.038080,0.417927
541.365500,0.420956
541.692880,0.418605
542.020220,0.415617
542.347520,0.416726
542.674780,0.414255
543.002000,0.411477
543.329180,0.427920
543.656320,0.422293
543.983420,0.413333
544.310480,0.411145
544.637500,0.430570
544.964480,0.425303
545.291420,0.421402
545.618320,0.421979
545.945180,0.421885
546.272000,0.421363
546.598780,0.419535
546.925520,0.425981
547.252220,0.422912
547.578880,0.428478
547.905500,0.424510
548.232080,0.424301
548.558620,0.425317
548.885120,0.430815
549.211580,0.424301
549.538000,0.427691
549.864380,0.425402
550.190720,0.430094
550.517020,0.425359
550.843280,0.433225
551.169500,0.425254
551.495680,0.431012
551.821820,0.428805
552.147920,0.425179
552.473980,0.428713
552.800000,0.421517
553.125980,0.433202
553.451920,0.420372
553.777820,0.425383
554.103680,0.423997
554.429500,0.422497
554.755280,0.426569
555.081020,0.416778
555.406720,0.421605
555.732380,0.422907
556.058000,0.422946
556.383580,0.419719
556.709120,0.410407
557.034620,0.418188
557.360080,0.416580
557.685500,0.416321
558.010880,0.419757
558.336220,0.408436
558.661520,0.415101
558.986780,0.415663
559.312000,0.414530
559.637180,0.419390
559.962320,0.413314
560.287420,0.410085
560.612480,0.416936
560.937500,0.414097
561.262480,0.409457
561.587420,0.406601
561.912320,0.401990
562.237180,0.406366
562.562000,0.405163
562.886780,0.404682
563.211520,0.401639
563.536220,0.400000
563.860880,0.404753
564.185500,0.402627
564.510080,0.403687
564.834620,0.394864
565.159120,0.398872
565.483580,0.405169
565.808000,0.393492
566.132380,0.395002
566.456720,0.392668
566.781020,0.390473
567.105280,0.388280
567.429500,0.397951
567.753680,0.394323
568.077820,0.390414
568.401920,0.389228
568.725980,0.389374
569.050000,0.388213
569.373980,0.381424
569.697920,0.379598
570.021820,0.383895
570.345680,0.383467
570.669500,0.376192
570.993280,0.375784
571.317020,0.377786
571.640720,0.383105
571.964380,0.371938
572.288000,0.373516
572.611580,0.375889
572.935120,0.376730
573.258620,0.369110
573.582080,0.368480
573.905500,0.363738
574.228880,0.367854
574.552220,0.369366
574.875520,0.366716
575.198780,0.358872
575.522000,0.352639
575.845180,0.355659
576.168320,0.354653
576.491420,0.363372
576.814480,0.359855
577.137500,0.348124
577.460480,0.353751
577.783420,0.356199
578.106320,0.357194
578.429180,0.350654
578.752000,0.354637
579.074780,0.347943
579.397520,0.350549
579.720220,0.349421
580.042880,0.348530
580.365500,0.341827
580.688080,0.344301
581.010620,0.340533
581.333120,0.336673
581.655580,0.343656
581.978000,0.339209
582.300380,0.333333
582.622720,0.333883
582.945020,0.332900
583.267280,0.332465
583.589500,0.337079
583.911680,0.324230
584.233820,0.325779
584.555920,0.324299
584.877980,0.326005
585.200000,0.321670
585.521980,0.317578
585.843920,0.323368
586.165820,0.322364
586.487680,0.316581
586.809500,0.317432
587.131280,0.313517
587.453020,0.319940
587.774720,0.319633
588.096380,0.320887
588.418000,0.314018
588.739580,0.315608
589.061120,0.313111
589.382620,0.314613
589.704080,0.307994
590.025500,0.314783
590.346880,0.314221
590.668220,0.314758
590.989520,0.307266
591.310780,0.307374
591.632000,0.308197
591.953180,0.299474
592.274320,0.305487
592.595420,0.298491
592.916480,0.298017
593.237500,0.297763
593.558480,0.300242
593.879420,0.298894
594.200320,0.304313
594.521180,0.299602
594.842000,0.303332
595.162780,0.298611
595.483520,0.298591
595.804220,0.300483
596.124880,0.301359
596.445500,0.292638
596.766080,0.302232
597.086620,0.297505
597.407120,0.289100
597.727580,0.299655
598.048000,0.293573
598.368380,0.289584
598.688720,0.282045
599.009020,0.288217
599.329280,0.292443
599.649500,0.289488
599.969680,0.289797
600.289820,0.292735
600.609920,0.289073
600.929980,0.285943
601.250000,0.285405
601.569980,0.286794
601.889920,0.282010
602.209820,0.290314
602.529680,0.293051
602.849500,0.285597
603.169280,0.289060
603.489020,0.288957
603.808720,0.290181
604.128380,0.286148
604.448000,0.289779
604.767580,0.286872
605.087120,0.283657
605.406620,0.290512
605.726080,0.292558
606.045500,0.287267
606.364880,0.288064
606.684220,0.287264
607.003520,0.287271
607.322780,0.285389
607.642000,0.290350
607.961180,0.289101
608.280320,0.289443
608.599420,0.287949
608.918480,0.295601
609.237500,0.288146
609.556480,0.289731
609.875420,0.290313
610.194320,0.285799
610.513180,0.290323
610.832000,0.288862
611.150780,0.293181
611.469520,0.295626
611.788220,0.295647
612.106880,0.291315
612.425500,0.289281
612.744080,0.305633
613.062620,0.293272
613.381120,0.292505
613.699580,0.298283
614.018000,0.296990
614.336380,0.298581
614.654720,0.297364
614.973020,0.298365
615.291280,0.302138
615.609500,0.309350
615.927680,0.297899
616.245820,0.303649
616.563920,0.302456
616.881980,0.306517
617.200000,0.306065
617.517980,0.303360
617.835920,0.308481
618.153820,0.304321
618.471680,0.302946
618.789500,0.308055
619.107280,0.312676
619.425020,0.313670
619.742720,0.317012
620.060380,0.315575
620.378000,0.317810
620.695580,0.321201
621.013120,0.318110
621.330620,0.324129
621.648080,0.321136
621.965500,0.321518
622.282880,0.325347
622.600220,0.327543
622.917520,0.323566
623.234780,0.331726
623.552000,0.330681
623.869180,0.333123
624.186320,0.339382
624.503420,0.336050
624.820480,0.336161
625.137500,0.342280
625.454480,0.343545
625.771420,0.340794
626.088320,0.347100
626.405180,0.344119
626.722000,0.348181
627.038780,0.347744
627.355520,0.350000
627.672220,0.354588
627.988880,0.350233
628.305500,0.358055
628.622080,0.358426
628.938620,0.358410
629.255120,0.367455
629.571580,0.361630
629.888000,0.359620
630.204380,0.367904
630.520720,0.365021
630.837020,0.368486
631.153280,0.373201
631.469500,0.376592
631.785680,0.375226
632.101820,0.377865
632.417920,0.373770
632.733980,0.380252
633.050000,0.388114
633.365980,0.383521
633.681920,0.382160
633.997820,0.388524
634.313680,0.388971
634.629500,0.390740
634.945280,0.394721
635.261020,0.396830
635.576720,0.396947
635.892380,0.400813
636.208000,0.403544
636.523580,0.410991
636.839120,0.409380
637.154620,0.409565
637.470080,0.407747
637.785500,0.414127
638.100880,0.412974
638.416220,0.419039
638.731520,0.415473
639.046780,0.419167
639.362000,0.422018
639.677180,0.424615
639.992320,0.426558
640.307420,0.429053
640.622480,0.430412
640.937500,0.433287
641.252480,0.440380
641.567420,0.444160
641.882320,0.440980
642.197180,0.448624
642.512000,0.446683
642.826780,0.442718
643.141520,0.450959
643.456220,0.457111
643.770880,0.454947
644.085500,0.453605
644.400080,0.454213
644.714620,0.460424
645.029120,0.461496
645.343580,0.467087
645.658000,0.460727
645.972380,0.469444
646.286720,0.466340
646.601020,0.474675
646.915280,0.477653
647.229500,0.470055
647.543680,0.472798
647.857820,0.477291
648.171920,0.483993
648.485980,0.487257
648.800000,0.486084
649.113980,0.488359
649.427920,0.487933
649.741820,0.487771
650.055680,0.489029
650.369500,0.505045
650.683280,0.489456
650.997020,0.500825
651.310720,0.497523
651.624380,0.501374
651.938000,0.506371
652.251580,0.503479
652.565120,0.504192
652.878620,0.512669
653.192080,0.511517
653.505500,0.509677
653.818880,0.520898
654.132220,0.518086
654.445520,0.520136
654.758780,0.517564
655.072000,0.520917
655.385180,0.524394
655.698320,0.524436
656.011420,0.528805
656.324480,0.527543
656.637500,0.533604
656.950480,0.532883
657.263420,0.540053
657.576320,0.539579
657.889180,0.542613
658.202000,0.538043
658.514780,0.544805
658.827520,0.539316
659.140220,0.540306
659.452880,0.547871
659.765500,0.552077
660.078080,0.552513
660.390620,0.553926
660.703120,0.553315
661.015580,0.555521
661.328000,0.568010
661.640380,0.565393
661.952720,0.562753
662.265020,0.572779
662.577280,0.566476
662.889500,0.564175
663.201680,0.575303
663.513820,0.570923
663.825920,0.576369
664.137980,0.582741
664.450000,0.566496
664.761980,0.570540
665.073920,0.565401
665.385820,0.583115
665.697680,0.578182
666.009500,0.590622
666.321280,0.585156
666.633020,0.586104
666.944720,0.589147
667.256380,0.583109
667.568000,0.600543
667.879580,0.592177
668.191120,0.603365
668.502620,0.593290
668.814080,0.600000
669.125500,0.607595
669.436880,0.603389
669.748220,0.601938
670.059520,0.610644
670.370780,0.607864
670.682000,0.609912
670.993180,0.614517
671.304320,0.613924
671.615420,0.606179
671.926480,0.608588
672.237500,0.610218
672.548480,0.608588
672.859420,0.617227
673.170320,0.618063
673.481180,0.633237
673.792000,0.613415
674.102780,0.618671
674.413520,0.627415
674.724220,0.617423
675.034880,0.628896
675.345500,0.633115
675.656080,0.625771
675.966620,0.628592
676.277120,0.630904
676.587580,0.642857
676.898000,0.634192
677.208380,0.625878
677.518720,0.627644
677.829020,0.639320
678.139280,0.638621
678.449500,0.639436
678.759680,0.636193
679.069820,0.643494
679.379920,0.642399
679.689980,0.645748
680.000000,0.640748
680.309980,0.643281
680.619920,0.654676
680.929820,0.641657
681.239680,0.647341
681.549500,0.653333
681.859280,0.642644
682.169020,0.651623
682.478720,0.652206
682.788380,0.649686
683.098000,0.656694
683.407580,0.653659
683.717120,0.653529
684.026620,0.656250
684.336080,0.656688
684.645500,0.653199
684.954880,0.655081
685.264220,0.658362
685.573520,0.662352
685.882780,0.660146
686.192000,0.657261
686.501180,0.664018
686.810320,0.671407
687.119420,0.668567
687.428480,0.663122
687.737500,0.663085
688.046480,0.663344
688.355420,0.661260
688.664320,0.665647
688.973180,0.671133
689.282000,0.670910
689.590780,0.664494
689.899520,0.647550
690.208220,0.673165
690.516880,0.665521
690.825500,0.656604
691.134080,0.654138
691.442620,0.667302
691.751120,0.672734
692.059580,0.679786
692.368000,0.666793
692.676380,0.669466
692.984720,0.670229
693.293020,0.665653
693.601280,0.666921
693.909500,0.672342
694.217680,0.662605
694.525820,0.667174
694.833920,0.668066
695.141980,0.668723
695.450000,0.673282
695.757980,0.658518
696.065920,0.668350
696.373820,0.661663
696.681680,0.660529
696.989500,0.667310
697.297280,0.663166
697.605020,0.671032
697.912720,0.665257
698.220380,0.659189
698.528000,0.680380
698.835580,0.660213
699.143120,0.655105
699.450620,0.671042
699.758080,0.663922
700.065500,0.670391
700.372880,0.665200
700.680220,0.659753
700.987520,0.669841
701.294780,0.674777
701.602000,0.664818
701.909180,0.673291
702.216320,0.664842
702.523420,0.664167
702.830480,0.660990
703.137500,0.652377
703.444480,0.667061
703.751420,0.666272
704.058320,0.663633
704.365180,0.655757
704.672000,0.670495
704.978780,0.666016
705.285520,0.654147
705.592220,0.650588
705.898880,0.656816
706.205500,0.658451
706.512080,0.653633
706.818620,0.659443
707.125120,0.657692
707.431580,0.662368
707.738000,0.664453
708.044380,0.654959
708.350720,0.651127
708.657020,0.667057
708.963280,0.657609
709.269500,0.651272
709.575680,0.660904
709.881820,0.652123
710.187920,0.656031
710.493980,0.642746
710.800000,0.653318
711.105980,0.645331
711.411920,0.653922
711.717820,0.658090
712.023680,0.647493
712.329500,0.659700
712.635280,0.650775
712.941020,0.640124
713.246720,0.643478
713.552380,0.639717
713.858000,0.644856
714.163580,0.636148
714.469120,0.643220
714.774620,0.642716
715.080080,0.643895
715.385500,0.642286
715.690880,0.630375
715.996220,0.639857
716.301520,0.643874
716.606780,0.639937
716.912000,0.638934
717.217180,0.641261
717.522320,0.627833
717.827420,0.636697
718.132480,0.631473
718.437500,0.635956
718.742480,0.616532
719.047420,0.622573
719.352320,0.624741
719.657180,0.622240
719.962000,0.608768
720.266780,0.620690
720.571520,0.615162
720.876220,0.609247
721.180880,0.617057
721.485500,0.618053
721.790080,0.616136
722.094620,0.620926
722.399120,0.618699
722.703580,0.604372
723.008000,0.625270
723.312380,0.608265
723.616720,0.602635
723.921020,0.606323
724.225280,0.600785
724.529500,0.598511
724.833680,0.612100
725.137820,0.600000
725.441920,0.592510
725.745980,0.592841
726.050000,0.594046
726.353980,0.591257
726.657920,0.588394
726.961820,0.594977
727.265680,0.605178
727.569500,0.596892
727.873280,0.586143
728.177020,0.596039
728.480720,0.583796
728.784380,0.583842
729.088000,0.570890
729.391580,0.579820
729.695120,0.592610
729.998620,0.590344
730.302080,0.582893
730.605500,0.572538
730.908880,0.568839
731.212220,0.578355
731.515520,0.578255
731.818780,0.561650
732.122000,0.571358
732.425180,0.559882
732.728320,0.567675
733.031420,0.560401
733.334480,0.562755
733.637500,0.555444
733.940480,0.565507
734.243420,0.556575
734.546320,0.562241
734.849180,0.543905
735.152000,0.557573
735.454780,0.547521
735.757520,0.557429
736.060220,0.553449
736.362880,0.547794
736.665500,0.545170
736.968080,0.542719
737.270620,0.543821
737.573120,0.540939
737.875580,0.538758
738.178000,0.544910
738.480380,0.531892
738.782720,0.531080
739.085020,0.531388
739.387280,0.528825
739.689500,0.538505
739.991680,0.539023
740.293820,0.525152
740.595920,0.524763
740.897980,0.525127
741.200000,0.514863
741.501980,0.524928
741.803920,0.515766
742.105820,0.525663
742.407680,0.523588
742.709500,0.503977
743.011280,0.514654
743.313020,0.517681
743.614720,0.503772
743.916380,0.502326
744.218000,0.513126
744.519580,0.511473
744.821120,0.508383
745.122620,0.497903
745.424080,0.493389
745.725500,0.504526
746.026880,0.495690
746.328220,0.503083
746.629520,0.488260
746.930780,0.493260
747.232000,0.485592
747.533180,0.489933
747.834320,0.488131
748.135420,0.479180
748.436480,0.485964
748.737500,0.471896
749.038480,0.478925
749.339420,0.481643
749.640320,0.487115
749.941180,0.469082
750.242000,0.472990
750.542780,0.465261
750.843520,0.471493
751.144220,0.457692
751.444880,0.466075
751.745500,0.468831
752.046080,0.476588
752.346620,0.458119
752.647120,0.461790
752.947580,0.457309
753.248000,0.461638
753.548380,0.459987
753.848720,0.461687
754.149020,0.437782
754.449280,0.456993
754.749500,0.454545
755.049680,0.448000
755.349820,0.438959
755.649920,0.454065
755.949980,0.451228
756.250000,0.450362
756.549980,0.437624
756.849920,0.451394
757.149820,0.429142
757.449680,0.433663
757.749500,0.445808
758.049280,0.447099
758.349020,0.430459
758.648720,0.438923
758.948380,0.432990
759.248000,0.443396
759.547580,0.432414
759.847120,0.423156
760.146620,0.439107
760.446080,0.420027
760.745500,0.428671
761.044880,0.423295
761.344220,0.421953
761.643520,0.417373
761.942780,0.439468
762.242000,0.421499
762.541180,0.419014
762.840320,0.419944
763.139420,0.415612
763.438480,0.419686
763.737500,0.413508
764.036480,0.412998
764.335420,0.414961
764.634320,0.406791
764.933180,0.403425
765.232000,0.397641
765.530780,0.411930
765.829520,0.407692
766.128220,0.405010
766.426880,0.396588
766.725500,0.403016
767.024080,0.398491
767.322620,0.396266
767.621120,0.396341
767.919580,0.387031
768.218000,0.396717
768.516380,0.401623
768.814720,0.394376
769.113020,0.399724
769.411280,0.395028
769.709500,0.397835
770.007680,0.388548
770.305820,0.383367
770.603920,0.388814
770.901980,0.383197
771.200000,0.379076
771.497980,0.380027
771.795920,0.378595
772.093820,0.377674
772.391680,0.375742
772.689500,0.383108
772.987280,0.377104
773.285020,0.369105
773.582720,0.373649
773.880380,0.379547
774.178000,0.379005
774.475580,0.369056
774.773120,0.369478
775.070620,0.371873
775.368080,0.381430
775.665500,0.357287
775.962880,0.368245
776.260220,0.363392
776.557520,0.366911
776.854780,0.367140
777.152000,0.361406
777.449180,0.365475
777.746320,0.358199
778.043420,0.374488
778.340480,0.363329
778.637500,0.359026
778.934480,0.355077
779.231420,0.358887
779.528320,0.354041
779.825180,0.362978
780.122000,0.345286
780.418780,0.368673
780.715520,0.357478
781.012220,0.365068
781.308880,0.357674
781.605500,0.347945
781.902080,0.355236
782.198620,0.352700
782.495120,0.350480
782.791580,0.359010
783.088000,0.348516
783.384380,0.350757
783.680720,0.344049
783.977020,0.357880
784.273280,0.355944
784.569500,0.357792
784.865680,0.347705
785.161820,0.350000
785.457920,0.343728
785.753980,0.346825
786.050000,0.334254
786.345980,0.342361
786.641920,0.352533
786.937820,0.343305
787.233680,0.337509
787.529500,0.339806
787.825280,0.344193
788.121020,0.349858
788.416720,0.342978
788.712380,0.335684
789.008000,0.335694
789.303580,0.338516
789.599120,0.340364
789.894620,0.349458
790.190080,0.344453
790.485500,0.338373
790.780880,0.336918
791.076220,0.334055
791.371520,0.342048
791.666780,0.345455
791.962000,0.335048
792.257180,0.330161
792.552320,0.340827
792.847420,0.332606
793.142480,0.345055
793.437500,0.329233
793.732480,0.334309
794.027420,0.341246
794.322320,0.330350
794.617180,0.338039
794.912000,0.336553
795.206780,0.337062
795.501520,0.343726
795.796220,0.337037
796.090880,0.342125
796.385500,0.330585
796.680080,0.335079
796.974620,0.337575
797.269120,0.329296
797.563580,0.337405
797.858000,0.344723
798.152380,0.335654
798.446720,0.346154
798.741020,0.331279
799.035280,0.336957
799.329500,0.337182
799.623680,0.342636
