399.985280,0.310811
400.329500,0.243243
400.673680,0.329114
401.017820,0.235294
401.361920,0.257576
401.705980,0.207317
402.050000,0.324675
402.393980,0.305882
402.737920,0.292135
403.081820,0.298969
403.425680,0.406977
403.769500,0.270833
404.113280,0.264368
404.457020,0.359551
404.800720,0.271739
405.144380,0.353535
405.488000,0.322581
405.831580,0.278351
406.175120,0.308511
406.518620,0.310000
406.862080,0.350515
407.205500,0.239583
407.548880,0.326531
407.892220,0.303922
408.235520,0.276596
408.578780,0.266667
408.922000,0.288462
409.265180,0.383838
409.608320,0.333333
409.951420,0.402062
410.294480,0.343137
410.637500,0.358696
410.980480,0.352941
411.323420,0.285714
411.666320,0.348624
412.009180,0.318182
412.352000,0.297030
412.694780,0.339450
413.037520,0.256881
413.380220,0.351351
413.722880,0.339286
414.065500,0.324324
414.408080,0.256637
414.750620,0.345133
415.093120,0.289256
415.435580,0.344538
415.778000,0.325758
416.120380,0.352941
416.462720,0.309524
416.805020,0.338346
417.147280,0.313433
417.489500,0.328571
417.831680,0.280822
418.173820,0.290780
418.515920,0.286713
418.857980,0.278481
419.200000,0.294872
419.541980,0.307692
419.883920,0.297753
420.225820,0.306358
420.567680,0.307263
420.909500,0.289617
421.251280,0.312500
421.593020,0.280612
421.934720,0.277778
422.276380,0.292308
422.618000,0.274510
422.959580,0.284314
423.301120,0.278539
423.642620,0.221739
423.984080,0.288372
424.325500,0.242152
424.666880,0.267241
425.008220,0.268908
425.349520,0.266949
425.690780,0.230769
426.032000,0.231373
426.373180,0.261411
426.714320,0.238281
427.055420,0.258687
427.396480,0.243446
427.737500,0.229249
428.078480,0.237154
428.419420,0.216867
428.760320,0.233716
429.101180,0.255906
429.442000,0.229885
429.782780,0.234615
430.123520,0.235294
430.464220,0.228782
430.804880,0.237548
431.145500,0.214545
431.486080,0.235955
431.826620,0.224806
432.167120,0.250000
432.507580,0.253623
432.848000,0.230216
433.188380,0.202166
433.528720,0.211321
433.869020,0.214286
434.209280,0.207018
434.549500,0.236934
434.889680,0.208754
435.229820,0.208191
435.569920,0.197232
435.909980,0.181230
436.250000,0.216949
436.589980,0.185759
436.929920,0.215873
437.269820,0.203762
437.609680,0.210059
437.949500,0.195783
438.289280,0.198300
438.629020,0.209302
438.968720,0.209302
439.308380,0.195122
439.648000,0.200000
439.987580,0.195767
440.327120,0.202667
440.666620,0.192208
441.006080,0.191816
441.345500,0.189189
441.684880,0.208134
442.024220,0.186104
442.363520,0.188095
442.702780,0.179545
443.042000,0.189427
443.381180,0.189655
443.720320,0.194384
444.059420,0.180672
444.398480,0.190377
444.737500,0.204918
445.076480,0.190476
445.415420,0.203593
445.754320,0.187110
446.093180,0.200000
446.432000,0.203008
446.770780,0.193548
447.109520,0.193015
447.448220,0.193202
447.786880,0.189624
448.125500,0.187931
448.464080,0.176786
448.802620,0.196809
449.141120,0.198962
449.479580,0.204545
449.818000,0.199656
450.156380,0.187291
450.494720,0.195041
450.833020,0.201049
451.171280,0.196918
451.509500,0.193380
451.847680,0.192243
452.185820,0.194492
452.523920,0.197595
452.861980,0.204047
453.200000,0.202658
453.537980,0.198319
453.875920,0.211765
454.213820,0.196918
454.551680,0.200331
454.889500,0.205734
455.227280,0.186833
455.565020,0.212730
455.902720,0.207987
456.240380,0.202995
456.578000,0.212544
456.915580,0.219344
457.253120,0.217105
457.590620,0.213465
457.928080,0.220539
458.265500,0.226351
458.602880,0.219156
458.940220,0.219966
459.277520,0.220800
459.614780,0.230769
459.952000,0.225155
460.289180,0.224684
460.626320,0.215748
460.963420,0.229402
461.300480,0.223242
461.637500,0.229584
461.974480,0.235474
462.311420,0.229508
462.648320,0.226940
462.985180,0.233859
463.322000,0.244048
463.658780,0.223757
463.995520,0.237964
464.332220,0.234072
464.668880,0.229839
465.005500,0.246649
465.342080,0.247119
465.678620,0.246002
466.015120,0.250970
466.351580,0.251580
466.688000,0.253350
467.024380,0.257594
467.360720,0.259091
467.697020,0.261959
468.033280,0.250000
468.369500,0.262693
468.705680,0.266065
469.041820,0.258333
469.377920,0.255965
469.713980,0.266735
470.050000,0.277295
470.385980,0.264188
470.721920,0.270323
471.057820,0.272904
471.393680,0.266604
471.729500,0.267841
472.065280,0.279964
472.401020,0.276596
472.736720,0.268761
473.072380,0.282765
473.408000,0.277633
473.743580,0.281142
474.079120,0.288544
474.414620,0.279050
474.750080,0.288039
475.085500,0.282072
475.420880,0.289759
475.756220,0.286999
476.091520,0.292413
476.426780,0.291262
476.762000,0.296058
477.097180,0.298400
477.432320,0.294023
477.767420,0.301471
478.102480,0.303150
478.437500,0.311166
478.772480,0.289992
479.107420,0.301871
479.442320,0.302958
479.777180,0.319809
480.112000,0.296610
480.446780,0.307872
480.781520,0.309179
481.116220,0.316896
481.450880,0.305230
481.785500,0.323576
482.120080,0.323668
482.454620,0.317793
482.789120,0.324841
483.123580,0.320093
483.458000,0.322785
483.792380,0.326677
484.126720,0.323552
484.461020,0.326308
484.795280,0.324595
485.129500,0.328917
485.463680,0.327132
485.797820,0.332037
486.131920,0.334353
486.465980,0.334363
486.800000,0.329008
487.133980,0.330816
487.467920,0.338179
487.801820,0.338673
488.135680,0.346475
488.469500,0.337368
488.803280,0.341753
489.137020,0.331868
489.470720,0.333086
489.804380,0.337045
490.138000,0.344214
490.471580,0.338983
490.805120,0.350250
491.138620,0.340441
491.472080,0.342756
491.805500,0.345886
492.138880,0.333565
492.472220,0.350173
492.805520,0.346369
493.138780,0.353549
493.472000,0.344482
493.805180,0.352660
494.138320,0.350901
494.471420,0.345703
494.804480,0.346701
495.137500,0.349807
495.470480,0.347992
495.803420,0.349496
496.136320,0.348997
496.469180,0.343769
496.802000,0.347800
497.134780,0.357793
497.467520,0.362691
497.800220,0.349057
498.132880,0.348618
498.465500,0.352839
498.798080,0.356164
499.130620,0.355980
499.463120,0.351488
499.795580,0.348735
500.128000,0.353134
500.460380,0.345533
500.792720,0.353659
501.125020,0.348397
501.457280,0.348825
501.789500,0.348657
502.121680,0.350959
502.453820,0.354921
502.785920,0.350175
503.117980,0.345437
503.450000,0.356605
503.781980,0.350274
504.113920,0.344239
504.445820,0.347594
504.777680,0.345882
505.109500,0.350962
505.441280,0.351338
505.773020,0.340535
506.104720,0.349976
506.436380,0.345007
506.768000,0.345650
507.099580,0.341419
507.431120,0.344731
507.762620,0.350094
508.094080,0.341841
508.425500,0.344071
508.756880,0.344307
509.088220,0.341306
509.419520,0.341248
509.750780,0.344892
510.082000,0.340485
510.413180,0.342699
510.744320,0.334561
511.075420,0.336847
511.406480,0.338975
511.737500,0.327778
512.068480,0.334117
512.399420,0.330516
512.730320,0.325635
513.061180,0.338249
513.392000,0.327023
513.722780,0.331892
514.053520,0.331097
514.384220,0.325404
514.714880,0.325515
515.045500,0.322318
515.376080,0.327845
515.706620,0.321481
516.037120,0.328431
516.367580,0.321341
516.698000,0.317647
517.028380,0.323237
517.358720,0.322963
517.689020,0.316518
518.019280,0.314601
518.349500,0.322859
518.679680,0.322564
519.009820,0.313765
519.339920,0.321142
519.669980,0.322953
520.000000,0.312277
520.329980,0.322965
520.659920,0.312372
520.989820,0.312178
521.319680,0.320988
521.649500,0.314653
521.979280,0.314196
522.309020,0.312759
522.638720,0.308756
522.968380,0.309204
523.298000,0.301670
523.627580,0.306777
523.957120,0.307532
524.286620,0.306931
524.616080,0.311272
524.945500,0.302842
525.274880,0.300154
525.604220,0.306936
525.933520,0.297170
526.262780,0.295489
526.592000,0.299848
526.921180,0.298629
527.250320,0.298326
527.579420,0.299646
527.908480,0.296406
528.237500,0.292453
528.566480,0.293413
528.895420,0.299162
529.224320,0.293710
529.553180,0.296867
529.882000,0.297324
530.210780,0.286197
530.539520,0.289549
530.868220,0.284347
531.196880,0.284281
531.525500,0.299274
531.854080,0.291276
532.182620,0.277908
532.511120,0.288631
532.839580,0.291289
533.168000,0.286691
533.496380,0.284018
533.824720,0.280843
534.153020,0.285778
534.481280,0.284141
534.809500,0.286719
535.137680,0.284722
535.465820,0.275344
535.793920,0.278765
536.121980,0.274024
536.450000,0.278647
536.777980,0.282363
537.105920,0.280199
537.433820,0.273322
537.761680,0.279592
538.089500,0.280453
538.417280,0.269399
538.745020,0.279715
539.072720,0.274112
539.400380,0.269619
539.728000,0.272275
540.055580,0.272659
540.383120,0.274013
540.710620,0.275670
541.038080,0.272593
541.365500,0.274265
541.692880,0.266715
542.020220,0.269521
542.347520,0.271357
542.674780,0.267114
543.002000,0.268369
543.329180,0.272185
543.656320,0.271449
543.983420,0.268718
544.310480,0.266735
544.637500,0.266803
544.964480,0.267160
545.291420,0.272848
545.618320,0.272244
545.945180,0.265326
546.272000,0.263761
546.598780,0.265814
546.925520,0.268051
547.252220,0.266755
547.578880,0.265885
547.905500,0.264379
548.232080,0.268356
548.558620,0.264888
548.885120,0.263657
549.211580,0.266474
549.538000,0.265240
549.864380,0.263344
550.190720,0.263158
550.517020,0.270535
550.843280,0.271987
551.169500,0.264949
551.495680,0.264126
551.821820,0.264206
552.147920,0.266753
552.473980,0.267698
552.800000,0.263571
553.125980,0.268173
553.451920,0.272064
553.777820,0.269154
554.103680,0.269633
554.429500,0.266823
554.755280,0.265020
555.081020,0.265374
555.406720,0.271927
555.732380,0.262623
556.058000,0.270876
556.383580,0.267374
556.709120,0.266368
557.034620,0.268688
557.360080,0.271848
557.685500,0.273859
558.010880,0.270017
558.336220,0.269596
558.661520,0.277207
558.986780,0.271439
559.312000,0.275997
559.637180,0.269300
559.962320,0.278391
560.287420,0.279972
560.612480,0.273771
560.937500,0.276799
561.262480,0.277126
561.587420,0.279652
561.912320,0.281503
562.237180,0.276462
562.562000,0.282454
562.886780,0.277964
563.211520,0.277943
563.536220,0.282004
563.860880,0.286684
564.185500,0.285929
564.510080,0.288939
564.834620,0.286937
565.159120,0.285338
565.483580,0.289244
565.808000,0.289065
566.132380,0.287952
566.456720,0.289116
566.781020,0.285446
567.105280,0.291871
567.429500,0.296662
567.753680,0.294591
568.077820,0.294550
568.401920,0.303285
568.725980,0.298672
569.050000,0.300380
569.373980,0.297678
569.697920,0.300721
570.021820,0.309738
570.345680,0.303100
570.669500,0.310568
570.993280,0.308232
571.317020,0.310559
571.640720,0.303446
571.964380,0.308463
572.288000,0.317136
572.611580,0.319730
572.935120,0.317247
573.258620,0.319746
573.582080,0.313711
573.905500,0.322413
574.228880,0.332591
574.552220,0.322829
574.875520,0.319806
575.198780,0.323094
575.522000,0.331745
575.845180,0.326289
576.168320,0.328063
576.491420,0.328488
576.814480,0.327667
577.137500,0.334416
577.460480,0.336716
577.783420,0.335120
578.106320,0.353276
578.429180,0.340756
578.752000,0.337965
579.074780,0.345920
579.397520,0.343125
579.720220,0.346203
580.042880,0.352825
580.365500,0.351423
580.688080,0.353460
581.010620,0.354708
581.333120,0.359719
581.655580,0.360972
581.978000,0.357499
582.300380,0.357352
582.622720,0.368490
582.945020,0.365410
583.267280,0.360469
583.589500,0.373997
583.911680,0.371229
584.233820,0.370475
584.555920,0.379452
584.877980,0.377513
585.200000,0.377225
585.521980,0.381217
585.843920,0.382855
586.165820,0.382389
586.487680,0.389106
586.809500,0.390039
587.131280,0.385093
587.453020,0.389881
587.774720,0.396807
588.096380,0.393524
588.418000,0.400644
588.739580,0.399253
589.061120,0.399367
589.382620,0.404298
589.704080,0.406732
590.025500,0.408961
590.346880,0.410062
590.668220,0.402408
590.989520,0.412923
591.310780,0.421431
591.632000,0.414754
591.953180,0.420426
592.274320,0.416598
592.595420,0.422683
592.916480,0.418365
593.237500,0.423875
593.558480,0.424536
593.879420,0.429458
594.200320,0.433967
594.521180,0.430013
594.842000,0.436593
595.162780,0.434829
595.483520,0.440574
595.804220,0.436896
596.124880,0.442579
596.445500,0.438302
596.766080,0.447701
597.086620,0.445329
597.407120,0.447341
597.727580,0.454787
598.048000,0.448823
598.368380,0.451341
598.688720,0.446658
599.009020,0.453556
599.329280,0.457158
599.649500,0.465135
599.969680,0.457799
600.289820,0.465278
600.609920,0.462730
600.929980,0.461251
601.250000,0.466486
601.569980,0.468539
601.889920,0.467522
602.209820,0.468885
602.529680,0.482010
602.849500,0.480360
603.169280,0.483329
603.489020,0.486853
603.808720,0.481349
604.128380,0.487583
604.448000,0.483978
604.767580,0.489106
605.087120,0.478393
605.406620,0.487825
605.726080,0.492444
606.045500,0.488716
606.364880,0.491069
606.684220,0.497716
607.003520,0.497133
607.322780,0.504832
607.642000,0.495979
607.961180,0.503036
608.280320,0.507541
608.599420,0.508691
608.918480,0.504106
609.237500,0.508509
609.556480,0.515241
609.875420,0.510927
610.194320,0.510186
610.513180,0.514353
610.832000,0.509232
611.150780,0.513968
611.469520,0.524585
611.788220,0.524184
612.106880,0.521713
612.425500,0.525579
612.744080,0.526316
613.062620,0.520489
613.381120,0.526813
613.699580,0.534641
614.018000,0.524570
614.336380,0.535780
614.654720,0.522791
614.973020,0.528849
615.291280,0.534862
615.609500,0.547385
615.927680,0.539864
616.245820,0.543290
616.563920,0.531551
616.881980,0.537886
617.200000,0.541835
617.517980,0.542937
617.835920,0.541473
618.153820,0.542120
618.471680,0.546977
618.789500,0.548143
619.107280,0.553365
619.425020,0.553758
619.742720,0.548650
620.060380,0.549044
620.378000,0.551290
620.695580,0.557791
621.013120,0.556850
621.330620,0.556323
621.648080,0.547634
621.965500,0.553952
622.282880,0.558638
622.600220,0.561908
622.917520,0.561752
623.234780,0.577306
623.552000,0.566836
623.869180,0.564135
624.186320,0.570837
624.503420,0.571160
624.820480,0.563305
625.137500,0.572466
625.454480,0.573929
625.771420,0.578184
626.088320,0.572509
626.405180,0.572495
626.722000,0.572146
627.038780,0.573308
627.355520,0.572187
627.672220,0.578227
627.988880,0.576983
628.305500,0.583359
628.622080,0.582094
628.938620,0.578287
629.255120,0.584319
629.571580,0.578302
629.888000,0.583921
630.204380,0.580853
630.520720,0.582267
630.837020,0.584644
631.153280,0.581535
631.469500,0.587022
631.785680,0.581073
632.101820,0.588058
632.417920,0.582116
632.733980,0.587935
633.050000,0.591571
633.365980,0.585655
633.681920,0.582637
633.997820,0.601913
634.313680,0.593040
634.629500,0.590386
634.945280,0.584164
635.261020,0.593484
635.576720,0.585437
635.892380,0.587279
636.208000,0.584834
636.523580,0.585794
636.839120,0.593515
637.154620,0.597681
637.470080,0.581636
637.785500,0.594959
638.100880,0.591370
638.416220,0.593328
638.731520,0.589685
639.046780,0.597728
639.362000,0.587443
639.677180,0.586236
639.992320,0.587821
640.307420,0.591739
640.622480,0.590031
640.937500,0.592233
641.252480,0.594527
641.567420,0.595340
641.882320,0.589087
642.197180,0.597979
642.512000,0.600336
642.826780,0.591678
643.141520,0.596277
643.456220,0.588545
643.770880,0.601990
644.085500,0.593069
644.400080,0.598876
644.714620,0.595039
645.029120,0.591859
645.343580,0.589962
645.658000,0.594505
645.972380,0.592217
646.286720,0.589806
646.601020,0.589815
646.915280,0.591171
647.229500,0.590659
647.543680,0.586302
647.857820,0.589871
648.171920,0.591970
648.485980,0.583996
648.800000,0.584183
649.113980,0.581208
649.427920,0.591123
649.741820,0.576807
650.055680,0.586396
650.369500,0.600056
650.683280,0.580744
650.997020,0.587184
651.310720,0.586131
651.624380,0.583242
651.938000,0.584211
652.251580,0.578068
652.565120,0.584125
652.878620,0.582770
653.192080,0.585112
653.505500,0.570547
653.818880,0.579471
654.132220,0.583879
654.445520,0.581963
654.758780,0.575637
655.072000,0.573352
655.385180,0.572325
655.698320,0.569306
656.011420,0.577816
656.324480,0.577383
656.637500,0.570684
656.950480,0.571345
657.263420,0.575525
657.576320,0.569226
657.889180,0.572398
658.202000,0.568841
658.514780,0.561179
658.827520,0.564526
659.140220,0.567576
659.452880,0.567804
659.765500,0.560506
660.078080,0.557328
660.390620,0.563703
660.703120,0.561564
661.015580,0.562883
661.328000,0.560768
661.640380,0.567257
661.952720,0.559639
662.265020,0.563327
662.577280,0.554389
662.889500,0.558184
663.201680,0.555201
663.513820,0.550338
663.825920,0.546910
664.137980,0.554945
664.450000,0.541880
664.761980,0.535516
665.073920,0.544304
665.385820,0.550393
665.697680,0.547438
666.009500,0.548387
666.321280,0.545726
666.633020,0.546543
666.944720,0.540276
667.256380,0.541723
667.568000,0.543139
667.879580,0.538095
668.191120,0.533310
668.502620,0.538857
668.814080,0.540702
669.125500,0.540541
669.436880,0.530083
669.748220,0.536172
670.059520,0.529762
670.370780,0.535839
670.682000,0.531681
670.993180,0.529246
671.304320,0.529184
671.615420,0.522017
671.926480,0.521647
672.237500,0.516613
672.548480,0.525195
672.859420,0.522159
673.170320,0.514690
673.481180,0.520275
673.792000,0.509556
674.102780,0.505206
674.413520,0.515859
674.724220,0.505626
675.034880,0.513751
675.345500,0.512400
675.656080,0.509982
675.966620,0.509640
676.277120,0.506774
676.587580,0.503682
676.898000,0.500560
677.208380,0.500924
677.518720,0.504741
677.829020,0.504804
678.139280,0.495923
678.449500,0.490902
678.759680,0.501686
679.069820,0.493309
679.379920,0.496416
679.689980,0.486818
680.000000,0.485607
680.309980,0.484781
680.619920,0.489587
680.929820,0.486376
681.239680,0.478213
681.549500,0.488889
681.859280,0.487304
682.169020,0.483029
682.478720,0.483545
682.788380,0.481358
683.098000,0.480553
683.407580,0.476173
683.717120,0.474474
684.026620,0.474774
684.336080,0.474043
684.645500,0.466143
684.954880,0.468077
685.264220,0.468479
685.573520,0.476970
685.882780,0.475259
686.192000,0.461249
686.501180,0.467272
686.810320,0.465027
687.119420,0.472064
687.428480,0.458412
687.737500,0.467383
688.046480,0.455138
688.355420,0.453791
688.664320,0.446060
688.973180,0.450613
689.282000,0.449074
689.590780,0.456672
689.899520,0.442081
690.208220,0.445719
690.516880,0.453608
690.825500,0.443396
691.134080,0.447988
691.442620,0.444741
691.751120,0.438377
692.059580,0.443638
692.368000,0.440363
692.676380,0.442366
692.984720,0.426336
693.293020,0.433511
693.601280,0.432278
693.909500,0.432463
694.217680,0.435644
694.525820,0.423077
694.833920,0.426173
695.141980,0.424605
695.450000,0.428626
695.757980,0.422460
696.065920,0.423689
696.373820,0.423788
696.681680,0.416187
696.989500,0.424547
697.297280,0.417347
697.605020,0.423810
697.912720,0.418140
698.220380,0.414404
698.528000,0.415348
698.835580,0.411695
699.143120,0.403741
699.450620,0.413683
699.758080,0.401961
700.065500,0.409816
700.372880,0.410000
700.680220,0.406861
700.987520,0.407540
701.294780,0.412814
701.602000,0.400555
701.909180,0.408188
702.216320,0.401643
702.523420,0.403710
702.830480,0.394455
703.137500,0.399065
703.444480,0.400394
703.751420,0.391716
704.058320,0.397705
704.365180,0.397082
704.672000,0.400792
704.978780,0.397971
705.285520,0.392410
705.592220,0.387451
705.898880,0.392041
706.205500,0.397887
706.512080,0.390995
706.818620,0.390093
707.125120,0.391154
707.431580,0.386479
707.738000,0.385547
708.044380,0.380934
708.350720,0.382881
708.657020,0.386088
708.963280,0.389752
709.269500,0.380431
709.575680,0.386248
709.881820,0.380896
710.187920,0.380934
710.493980,0.373933
710.800000,0.377956
711.105980,0.373494
711.411920,0.378006
711.717820,0.377778
712.023680,0.371162
712.329500,0.375000
712.635280,0.373256
712.941020,0.371086
713.246720,0.375889
713.552380,0.372841
713.858000,0.368151
714.163580,0.364246
714.469120,0.364986
714.774620,0.365180
715.080080,0.361995
715.385500,0.367706
715.690880,0.363314
715.996220,0.363312
716.301520,0.363241
716.606780,0.367531
716.912000,0.363489
717.217180,0.355148
717.522320,0.361431
717.827420,0.358421
718.132480,0.358892
718.437500,0.356298
718.742480,0.356452
719.047420,0.349515
719.352320,0.356579
719.657180,0.352412
719.962000,0.355252
720.266780,0.355214
720.571520,0.356255
720.876220,0.347381
721.180880,0.349916
721.485500,0.358128
721.790080,0.349045
722.094620,0.359777
722.399120,0.356743
722.703580,0.353193
723.008000,0.355326
723.312380,0.351270
723.616720,0.348066
723.921020,0.352100
724.225280,0.353403
724.529500,0.352890
724.833680,0.346085
725.137820,0.340969
725.441920,0.342844
725.745980,0.345861
726.050000,0.351827
726.353980,0.341595
726.657920,0.345029
726.961820,0.352055
727.265680,0.355987
727.569500,0.344607
727.873280,0.339492
728.177020,0.346845
728.480720,0.344444
728.784380,0.339126
729.088000,0.344795
729.391580,0.346755
729.695120,0.348369
729.998620,0.341300
730.302080,0.334935
730.605500,0.346919
730.908880,0.341499
731.212220,0.343781
731.515520,0.339834
731.818780,0.351456
732.122000,0.337598
732.425180,0.342533
732.728320,0.345067
733.031420,0.336341
733.334480,0.345408
733.637500,0.336190
733.940480,0.342886
734.243420,0.340979
734.546320,0.353216
734.849180,0.341426
735.152000,0.345436
735.454780,0.344525
735.757520,0.335090
736.060220,0.345972
736.362880,0.349790
736.665500,0.333159
736.968080,0.348200
737.270620,0.345672
737.573120,0.343341
737.875580,0.347444
738.178000,0.352749
738.480380,0.341081
738.782720,0.340240
739.085020,0.334802
739.387280,0.343126
739.689500,0.353907
739.991680,0.341943
740.293820,0.349917
740.595920,0.347245
740.897980,0.348391
741.200000,0.353337
741.501980,0.350143
741.803920,0.349662
742.105820,0.347998
742.407680,0.345952
742.709500,0.344886
743.011280,0.347011
743.313020,0.350145
743.614720,0.344748
743.916380,0.351163
744.218000,0.362768
744.519580,0.348430
744.821120,0.354491
745.122620,0.354104
745.424080,0.349159
745.725500,0.360290
746.026880,0.353448
746.328220,0.355117
746.629520,0.349187
746.930780,0.358456
747.232000,0.356223
747.533180,0.362416
747.834320,0.362751
748.135420,0.352393
748.436480,0.352464
748.737500,0.355158
749.038480,0.355528
749.339420,0.365899
749.640320,0.367693
749.941180,0.358526
750.242000,0.361809
750.542780,0.361042
750.843520,0.372197
751.144220,0.362821
751.444880,0.372860
751.745500,0.368182
752.046080,0.373316
752.346620,0.364691
752.647120,0.366427
752.947580,0.362872
753.248000,0.364281
753.548380,0.374105
753.848720,0.369607
754.149020,0.364926
754.449280,0.375575
754.749500,0.374253
755.049680,0.377333
755.349820,0.378252
755.649920,0.381362
755.949980,0.377571
756.250000,0.381986
756.549980,0.373597
756.849920,0.387492
757.149820,0.368596
757.449680,0.375578
757.749500,0.387866
758.049280,0.386348
758.349020,0.379694
758.648720,0.387854
758.948380,0.382131
759.248000,0.386119
759.547580,0.380632
759.847120,0.392143
760.146620,0.389039
760.446080,0.393817
760.745500,0.400000
761.044880,0.394886
761.344220,0.398432
761.643520,0.391949
761.942780,0.389783
762.242000,0.406648
762.541180,0.390141
762.840320,0.398876
763.139420,0.402250
763.438480,0.391661
763.737500,0.406616
764.036480,0.409504
764.335420,0.402964
764.634320,0.402633
764.933180,0.408904
765.232000,0.408744
765.530780,0.404211
765.829520,0.409091
766.128220,0.414057
766.426880,0.419332
766.725500,0.407128
767.024080,0.407407
767.322620,0.423928
767.621120,0.413279
767.919580,0.423208
768.218000,0.422025
768.516380,0.420554
768.814720,0.419067
769.113020,0.413508
769.411280,0.421961
769.709500,0.433694
770.007680,0.423313
770.305820,0.434077
770.603920,0.427224
770.901980,0.435109
771.200000,0.434783
771.497980,0.432976
771.795920,0.429431
772.093820,0.431150
772.391680,0.442320
772.689500,0.448649
772.987280,0.436364
773.285020,0.449077
773.582720,0.442568
773.880380,0.446122
774.178000,0.446489
774.475580,0.450770
774.773120,0.447791
775.070620,0.458418
775.368080,0.450902
775.665500,0.451310
775.962880,0.461641
776.260220,0.457604
776.557520,0.464310
776.854780,0.468560
777.152000,0.452918
777.449180,0.465273
777.746320,0.453629
778.043420,0.476126
778.340480,0.468877
778.637500,0.480054
778.934480,0.462677
779.231420,0.474220
779.528320,0.469606
779.825180,0.462451
780.122000,0.472112
780.418780,0.484952
780.715520,0.477532
781.012220,0.484247
781.308880,0.485463
781.605500,0.491096
781.902080,0.477755
782.198620,0.485988
782.495120,0.494513
782.791580,0.492435
783.088000,0.496894
783.384380,0.497937
783.680720,0.493160
783.977020,0.483827
784.273280,0.497902
784.569500,0.500349
784.865680,0.492350
785.161820,0.512500
785.457920,0.498960
785.753980,0.507327
786.050000,0.503453
786.345980,0.504167
786.641920,0.507287
786.937820,0.517094
787.233680,0.503827
787.529500,0.505548
787.825280,0.509207
788.121020,0.524079
788.416720,0.519407
788.712380,0.517630
789.008000,0.516997
789.303580,0.517314
789.599120,0.529455
789.894620,0.522022
790.190080,0.522843
790.485500,0.527718
790.780880,0.529749
791.076220,0.525253
791.371520,0.538853
791.666780,0.536000
791.962000,0.534166
792.257180,0.541728
792.552320,0.537346
792.847420,0.545852
793.142480,0.550183
793.437500,0.534009
793.732480,0.546452
794.027420,0.552671
794.322320,0.548844
794.617180,0.554235
794.912000,0.556464
795.206780,0.556301
795.501520,0.564259
795.796220,0.548148
796.090880,0.570460
796.385500,0.557721
796.680080,0.562453
796.974620,0.577844
797.269120,0.557911
797.563580,0.573282
797.858000,0.571754
798.152380,0.569219
798.446720,0.571538
798.741020,0.572419
799.035280,0.575311
799.329500,0.571209
799.623680,0.587597
