399.985280,0.229730
400.329500,0.310811
400.673680,0.291139
401.017820,0.367647
401.361920,0.363636
401.705980,0.268293
402.050000,0.298701
402.393980,0.305882
402.737920,0.359551
403.081820,0.340206
403.425680,0.383721
403.769500,0.260417
404.113280,0.321839
404.457020,0.314607
404.800720,0.293478
405.144380,0.303030
405.488000,0.333333
405.831580,0.329897
406.175120,0.308511
406.518620,0.280000
406.862080,0.350515
407.205500,0.312500
407.548880,0.295918
407.892220,0.254902
408.235520,0.297872
408.578780,0.342857
408.922000,0.259615
409.265180,0.282828
409.608320,0.232323
409.951420,0.329897
410.294480,0.303922
410.637500,0.293478
410.980480,0.333333
411.323420,0.326531
411.666320,0.311927
412.009180,0.290909
412.352000,0.217822
412.694780,0.284404
413.037520,0.220183
413.380220,0.279279
413.722880,0.294643
414.065500,0.270270
414.408080,0.247788
414.750620,0.274336
415.093120,0.247934
415.435580,0.294118
415.778000,0.272727
416.120380,0.252101
416.462720,0.261905
416.805020,0.270677
417.147280,0.253731
417.489500,0.242857
417.831680,0.246575
418.173820,0.219858
418.515920,0.265734
418.857980,0.234177
419.200000,0.217949
419.541980,0.218935
419.883920,0.224719
420.225820,0.248555
420.567680,0.206704
420.909500,0.224044
421.251280,0.213542
421.593020,0.224490
421.934720,0.191919
422.276380,0.200000
422.618000,0.240196
422.959580,0.196078
423.301120,0.205479
423.642620,0.204348
423.984080,0.204651
424.325500,0.206278
424.666880,0.219828
425.008220,0.180672
425.349520,0.199153
425.690780,0.192308
426.032000,0.180392
426.373180,0.215768
426.714320,0.207031
427.055420,0.200772
427.396480,0.202247
427.737500,0.173913
428.078480,0.209486
428.419420,0.172691
428.760320,0.187739
429.101180,0.220472
429.442000,0.195402
429.782780,0.169231
430.123520,0.172549
430.464220,0.191882
430.804880,0.191571
431.145500,0.178182
431.486080,0.198502
431.826620,0.186047
432.167120,0.180147
432.507580,0.177536
432.848000,0.205036
433.188380,0.194946
433.528720,0.192453
433.869020,0.192857
434.209280,0.150877
434.549500,0.205575
434.889680,0.188552
435.229820,0.194539
435.569920,0.179931
435.909980,0.181230
436.250000,0.189831
436.589980,0.160991
436.929920,0.190476
437.269820,0.178683
437.609680,0.186391
437.949500,0.192771
438.289280,0.189802
438.629020,0.209302
438.968720,0.206395
439.308380,0.195122
439.648000,0.194521
439.987580,0.185185
440.327120,0.205333
440.666620,0.202597
441.006080,0.217391
441.345500,0.199017
441.684880,0.191388
442.024220,0.205955
442.363520,0.195238
442.702780,0.195455
443.042000,0.215859
443.381180,0.213362
443.720320,0.207343
444.059420,0.184874
444.398480,0.211297
444.737500,0.219262
445.076480,0.210317
445.415420,0.227545
445.754320,0.207900
446.093180,0.218349
446.432000,0.223684
446.770780,0.223909
447.109520,0.233456
447.448220,0.216458
447.786880,0.220036
448.125500,0.220690
448.464080,0.223214
448.802620,0.228723
449.141120,0.219723
449.479580,0.229021
449.818000,0.237522
450.156380,0.230769
450.494720,0.236364
450.833020,0.246503
451.171280,0.220890
451.509500,0.242160
451.847680,0.259696
452.185820,0.240964
452.523920,0.261168
452.861980,0.241147
453.200000,0.255814
453.537980,0.252101
453.875920,0.262185
454.213820,0.255137
454.551680,0.258278
454.889500,0.258010
455.227280,0.241993
455.565020,0.264657
455.902720,0.267887
456.240380,0.254576
456.578000,0.264808
456.915580,0.276339
457.253120,0.269737
457.590620,0.288998
457.928080,0.277778
458.265500,0.277027
458.602880,0.284091
458.940220,0.272420
459.277520,0.281600
459.614780,0.286416
459.952000,0.271739
460.289180,0.294304
460.626320,0.292913
460.963420,0.287561
461.300480,0.298165
461.637500,0.291217
461.974480,0.302752
462.311420,0.289121
462.648320,0.295754
462.985180,0.298422
463.322000,0.305060
463.658780,0.294199
463.995520,0.306740
464.332220,0.303324
464.668880,0.306452
465.005500,0.319035
465.342080,0.304738
465.678620,0.300123
466.015120,0.309185
466.351580,0.308470
466.688000,0.326431
467.024380,0.307412
467.360720,0.305682
467.697020,0.310934
468.033280,0.321111
468.369500,0.324503
468.705680,0.320180
469.041820,0.323958
469.377920,0.317787
469.713980,0.322348
470.050000,0.317874
470.385980,0.324853
470.721920,0.328110
471.057820,0.336257
471.393680,0.319925
471.729500,0.319741
472.065280,0.320215
472.401020,0.323582
472.736720,0.339442
473.072380,0.327648
473.408000,0.322019
473.743580,0.335640
474.079120,0.325581
474.414620,0.332485
474.750080,0.325468
475.085500,0.337171
475.420880,0.340550
475.756220,0.331153
476.091520,0.339301
476.426780,0.330906
476.762000,0.333065
477.097180,0.340000
477.432320,0.340065
477.767420,0.343137
478.102480,0.340945
478.437500,0.346470
478.772480,0.336485
479.107420,0.344182
479.442320,0.341327
479.777180,0.342084
480.112000,0.327427
480.446780,0.339049
480.781520,0.334944
481.116220,0.350040
481.450880,0.341140
481.785500,0.348101
482.120080,0.348746
482.454620,0.342657
482.789120,0.343153
483.123580,0.347352
483.458000,0.340981
483.792380,0.357029
484.126720,0.345946
484.461020,0.347385
484.795280,0.347726
485.129500,0.338270
485.463680,0.343411
485.797820,0.353033
486.131920,0.342005
486.465980,0.349807
486.800000,0.346565
487.133980,0.344411
487.467920,0.349656
487.801820,0.342487
488.135680,0.347991
488.469500,0.341150
488.803280,0.341753
489.137020,0.336264
489.470720,0.336053
489.804380,0.342984
490.138000,0.362760
490.471580,0.350037
490.805120,0.338813
491.138620,0.336176
491.472080,0.340636
491.805500,0.344491
492.138880,0.340514
492.472220,0.334948
492.805520,0.342179
493.138780,0.338387
493.472000,0.335117
493.805180,0.342428
494.138320,0.334890
494.471420,0.337240
494.804480,0.331177
495.137500,0.336970
495.470480,0.344806
495.803420,0.332494
496.136320,0.338972
496.469180,0.330264
496.802000,0.328851
497.134780,0.343238
497.467520,0.347401
497.800220,0.327241
498.132880,0.335097
498.465500,0.327346
498.798080,0.327055
499.130620,0.331836
499.463120,0.336328
499.795580,0.326183
500.128000,0.326975
500.460380,0.316469
500.792720,0.317603
501.125020,0.323699
501.457280,0.322715
501.789500,0.326446
502.121680,0.329186
502.453820,0.315145
502.785920,0.319660
503.117980,0.317959
503.450000,0.317931
503.781980,0.313403
504.113920,0.307255
504.445820,0.310647
504.777680,0.306824
505.109500,0.309615
505.441280,0.308795
505.773020,0.304838
506.104720,0.303815
506.436380,0.311406
506.768000,0.310103
507.099580,0.294737
507.431120,0.303044
507.762620,0.298872
508.094080,0.303099
508.425500,0.303922
508.756880,0.300412
509.088220,0.301748
509.419520,0.297952
509.750780,0.304592
510.082000,0.300840
510.413180,0.295256
510.744320,0.293603
511.075420,0.293309
511.406480,0.295252
511.737500,0.287963
512.068480,0.291823
512.399420,0.289202
512.730320,0.280831
513.061180,0.286870
513.392000,0.285376
513.722780,0.282421
514.053520,0.285577
514.384220,0.283064
514.714880,0.286261
515.045500,0.279215
515.376080,0.281356
515.706620,0.278617
516.037120,0.282843
516.367580,0.279941
516.698000,0.275490
517.028380,0.277061
517.358720,0.271605
517.689020,0.279426
518.019280,0.271952
518.349500,0.275722
518.679680,0.272590
519.009820,0.271761
519.339920,0.279559
519.669980,0.269211
520.000000,0.272033
520.329980,0.268015
520.659920,0.268405
520.989820,0.272962
521.319680,0.265432
521.649500,0.266838
521.979280,0.267745
522.309020,0.266079
522.638720,0.262161
522.968380,0.263185
523.298000,0.265136
523.627580,0.260217
523.957120,0.257143
524.286620,0.263158
524.616080,0.262668
524.945500,0.267183
525.274880,0.263725
525.604220,0.260352
525.933520,0.264151
526.262780,0.251901
526.592000,0.256722
526.921180,0.257999
527.250320,0.256215
527.579420,0.263264
527.908480,0.257016
528.237500,0.260179
528.566480,0.252994
528.895420,0.258255
529.224320,0.256563
529.553180,0.253012
529.882000,0.266667
530.210780,0.252896
530.539520,0.256951
530.868220,0.263763
531.196880,0.249881
531.525500,0.259564
531.854080,0.253283
532.182620,0.250350
532.511120,0.255220
532.839580,0.261797
533.168000,0.259344
533.496380,0.257078
533.824720,0.256617
534.153020,0.256799
534.481280,0.258590
534.809500,0.262973
535.137680,0.261719
535.465820,0.258162
535.793920,0.252961
536.121980,0.262274
536.450000,0.266385
536.777980,0.258483
537.105920,0.259859
537.433820,0.260638
537.761680,0.265306
538.089500,0.264670
538.417280,0.262236
538.745020,0.261094
539.072720,0.261226
539.400380,0.264180
539.728000,0.264627
540.055580,0.258427
540.383120,0.258377
540.710620,0.261905
541.038080,0.264478
541.365500,0.263603
541.692880,0.267805
542.020220,0.267362
542.347520,0.265255
542.674780,0.263938
543.002000,0.263471
543.329180,0.273939
543.656320,0.270042
543.983420,0.270085
544.310480,0.266735
544.637500,0.271238
544.964480,0.268843
545.291420,0.271851
545.618320,0.275232
545.945180,0.270270
546.272000,0.270970
546.598780,0.273353
546.925520,0.281899
547.252220,0.274018
547.578880,0.279896
547.905500,0.279085
548.232080,0.282976
548.558620,0.287016
548.885120,0.276415
549.211580,0.279974
549.538000,0.290208
549.864380,0.283601
550.190720,0.289635
550.517020,0.291721
550.843280,0.291205
551.169500,0.281489
551.495680,0.288765
551.821820,0.291639
552.147920,0.291152
552.473980,0.297004
552.800000,0.293002
553.125980,0.299607
553.451920,0.301593
553.777820,0.308794
554.103680,0.301651
554.429500,0.296953
554.755280,0.302737
555.081020,0.304813
555.406720,0.301388
555.732380,0.307015
556.058000,0.304820
556.383580,0.307429
556.709120,0.308408
557.034620,0.309680
557.360080,0.308117
557.685500,0.319156
558.010880,0.317158
558.336220,0.316696
558.661520,0.320808
558.986780,0.321049
559.312000,0.323718
559.637180,0.328546
559.962320,0.322179
560.287420,0.329690
560.612480,0.325440
560.937500,0.332599
561.262480,0.329912
561.587420,0.331157
561.912320,0.340088
562.237180,0.339008
562.562000,0.334456
562.886780,0.342624
563.211520,0.343890
563.536220,0.343599
563.860880,0.345530
564.185500,0.345216
564.510080,0.352897
564.834620,0.346483
565.159120,0.350752
565.483580,0.347777
565.808000,0.352251
566.132380,0.355091
566.456720,0.358655
566.781020,0.356714
567.105280,0.359168
567.429500,0.367982
567.753680,0.366705
568.077820,0.364128
568.401920,0.376623
568.725980,0.373435
569.050000,0.373764
569.373980,0.376094
569.697920,0.375047
570.021820,0.379401
570.345680,0.379640
570.669500,0.383823
570.993280,0.381691
571.317020,0.380709
571.640720,0.386069
571.964380,0.397179
572.288000,0.392433
572.611580,0.388618
572.935120,0.395062
573.258620,0.402019
573.582080,0.395306
573.905500,0.402085
574.228880,0.406459
574.552220,0.406376
574.875520,0.411765
575.198780,0.410192
575.522000,0.407991
575.845180,0.404728
576.168320,0.412864
576.491420,0.424782
576.814480,0.425678
577.137500,0.418831
577.460480,0.428416
577.783420,0.421936
578.106320,0.431268
578.429180,0.427006
578.752000,0.427579
579.074780,0.433918
579.397520,0.432537
579.720220,0.438546
580.042880,0.436406
580.365500,0.441430
580.688080,0.435210
581.010620,0.442457
581.333120,0.447896
581.655580,0.447219
581.978000,0.459262
582.300380,0.448880
582.622720,0.458800
582.945020,0.459038
583.267280,0.457506
583.589500,0.455217
583.911680,0.463639
584.233820,0.460812
584.555920,0.464860
584.877980,0.469849
585.200000,0.459177
585.521980,0.477912
585.843920,0.476815
586.165820,0.473187
586.487680,0.482696
586.809500,0.485449
587.131280,0.476486
587.453020,0.481548
587.774720,0.486399
588.096380,0.483664
588.418000,0.488440
588.739580,0.496407
589.061120,0.491087
589.382620,0.493410
589.704080,0.493969
590.025500,0.498288
590.346880,0.501967
590.668220,0.503780
590.989520,0.499168
591.310780,0.504833
591.632000,0.502732
591.953180,0.507611
592.274320,0.506689
592.595420,0.505119
592.916480,0.509101
593.237500,0.516033
593.558480,0.516815
593.879420,0.519558
594.200320,0.519153
594.521180,0.519788
594.842000,0.524718
595.162780,0.530716
595.483520,0.522202
595.804220,0.527121
596.124880,0.532907
596.445500,0.526068
596.766080,0.539930
597.086620,0.531582
597.407120,0.530016
597.727580,0.537258
598.048000,0.539275
598.368380,0.534193
598.688720,0.541284
599.009020,0.537420
599.329280,0.538850
599.649500,0.537771
599.969680,0.546741
600.289820,0.552618
600.609920,0.544750
600.929980,0.545965
601.250000,0.555405
601.569980,0.552525
601.889920,0.542636
602.209820,0.543019
602.529680,0.560835
602.849500,0.559465
603.169280,0.557729
603.489020,0.563244
603.808720,0.550466
604.128380,0.557395
604.448000,0.560221
604.767580,0.567598
605.087120,0.555956
605.406620,0.557795
605.726080,0.573995
606.045500,0.561159
606.364880,0.565920
606.684220,0.567961
607.003520,0.567087
607.322780,0.567368
607.642000,0.576393
607.961180,0.573287
608.280320,0.578306
608.599420,0.569525
608.918480,0.576540
609.237500,0.571303
609.556480,0.577390
609.875420,0.584465
610.194320,0.577502
610.513180,0.573247
610.832000,0.574449
611.150780,0.577651
611.469520,0.591252
611.788220,0.583132
612.106880,0.575694
612.425500,0.575822
612.744080,0.588797
613.062620,0.577676
613.381120,0.579220
613.699580,0.581852
614.018000,0.588759
614.336380,0.592535
614.654720,0.579535
614.973020,0.588707
615.291280,0.590332
615.609500,0.589540
615.927680,0.579419
616.245820,0.590909
616.563920,0.590612
616.881980,0.593389
617.200000,0.590980
617.517980,0.585563
617.835920,0.586207
618.153820,0.584706
618.471680,0.588527
618.789500,0.590308
619.107280,0.591236
619.425020,0.601332
619.742720,0.589140
620.060380,0.590097
620.378000,0.594084
620.695580,0.593550
621.013120,0.594331
621.330620,0.587700
621.648080,0.576025
621.965500,0.585634
622.282880,0.593001
622.600220,0.596020
622.917520,0.594518
623.234780,0.603343
623.552000,0.596435
623.869180,0.596281
624.186320,0.602993
624.503420,0.602508
624.820480,0.596607
625.137500,0.594569
625.454480,0.586746
625.771420,0.598361
626.088320,0.593947
626.405180,0.601742
626.722000,0.595985
627.038780,0.596178
627.355520,0.589063
627.672220,0.600000
627.988880,0.591602
628.305500,0.597071
628.622080,0.601301
628.938620,0.591743
629.255120,0.599253
629.571580,0.587496
629.888000,0.588831
630.204380,0.585149
630.520720,0.594759
630.837020,0.597595
631.153280,0.588729
631.469500,0.591874
631.785680,0.594937
632.101820,0.589867
632.417920,0.583010
632.733980,0.584334
633.050000,0.586719
633.365980,0.590694
633.681920,0.588902
633.997820,0.589958
634.313680,0.593335
634.629500,0.583604
634.945280,0.587977
635.261020,0.587027
635.576720,0.586025
635.892380,0.590764
636.208000,0.584544
636.523580,0.586086
636.839120,0.580486
637.154620,0.586377
637.470080,0.575323
637.785500,0.586166
638.100880,0.580944
638.416220,0.577509
638.731520,0.575645
639.046780,0.583455
639.362000,0.574541
639.677180,0.580525
639.992320,0.570059
640.307420,0.577128
640.622480,0.576589
640.937500,0.565326
641.252480,0.574421
641.567420,0.573458
641.882320,0.570434
642.197180,0.572150
642.512000,0.573468
642.826780,0.565326
643.141520,0.570992
643.456220,0.570559
643.770880,0.559425
644.085500,0.565679
644.400080,0.572472
644.714620,0.569955
645.029120,0.566007
645.343580,0.563357
645.658000,0.561754
645.972380,0.563442
646.286720,0.564732
646.601020,0.565181
646.915280,0.552509
647.229500,0.549176
647.543680,0.558685
647.857820,0.552161
648.171920,0.553445
648.485980,0.544533
648.800000,0.545605
649.113980,0.547672
649.427920,0.549792
649.741820,0.547128
650.055680,0.545804
650.369500,0.549327
650.683280,0.537458
650.997020,0.541804
651.310720,0.536599
651.624380,0.533242
651.938000,0.539612
652.251580,0.539382
652.565120,0.534097
652.878620,0.530687
653.192080,0.534551
653.505500,0.536886
653.818880,0.536537
654.132220,0.527485
654.445520,0.524674
654.758780,0.522380
655.072000,0.524355
655.385180,0.523538
655.698320,0.520149
656.011420,0.526225
656.324480,0.527252
656.637500,0.520568
656.950480,0.519965
657.263420,0.520839
657.576320,0.515861
657.889180,0.510764
658.202000,0.519022
658.514780,0.511462
658.827520,0.510204
659.140220,0.510039
659.452880,0.510722
659.765500,0.505117
660.078080,0.498044
660.390620,0.498320
660.703120,0.507485
661.015580,0.505521
661.328000,0.510076
661.640380,0.500466
661.952720,0.493927
662.265020,0.498740
662.577280,0.496819
662.889500,0.489120
663.201680,0.490428
663.513820,0.487295
663.825920,0.489273
664.137980,0.486425
664.450000,0.483376
664.761980,0.481833
665.073920,0.477442
665.385820,0.481675
665.697680,0.478347
666.009500,0.482541
666.321280,0.481776
666.633020,0.478059
666.944720,0.475565
667.256380,0.464334
667.568000,0.466712
667.879580,0.469728
668.191120,0.464286
668.502620,0.468333
668.814080,0.468070
669.125500,0.460828
669.436880,0.467151
669.748220,0.461751
670.059520,0.472339
670.370780,0.458594
670.682000,0.461593
670.993180,0.461593
671.304320,0.455345
671.615420,0.455256
671.926480,0.448900
672.237500,0.444802
672.548480,0.447835
672.859420,0.449249
673.170320,0.452666
673.481180,0.447140
673.792000,0.435269
674.102780,0.434470
674.413520,0.436019
674.724220,0.433031
675.034880,0.441144
675.345500,0.439460
675.656080,0.431579
675.966620,0.427428
676.277120,0.430611
676.587580,0.435567
676.898000,0.432997
677.208380,0.428466
677.518720,0.428155
677.829020,0.431264
678.139280,0.435878
678.449500,0.427776
678.759680,0.426752
679.069820,0.418216
679.379920,0.420219
679.689980,0.417378
680.000000,0.418692
680.309980,0.420193
680.619920,0.411587
680.929820,0.412094
681.239680,0.407312
681.549500,0.408889
681.859280,0.405153
682.169020,0.412533
682.478720,0.415482
682.788380,0.406792
683.098000,0.404263
683.407580,0.402251
683.717120,0.402778
684.026620,0.397967
684.336080,0.402425
684.645500,0.402544
684.954880,0.397809
685.264220,0.392601
685.573520,0.402741
685.882780,0.398926
686.192000,0.394281
686.501180,0.391600
686.810320,0.393543
687.119420,0.391106
687.428480,0.391948
687.737500,0.393323
688.046480,0.391104
688.355420,0.383629
688.664320,0.384086
688.973180,0.381317
689.282000,0.389660
689.590780,0.382285
689.899520,0.377896
690.208220,0.384557
690.516880,0.382207
690.825500,0.378113
691.134080,0.377373
691.442620,0.373095
691.751120,0.380356
692.059580,0.382499
692.368000,0.374479
692.676380,0.387405
692.984720,0.377099
693.293020,0.370441
693.601280,0.367417
693.909500,0.369277
694.217680,0.370145
694.525820,0.370526
694.833920,0.366654
695.141980,0.360972
695.450000,0.365649
695.757980,0.369748
696.065920,0.367379
696.373820,0.368745
696.681680,0.362869
696.989500,0.363566
697.297280,0.362116
697.605020,0.366270
697.912720,0.359339
698.220380,0.359307
698.528000,0.364320
698.835580,0.367049
699.143120,0.360094
699.450620,0.365553
699.758080,0.356078
700.065500,0.356744
700.372880,0.366000
700.680220,0.359793
700.987520,0.360317
701.294780,0.362936
701.602000,0.354596
701.909180,0.357313
702.216320,0.346500
702.523420,0.349250
702.830480,0.358416
703.137500,0.347233
703.444480,0.349901
703.751420,0.353452
704.058320,0.351405
704.365180,0.347003
704.672000,0.348119
704.978780,0.351541
705.285520,0.345070
705.592220,0.350588
705.898880,0.356974
706.205500,0.354069
706.512080,0.351896
706.818620,0.349458
707.125120,0.352692
707.431580,0.347011
707.738000,0.349219
708.044380,0.343497
708.350720,0.344669
708.657020,0.349746
708.963280,0.350932
709.269500,0.346380
709.575680,0.354028
709.881820,0.341981
710.187920,0.348249
710.493980,0.344841
710.800000,0.345538
711.105980,0.343373
711.411920,0.348443
711.717820,0.349318
712.023680,0.341236
712.329500,0.343454
712.635280,0.350000
712.941020,0.351759
713.246720,0.349802
713.552380,0.344192
713.858000,0.350808
714.163580,0.352013
714.469120,0.343494
714.774620,0.343071
715.080080,0.346682
715.385500,0.352118
715.690880,0.347140
715.996220,0.352615
716.301520,0.351383
716.606780,0.351808
716.912000,0.355816
717.217180,0.346768
717.522320,0.347117
717.827420,0.348657
718.132480,0.355680
718.437500,0.354668
718.742480,0.343145
719.047420,0.353155
719.352320,0.358655
719.657180,0.359362
719.962000,0.355252
720.266780,0.356876
720.571520,0.355012
720.876220,0.343290
721.180880,0.354933
721.485500,0.353113
721.790080,0.350743
722.094620,0.357204
722.399120,0.353727
722.703580,0.348478
723.008000,0.354894
723.312380,0.347396
723.616720,0.353166
723.921020,0.355565
724.225280,0.356457
724.529500,0.352890
724.833680,0.364769
725.137820,0.358150
725.441920,0.362015
725.745980,0.360179
726.050000,0.362201
726.353980,0.356918
726.657920,0.356725
726.961820,0.365297
727.265680,0.362460
727.569500,0.357861
727.873280,0.357506
728.177020,0.359281
728.480720,0.362963
728.784380,0.369657
729.088000,0.363165
729.391580,0.365703
729.695120,0.375720
729.998620,0.373327
730.302080,0.370495
730.605500,0.362445
730.908880,0.373836
731.212220,0.367287
731.515520,0.369088
731.818780,0.370874
732.122000,0.374508
732.425180,0.372104
732.728320,0.379276
733.031420,0.368421
733.334480,0.378571
733.637500,0.370464
733.940480,0.378199
734.243420,0.384811
734.546320,0.384336
734.849180,0.372934
735.152000,0.379149
735.454780,0.378616
735.757520,0.380400
736.060220,0.378094
736.362880,0.380777
736.665500,0.380679
736.968080,0.393874
737.270620,0.391399
737.573120,0.392467
737.875580,0.393623
738.178000,0.381056
738.480380,0.391351
738.782720,0.399673
739.085020,0.397026
739.387280,0.381375
739.689500,0.392978
739.991680,0.398091
740.293820,0.396904
740.595920,0.398442
740.897980,0.409938
741.200000,0.398766
741.501980,0.396562
741.803920,0.400338
742.105820,0.407219
742.407680,0.408270
742.709500,0.396591
743.011280,0.402696
743.313020,0.406377
743.614720,0.408009
743.916380,0.416860
744.218000,0.413484
744.519580,0.416667
744.821120,0.423353
745.122620,0.420611
745.424080,0.405048
745.725500,0.421847
746.026880,0.420567
746.328220,0.421085
746.629520,0.413606
746.930780,0.414216
747.232000,0.415083
747.533180,0.418548
747.834320,0.420572
748.135420,0.431324
748.436480,0.435434
748.737500,0.431130
749.038480,0.424557
749.339420,0.435594
749.640320,0.441232
749.941180,0.431605
750.242000,0.437814
750.542780,0.434243
750.843520,0.452274
751.144220,0.436538
751.444880,0.447685
751.745500,0.457143
752.046080,0.449647
752.346620,0.440722
752.647120,0.451339
752.947580,0.456662
753.248000,0.457769
753.548380,0.457385
753.848720,0.455248
754.149020,0.439716
754.449280,0.463559
754.749500,0.464499
755.049680,0.462000
755.349820,0.465644
755.649920,0.460674
755.949980,0.466490
756.250000,0.469428
756.549980,0.457426
756.849920,0.467029
757.149820,0.458417
757.449680,0.462706
757.749500,0.473756
758.049280,0.468942
758.349020,0.485396
758.648720,0.483092
758.948380,0.481787
759.248000,0.475067
759.547580,0.482851
759.847120,0.478291
760.146620,0.495264
760.446080,0.483871
760.745500,0.489510
761.044880,0.497869
761.344220,0.490378
761.643520,0.491525
761.942780,0.491253
762.242000,0.500000
762.541180,0.497887
762.840320,0.497191
763.139420,0.505626
763.438480,0.495557
763.737500,0.514817
764.036480,0.515723
764.335420,0.505999
764.634320,0.503812
764.933180,0.506849
765.232000,0.510756
765.530780,0.519298
765.829520,0.520280
766.128220,0.515658
766.426880,0.523810
766.725500,0.520905
767.024080,0.519204
767.322620,0.517981
767.621120,0.531843
767.919580,0.523549
768.218000,0.528728
768.516380,0.532116
768.814720,0.517833
769.113020,0.536871
769.411280,0.538674
769.709500,0.529770
770.007680,0.541922
770.305820,0.547667
770.603920,0.535714
770.901980,0.557377
771.200000,0.544158
771.497980,0.546247
771.795920,0.542475
772.093820,0.552807
772.391680,0.557680
772.689500,0.555405
772.987280,0.558923
773.285020,0.555024
773.582720,0.563514
773.880380,0.568977
774.178000,0.567144
774.475580,0.573342
774.773120,0.566265
775.070620,0.561866
775.368080,0.573814
775.665500,0.568838
775.962880,0.586391
776.260220,0.594886
776.557520,0.580387
776.854780,0.591616
777.152000,0.570955
777.449180,0.587323
777.746320,0.584005
778.043420,0.596862
778.340480,0.600812
778.637500,0.586207
778.934480,0.589778
779.231420,0.594301
779.528320,0.590514
779.825180,0.590909
780.122000,0.583665
780.418780,0.616279
780.715520,0.600268
781.012220,0.615068
781.308880,0.603786
781.605500,0.600000
781.902080,0.605749
782.198620,0.616541
782.495120,0.608368
782.791580,0.611417
783.088000,0.610076
783.384380,0.623109
783.680720,0.616963
783.977020,0.610461
784.273280,0.634266
784.569500,0.621943
784.865680,0.622392
785.161820,0.627778
785.457920,0.623701
785.753980,0.621773
786.050000,0.623619
786.345980,0.634028
786.641920,0.634282
786.937820,0.653846
787.233680,0.631872
787.529500,0.635922
787.825280,0.649433
788.121020,0.650850
788.416720,0.640790
788.712380,0.638223
789.008000,0.638102
789.303580,0.647350
789.599120,0.666909
789.894620,0.670036
790.190080,0.658448
790.485500,0.652988
790.780880,0.661649
791.076220,0.650072
791.371520,0.674655
791.666780,0.677091
791.962000,0.661278
792.257180,0.663982
792.552320,0.679478
792.847420,0.673217
793.142480,0.681319
793.437500,0.681621
793.732480,0.670080
794.027420,0.673591
794.322320,0.683072
794.617180,0.682764
794.912000,0.681278
795.206780,0.684564
795.501520,0.695817
795.796220,0.674074
796.090880,0.706858
796.385500,0.685157
796.680080,0.699327
796.974620,0.682635
797.269120,0.697199
797.563580,0.692366
797.858000,0.694761
798.152380,0.713070
798.446720,0.690000
798.741020,0.692604
799.035280,0.707298
799.329500,0.696690
799.623680,0.713953
