399.985280,0.162162
400.329500,0.202703
400.673680,0.215190
401.017820,0.205882
401.361920,0.227273
401.705980,0.146341
402.050000,0.155844
402.393980,0.211765
402.737920,0.213483
403.081820,0.216495
403.425680,0.209302
403.769500,0.208333
404.113280,0.160920
404.457020,0.202247
404.800720,0.119565
405.144380,0.242424
405.488000,0.172043
405.831580,0.247423
406.175120,0.148936
406.518620,0.180000
406.862080,0.237113
407.205500,0.166667
407.548880,0.142857
407.892220,0.156863
408.235520,0.212766
408.578780,0.200000
408.922000,0.076923
409.265180,0.202020
409.608320,0.181818
409.951420,0.247423
410.294480,0.215686
410.637500,0.152174
410.980480,0.225490
411.323420,0.163265
411.666320,0.119266
412.009180,0.209091
412.352000,0.118812
412.694780,0.201835
413.037520,0.119266
413.380220,0.189189
413.722880,0.178571
414.065500,0.198198
414.408080,0.123894
414.750620,0.176991
415.093120,0.157025
415.435580,0.184874
415.778000,0.242424
416.120380,0.193277
416.462720,0.198413
416.805020,0.218045
417.147280,0.171642
417.489500,0.200000
417.831680,0.157534
418.173820,0.170213
418.515920,0.244755
418.857980,0.183544
419.200000,0.243590
419.541980,0.242604
419.883920,0.219101
420.225820,0.231214
420.567680,0.217877
420.909500,0.207650
421.251280,0.223958
421.593020,0.198980
421.934720,0.207071
422.276380,0.215385
422.618000,0.245098
422.959580,0.240196
423.301120,0.246575
423.642620,0.217391
423.984080,0.223256
424.325500,0.251121
424.666880,0.211207
425.008220,0.205882
425.349520,0.233051
425.690780,0.223077
426.032000,0.215686
426.373180,0.228216
426.714320,0.253906
427.055420,0.223938
427.396480,0.247191
427.737500,0.233202
428.078480,0.229249
428.419420,0.269076
428.760320,0.252874
429.101180,0.283465
429.442000,0.252874
429.782780,0.242308
430.123520,0.270588
430.464220,0.254613
430.804880,0.287356
431.145500,0.265455
431.486080,0.280899
431.826620,0.294574
432.167120,0.286765
432.507580,0.293478
432.848000,0.273381
433.188380,0.285199
433.528720,0.298113
433.869020,0.275000
434.209280,0.273684
434.549500,0.268293
434.889680,0.306397
435.229820,0.283276
435.569920,0.283737
435.909980,0.291262
436.250000,0.311864
436.589980,0.297214
436.929920,0.295238
437.269820,0.291536
437.609680,0.304734
437.949500,0.295181
438.289280,0.297450
438.629020,0.308140
438.968720,0.316860
439.308380,0.303523
439.648000,0.306849
439.987580,0.309524
440.327120,0.328000
440.666620,0.327273
441.006080,0.314578
441.345500,0.324324
441.684880,0.330144
442.024220,0.322581
442.363520,0.319048
442.702780,0.313636
443.042000,0.325991
443.381180,0.327586
443.720320,0.319654
444.059420,0.315126
444.398480,0.338912
444.737500,0.329918
445.076480,0.317460
445.415420,0.327345
445.754320,0.330561
446.093180,0.319266
446.432000,0.330827
446.770780,0.314991
447.109520,0.332721
447.448220,0.316637
447.786880,0.332737
448.125500,0.324138
448.464080,0.323214
448.802620,0.326241
449.141120,0.346021
449.479580,0.319930
449.818000,0.335628
450.156380,0.331104
450.494720,0.330579
450.833020,0.323427
451.171280,0.325342
451.509500,0.346690
451.847680,0.337268
452.185820,0.337349
452.523920,0.341924
452.861980,0.338954
453.200000,0.328904
453.537980,0.324370
453.875920,0.329412
454.213820,0.337329
454.551680,0.339404
454.889500,0.318718
455.227280,0.327402
455.565020,0.326633
455.902720,0.347754
456.240380,0.327787
456.578000,0.318815
456.915580,0.335060
457.253120,0.335526
457.590620,0.339901
457.928080,0.331650
458.265500,0.331081
458.602880,0.324675
458.940220,0.329949
459.277520,0.324800
459.614780,0.335516
459.952000,0.321429
460.289180,0.319620
460.626320,0.332283
460.963420,0.319871
461.300480,0.331804
461.637500,0.320493
461.974480,0.344037
462.311420,0.326379
462.648320,0.325037
462.985180,0.309900
463.322000,0.325893
463.658780,0.306630
463.995520,0.310867
464.332220,0.315789
464.668880,0.313172
465.005500,0.315013
465.342080,0.318822
465.678620,0.317343
466.015120,0.331177
466.351580,0.316056
466.688000,0.314251
467.024380,0.311057
467.360720,0.304545
467.697020,0.298405
468.033280,0.297778
468.369500,0.309051
468.705680,0.316798
469.041820,0.307292
469.377920,0.296095
469.713980,0.289392
470.050000,0.307246
470.385980,0.296477
470.721920,0.302644
471.057820,0.300195
471.393680,0.297474
471.729500,0.296571
472.065280,0.292487
472.401020,0.291667
472.736720,0.291449
473.072380,0.291741
473.408000,0.288947
473.743580,0.284602
474.079120,0.291128
474.414620,0.281595
474.750080,0.270138
475.085500,0.284539
475.420880,0.285595
475.756220,0.278823
476.091520,0.288150
476.426780,0.278317
476.762000,0.276750
477.097180,0.276000
477.432320,0.270598
477.767420,0.278595
478.102480,0.274803
478.437500,0.268473
478.772480,0.264775
479.107420,0.262002
479.442320,0.271783
479.777180,0.268099
480.112000,0.266564
480.446780,0.265004
480.781520,0.257649
481.116220,0.261924
481.450880,0.259953
481.785500,0.267405
482.120080,0.264107
482.454620,0.263403
482.789120,0.264331
483.123580,0.256231
483.458000,0.256329
483.792380,0.261981
484.126720,0.248649
484.461020,0.253708
484.795280,0.264456
485.129500,0.249415
485.463680,0.248062
485.797820,0.255832
486.131920,0.243305
486.465980,0.247876
486.800000,0.251908
487.133980,0.246979
487.467920,0.250191
487.801820,0.249428
488.135680,0.246399
488.469500,0.239788
488.803280,0.244428
489.137020,0.243223
489.470720,0.239614
489.804380,0.244989
490.138000,0.247033
490.471580,0.242447
490.805120,0.239457
491.138620,0.234542
491.472080,0.239576
491.805500,0.233612
492.138880,0.232801
492.472220,0.232526
492.805520,0.236034
493.138780,0.245348
493.472000,0.238127
493.805180,0.229195
494.138320,0.238159
494.471420,0.236328
494.804480,0.232859
495.137500,0.236200
495.470480,0.235819
495.803420,0.229849
496.136320,0.236216
496.469180,0.230816
496.802000,0.227384
497.134780,0.234081
497.467520,0.234862
497.800220,0.224646
498.132880,0.237507
498.465500,0.234647
498.798080,0.230594
499.130620,0.226277
499.463120,0.229085
499.795580,0.231023
500.128000,0.229973
500.460380,0.230355
500.792720,0.229056
501.125020,0.221755
501.457280,0.229765
501.789500,0.230372
502.121680,0.234837
502.453820,0.232024
502.785920,0.228114
503.117980,0.231600
503.450000,0.234053
503.781980,0.236173
504.113920,0.221432
504.445820,0.230919
504.777680,0.230118
505.109500,0.228846
505.441280,0.227533
505.773020,0.228276
506.104720,0.226095
506.436380,0.240890
506.768000,0.233396
507.099580,0.228375
507.431120,0.240749
507.762620,0.238722
508.094080,0.232452
508.425500,0.235761
508.756880,0.234111
509.088220,0.235971
509.419520,0.236965
509.750780,0.242737
510.082000,0.233675
510.413180,0.235375
510.744320,0.241141
511.075420,0.238772
511.406480,0.241185
511.737500,0.241667
512.068480,0.242951
512.399420,0.236620
512.730320,0.244804
513.061180,0.242626
513.392000,0.242310
513.722780,0.245917
514.053520,0.248682
514.384220,0.240247
514.714880,0.244136
515.045500,0.245211
515.376080,0.245521
515.706620,0.246469
516.037120,0.255882
516.367580,0.255791
516.698000,0.252941
517.028380,0.249752
517.358720,0.260741
517.689020,0.257171
518.019280,0.257903
518.349500,0.258996
518.679680,0.263503
519.009820,0.258097
519.339920,0.275050
519.669980,0.265696
520.000000,0.267957
520.329980,0.264904
520.659920,0.267382
520.989820,0.274510
521.319680,0.271091
521.649500,0.278149
521.979280,0.270355
522.309020,0.274378
522.638720,0.274962
522.968380,0.279214
523.298000,0.278184
523.627580,0.281428
523.957120,0.282078
524.286620,0.287129
524.616080,0.286453
524.945500,0.288372
525.274880,0.292971
525.604220,0.290890
525.933520,0.286688
526.262780,0.296503
526.592000,0.290208
526.921180,0.293550
527.250320,0.290715
527.579420,0.304699
527.908480,0.302314
528.237500,0.304866
528.566480,0.301896
528.895420,0.310498
529.224320,0.310054
529.553180,0.306506
529.882000,0.314355
530.210780,0.309846
530.539520,0.315436
530.868220,0.319292
531.196880,0.315815
531.525500,0.321065
531.854080,0.314728
532.182620,0.314806
532.511120,0.318794
532.839580,0.335753
533.168000,0.338195
533.496380,0.332877
533.824720,0.333782
534.153020,0.337494
534.481280,0.335242
534.809500,0.340809
535.137680,0.338108
535.465820,0.338488
535.793920,0.334179
536.121980,0.346202
536.450000,0.346300
536.777980,0.353582
537.105920,0.353674
537.433820,0.355974
537.761680,0.361633
538.089500,0.363416
538.417280,0.353363
538.745020,0.362916
539.072720,0.356892
539.400380,0.358586
539.728000,0.367495
540.055580,0.369288
540.383120,0.369322
540.710620,0.367932
541.038080,0.378458
541.365500,0.373529
541.692880,0.371366
542.020220,0.376394
542.347520,0.386935
542.674780,0.384968
543.002000,0.375087
543.329180,0.393195
543.656320,0.388186
543.983420,0.386667
544.310480,0.385321
544.637500,0.395769
544.964480,0.390646
545.291420,0.393819
545.618320,0.394422
545.945180,0.395847
546.272000,0.393840
546.598780,0.401835
546.925520,0.405869
547.252220,0.404754
547.578880,0.411535
547.905500,0.414379
548.232080,0.405783
548.558620,0.412301
548.885120,0.420674
549.211580,0.415622
549.538000,0.417315
549.864380,0.418971
550.190720,0.423959
550.517020,0.419492
550.843280,0.429316
551.169500,0.423982
551.495680,0.421485
551.821820,0.432071
552.147920,0.431034
552.473980,0.434639
552.800000,0.429366
553.125980,0.437132
553.451920,0.442933
553.777820,0.444037
554.103680,0.442535
554.429500,0.442250
554.755280,0.445260
555.081020,0.439505
555.406720,0.445648
555.732380,0.445951
556.058000,0.452138
556.383580,0.448819
556.709120,0.458994
557.034620,0.458836
557.360080,0.462176
557.685500,0.453320
558.010880,0.456846
558.336220,0.453076
558.661520,0.456576
558.986780,0.465273
559.312000,0.469373
559.637180,0.472890
559.962320,0.467426
560.287420,0.474612
560.612480,0.468245
560.937500,0.473568
561.262480,0.474707
561.587420,0.476605
561.912320,0.473471
562.237180,0.475204
562.562000,0.488590
562.886780,0.485321
563.211520,0.480999
563.536220,0.477922
563.860880,0.495662
564.185500,0.476173
564.510080,0.493980
564.834620,0.488277
565.159120,0.486466
565.483580,0.487267
565.808000,0.496784
566.132380,0.498322
566.456720,0.494331
566.781020,0.499625
567.105280,0.493762
567.429500,0.504173
567.753680,0.502877
568.077820,0.500966
568.401920,0.505730
568.725980,0.504364
569.050000,0.505323
569.373980,0.496384
569.697920,0.502086
570.021820,0.504120
570.345680,0.502105
570.669500,0.508585
570.993280,0.505722
571.317020,0.514797
571.640720,0.506113
571.964380,0.511878
572.288000,0.513724
572.611580,0.518532
572.935120,0.517396
573.258620,0.517951
573.582080,0.520119
573.905500,0.519360
574.228880,0.521158
574.552220,0.518139
574.875520,0.514892
575.198780,0.517528
575.522000,0.517229
575.845180,0.523997
576.168320,0.528207
576.491420,0.534520
576.814480,0.529837
577.137500,0.527417
577.460480,0.527365
577.783420,0.530904
578.106320,0.540242
578.429180,0.534818
578.752000,0.538034
579.074780,0.535738
579.397520,0.531311
579.720220,0.537323
580.042880,0.530558
580.365500,0.533422
580.688080,0.541045
581.010620,0.544043
581.333120,0.534736
581.655580,0.537463
581.978000,0.539741
582.300380,0.530996
582.622720,0.547132
582.945020,0.539337
583.267280,0.536633
583.589500,0.543178
583.911680,0.544617
584.233820,0.533207
584.555920,0.544595
584.877980,0.545540
585.200000,0.539288
585.521980,0.553908
585.843920,0.548200
586.165820,0.542352
586.487680,0.542281
586.809500,0.547255
587.131280,0.540964
587.453020,0.541667
587.774720,0.539622
588.096380,0.550467
588.418000,0.545508
588.739580,0.550733
589.061120,0.542553
589.382620,0.548138
589.704080,0.543338
590.025500,0.550799
590.346880,0.547499
590.668220,0.545225
590.989520,0.538547
591.310780,0.543220
591.632000,0.548361
591.953180,0.546914
592.274320,0.538630
592.595420,0.541756
592.916480,0.540886
593.237500,0.543789
593.558480,0.546677
593.879420,0.545994
594.200320,0.544334
594.521180,0.543958
594.842000,0.549704
595.162780,0.551282
595.483520,0.538421
595.804220,0.540548
596.124880,0.540901
596.445500,0.542573
596.766080,0.539930
597.086620,0.541667
597.407120,0.537125
597.727580,0.542827
598.048000,0.532399
598.368380,0.539979
598.688720,0.542333
599.009020,0.541136
599.329280,0.536988
599.649500,0.535394
599.969680,0.540865
600.289820,0.533120
600.609920,0.527652
600.929980,0.531267
601.250000,0.529189
601.569980,0.536052
601.889920,0.521251
602.209820,0.527327
602.529680,0.534194
602.849500,0.530551
603.169280,0.531276
603.489020,0.528370
603.808720,0.522765
604.128380,0.529525
604.448000,0.520442
604.767580,0.529050
605.087120,0.521330
605.406620,0.527288
605.726080,0.534930
606.045500,0.527166
606.364880,0.521690
606.684220,0.528270
607.003520,0.510608
607.322780,0.519045
607.642000,0.515508
607.961180,0.516045
608.280320,0.513051
608.599420,0.513905
608.918480,0.515836
609.237500,0.517312
609.556480,0.518497
609.875420,0.512404
610.194320,0.512253
610.513180,0.513466
610.832000,0.512210
611.150780,0.510964
611.469520,0.504072
611.788220,0.506651
612.106880,0.505730
612.425500,0.501827
612.744080,0.508464
613.062620,0.496330
613.381120,0.491469
613.699580,0.500000
614.018000,0.499386
614.336380,0.501234
614.654720,0.499845
614.973020,0.491515
615.291280,0.493337
615.609500,0.500792
615.927680,0.487021
616.245820,0.490724
616.563920,0.485856
616.881980,0.490801
617.200000,0.493624
617.517980,0.487866
617.835920,0.488661
618.153820,0.479018
618.471680,0.479380
618.789500,0.486155
619.107280,0.490141
619.425020,0.478275
619.742720,0.481795
620.060380,0.469759
620.378000,0.482379
620.695580,0.478608
621.013120,0.479055
621.330620,0.475369
621.648080,0.474132
621.965500,0.463927
622.282880,0.473834
622.600220,0.461466
622.917520,0.466289
623.234780,0.477017
623.552000,0.471356
623.869180,0.465805
624.186320,0.465457
624.503420,0.464577
624.820480,0.462143
625.137500,0.469530
625.454480,0.454204
625.771420,0.453972
626.088320,0.453026
626.405180,0.454885
626.722000,0.450439
627.038780,0.442669
627.355520,0.446250
627.672220,0.454121
627.988880,0.443235
628.305500,0.449673
628.622080,0.447646
628.938620,0.444343
629.255120,0.448351
629.571580,0.444070
629.888000,0.445535
630.204380,0.445535
630.520720,0.436319
630.837020,0.435399
631.153280,0.435552
631.469500,0.436931
631.785680,0.430078
632.101820,0.440893
632.417920,0.430999
632.733980,0.432173
633.050000,0.436931
633.365980,0.430943
633.681920,0.425119
633.997820,0.429468
634.313680,0.421115
634.629500,0.422589
634.945280,0.424340
635.261020,0.425594
635.576720,0.422490
635.892380,0.417949
636.208000,0.416909
636.523580,0.423268
636.839120,0.417776
637.154620,0.420000
637.470080,0.417504
637.785500,0.419988
638.100880,0.407472
638.416220,0.412712
638.731520,0.410602
639.046780,0.405768
639.362000,0.406823
639.677180,0.403769
639.992320,0.405695
640.307420,0.409947
640.622480,0.403808
640.937500,0.399723
641.252480,0.406311
641.567420,0.402387
641.882320,0.401169
642.197180,0.401460
642.512000,0.396586
642.826780,0.401387
643.141520,0.394276
643.456220,0.392363
643.770880,0.389718
644.085500,0.389883
644.400080,0.396067
644.714620,0.392977
645.029120,0.386414
645.343580,0.389742
645.658000,0.390785
645.972380,0.387503
646.286720,0.387026
646.601020,0.389704
646.915280,0.386345
647.229500,0.378846
647.543680,0.380834
647.857820,0.381778
648.171920,0.382257
648.485980,0.374623
648.800000,0.377790
649.113980,0.377217
649.427920,0.381137
649.741820,0.372355
650.055680,0.377400
650.369500,0.374720
650.683280,0.369034
650.997020,0.367712
651.310720,0.370666
651.624380,0.369231
651.938000,0.367867
652.251580,0.362093
652.565120,0.366685
652.878620,0.370214
653.192080,0.369663
653.505500,0.366339
653.818880,0.368780
654.132220,0.364284
654.445520,0.363585
654.758780,0.360057
655.072000,0.360458
655.385180,0.357204
655.698320,0.360960
656.011420,0.358555
656.324480,0.357039
656.637500,0.356315
656.950480,0.357604
657.263420,0.355010
657.576320,0.360213
657.889180,0.359186
658.202000,0.355978
658.514780,0.358142
658.827520,0.353241
659.140220,0.350315
659.452880,0.352764
659.765500,0.348585
660.078080,0.349985
660.390620,0.347693
660.703120,0.359609
661.015580,0.350613
661.328000,0.351071
661.640380,0.349177
661.952720,0.349112
662.265020,0.351607
662.577280,0.344784
662.889500,0.342163
663.201680,0.347798
663.513820,0.345770
663.825920,0.336856
664.137980,0.348093
664.450000,0.342711
664.761980,0.345990
665.073920,0.340149
665.385820,0.343914
665.697680,0.338843
666.009500,0.350183
666.321280,0.347913
666.633020,0.345412
666.944720,0.345804
667.256380,0.341521
667.568000,0.344090
667.879580,0.339116
668.191120,0.347527
668.502620,0.341321
668.814080,0.343509
669.125500,0.347588
669.436880,0.345090
669.748220,0.337141
670.059520,0.349440
670.370780,0.343772
670.682000,0.345133
670.993180,0.343199
671.304320,0.338608
671.615420,0.338068
671.926480,0.341377
672.237500,0.339764
672.548480,0.341732
672.859420,0.347034
673.170320,0.340225
673.481180,0.343592
673.792000,0.338262
674.102780,0.342908
674.413520,0.345607
674.724220,0.338657
675.034880,0.341401
675.345500,0.347921
675.656080,0.338294
675.966620,0.349945
676.277120,0.344929
676.587580,0.346097
676.898000,0.344158
677.208380,0.345656
677.518720,0.339898
677.829020,0.341463
678.139280,0.348406
678.449500,0.346082
678.759680,0.348070
679.069820,0.347584
679.379920,0.350811
679.689980,0.339398
680.000000,0.346168
680.309980,0.352635
680.619920,0.346838
680.929820,0.347891
681.239680,0.348966
681.549500,0.338519
681.859280,0.356609
682.169020,0.347631
682.478720,0.355273
682.788380,0.349945
683.098000,0.349663
683.407580,0.353471
683.717120,0.356982
684.026620,0.356175
684.336080,0.350133
684.645500,0.355780
684.954880,0.357764
685.264220,0.358248
685.573520,0.357823
685.882780,0.362102
686.192000,0.360798
686.501180,0.354521
686.810320,0.364719
687.119420,0.364880
687.428480,0.360805
687.737500,0.366078
688.046480,0.360046
688.355420,0.361373
688.664320,0.359985
688.973180,0.364472
689.282000,0.363426
689.590780,0.366181
689.899520,0.362324
690.208220,0.374618
690.516880,0.366552
690.825500,0.372830
691.134080,0.369021
691.442620,0.365091
691.751120,0.372014
692.059580,0.377149
692.368000,0.371829
692.676380,0.377481
692.984720,0.370992
693.293020,0.376900
693.601280,0.384968
693.909500,0.375331
694.217680,0.373953
694.525820,0.388043
694.833920,0.377718
695.141980,0.381797
695.450000,0.380916
695.757980,0.379679
696.065920,0.393398
696.373820,0.386836
696.681680,0.382815
696.989500,0.388267
697.297280,0.383119
697.605020,0.393254
697.912720,0.389700
698.220380,0.387643
698.528000,0.393592
698.835580,0.391940
699.143120,0.396337
699.450620,0.395386
699.758080,0.387843
700.065500,0.402634
700.372880,0.411200
700.680220,0.402473
700.987520,0.408333
701.294780,0.402676
701.602000,0.410856
701.909180,0.403816
702.216320,0.399296
702.523420,0.417127
702.830480,0.414257
703.137500,0.408807
703.444480,0.415385
703.751420,0.420118
704.058320,0.415117
704.365180,0.416798
704.672000,0.420990
704.978780,0.417480
705.285520,0.415493
705.592220,0.419608
705.898880,0.429866
706.205500,0.429577
706.512080,0.431675
706.818620,0.428793
707.125120,0.428846
707.431580,0.422821
707.738000,0.438281
708.044380,0.434195
708.350720,0.434467
708.657020,0.441970
708.963280,0.443323
709.269500,0.450489
709.575680,0.442043
709.881820,0.440252
710.187920,0.438911
710.493980,0.447634
710.800000,0.443936
711.105980,0.447289
711.411920,0.448955
711.717820,0.455361
712.023680,0.451613
712.329500,0.463328
712.635280,0.462403
712.941020,0.458446
713.246720,0.462055
713.552380,0.458399
713.858000,0.461175
714.163580,0.464878
714.469120,0.468152
714.774620,0.469404
715.080080,0.467216
715.385500,0.469624
715.690880,0.472978
715.996220,0.465927
716.301520,0.472332
716.606780,0.474057
716.912000,0.473748
717.217180,0.480048
717.522320,0.480318
717.827420,0.485354
718.132480,0.482939
718.437500,0.487974
718.742480,0.486694
719.047420,0.489482
719.352320,0.495641
719.657180,0.495912
719.962000,0.492142
720.266780,0.492730
720.571520,0.498757
720.876220,0.495090
721.180880,0.497074
721.485500,0.497284
721.790080,0.487049
722.094620,0.506003
722.399120,0.516157
722.703580,0.506215
723.008000,0.513152
723.312380,0.516143
723.616720,0.509137
723.921020,0.514942
724.225280,0.516579
724.529500,0.510070
724.833680,0.520907
725.137820,0.523348
725.441920,0.521623
725.745980,0.523937
726.050000,0.525034
726.353980,0.517801
726.657920,0.523617
726.961820,0.541096
727.265680,0.535830
727.569500,0.531993
727.873280,0.530716
728.177020,0.540304
728.480720,0.540278
728.784380,0.550023
729.088000,0.537447
729.391580,0.537660
729.695120,0.552783
729.998620,0.547801
730.302080,0.546372
730.605500,0.545852
730.908880,0.545811
731.212220,0.553869
731.515520,0.555339
731.818780,0.559223
732.122000,0.560531
732.425180,0.553967
732.728320,0.561725
733.031420,0.565915
733.334480,0.575000
733.637500,0.565020
733.940480,0.567042
734.243420,0.572885
734.546320,0.579876
734.849180,0.574380
735.152000,0.584025
735.454780,0.563017
735.757520,0.577977
736.060220,0.573986
736.362880,0.569853
736.665500,0.577546
736.968080,0.586244
737.270620,0.594992
737.573120,0.594978
737.875580,0.605278
738.178000,0.593359
738.480380,0.588649
738.782720,0.592148
739.085020,0.596366
739.387280,0.589800
739.689500,0.599660
739.991680,0.604155
740.293820,0.598121
740.595920,0.608792
740.897980,0.607566
741.200000,0.606842
741.501980,0.618911
741.803920,0.608671
742.105820,0.610265
742.407680,0.609785
742.709500,0.598864
743.011280,0.627198
743.313020,0.616812
743.614720,0.615786
743.916380,0.619767
744.218000,0.619928
744.519580,0.631039
744.821120,0.634132
745.122620,0.620731
745.424080,0.619591
745.725500,0.636089
746.026880,0.646552
746.328220,0.644883
746.629520,0.634557
746.930780,0.650123
747.232000,0.632741
747.533180,0.643075
747.834320,0.648813
748.135420,0.642014
748.436480,0.649407
748.737500,0.651019
749.038480,0.643861
749.339420,0.658370
749.640320,0.658077
749.941180,0.650843
750.242000,0.665201
750.542780,0.659429
750.843520,0.661115
751.144220,0.666026
751.444880,0.668992
751.745500,0.664286
752.046080,0.663246
752.346620,0.665593
752.647120,0.663619
752.947580,0.653946
753.248000,0.678272
753.548380,0.672088
753.848720,0.676755
754.149020,0.662153
754.449280,0.688116
754.749500,0.675514
755.049680,0.680000
755.349820,0.685123
755.649920,0.690020
755.949980,0.692767
756.250000,0.695595
756.549980,0.696370
756.849920,0.687967
757.149820,0.669328
757.449680,0.692409
757.749500,0.693252
758.049280,0.700341
758.349020,0.696801
758.648720,0.721187
758.948380,0.702405
759.248000,0.716307
759.547580,0.706792
759.847120,0.692626
760.146620,0.711773
760.446080,0.711022
760.745500,0.695105
761.044880,0.708807
761.344220,0.704205
761.643520,0.705508
761.942780,0.719384
762.242000,0.727016
762.541180,0.718310
762.840320,0.721208
763.139420,0.719409
763.438480,0.719754
763.737500,0.725706
764.036480,0.722572
764.335420,0.731828
764.634320,0.722800
764.933180,0.726712
765.232000,0.730049
765.530780,0.727719
765.829520,0.735664
766.128220,0.739736
766.426880,0.754087
766.725500,0.729952
767.024080,0.741427
767.322620,0.741355
767.621120,0.736450
767.919580,0.755631
768.218000,0.740082
768.516380,0.759973
768.814720,0.741427
769.113020,0.749828
769.411280,0.756215
769.709500,0.757781
770.007680,0.753238
770.305820,0.755916
770.603920,0.754043
770.901980,0.769809
771.200000,0.760190
771.497980,0.748660
771.795920,0.757860
772.093820,0.757353
772.391680,0.770600
772.689500,0.777703
772.987280,0.758249
773.285020,0.768284
773.582720,0.769595
773.880380,0.785175
774.178000,0.770279
774.475580,0.769591
774.773120,0.767068
775.070620,0.768763
775.368080,0.767535
775.665500,0.765615
775.962880,0.779186
776.260220,0.786003
776.557520,0.775851
776.854780,0.778229
777.152000,0.782493
777.449180,0.800405
777.746320,0.771505
778.043420,0.793997
778.340480,0.796346
778.637500,0.789723
778.934480,0.781439
779.231420,0.794437
779.528320,0.785571
779.825180,0.777997
780.122000,0.780876
780.418780,0.802326
780.715520,0.798122
781.012220,0.804110
781.308880,0.805950
781.605500,0.802055
781.902080,0.798084
782.198620,0.809296
782.495120,0.814129
782.791580,0.811554
783.088000,0.799862
783.384380,0.813618
783.680720,0.781122
783.977020,0.783207
784.273280,0.814685
784.569500,0.809923
784.865680,0.812239
785.161820,0.806944
785.457920,0.808039
785.753980,0.817865
786.050000,0.807320
786.345980,0.811111
786.641920,0.809854
786.937820,0.827635
787.233680,0.814196
787.529500,0.810680
787.825280,0.823654
788.121020,0.825071
788.416720,0.804517
788.712380,0.815233
789.008000,0.817280
789.303580,0.830389
789.599120,0.835636
789.894620,0.835379
790.190080,0.820885
790.485500,0.820014
790.780880,0.837276
791.076220,0.800144
791.371520,0.827160
791.666780,0.823273
791.962000,0.842763
792.257180,0.819180
792.552320,0.836113
792.847420,0.823144
793.142480,0.836630
793.437500,0.824168
793.732480,0.831748
794.027420,0.841246
794.322320,0.835943
794.617180,0.822437
794.912000,0.833581
795.206780,0.840418
795.501520,0.851711
795.796220,0.817037
796.090880,0.839488
796.385500,0.822339
796.680080,0.810770
796.974620,0.824850
797.269120,0.820590
797.563580,0.838931
797.858000,0.849658
798.152380,0.849188
798.446720,0.838462
798.741020,0.840524
799.035280,0.831522
799.329500,0.839107
799.623680,0.851938
