399.985280,0.337838
400.329500,0.337838
400.673680,0.291139
401.017820,0.323529
401.361920,0.303030
401.705980,0.329268
402.050000,0.298701
402.393980,0.352941
402.737920,0.370787
403.081820,0.268041
403.425680,0.290698
403.769500,0.270833
404.113280,0.321839
404.457020,0.415730
404.800720,0.271739
405.144380,0.272727
405.488000,0.354839
405.831580,0.329897
406.175120,0.308511
406.518620,0.250000
406.862080,0.278351
407.205500,0.281250
407.548880,0.214286
407.892220,0.313725
408.235520,0.329787
408.578780,0.314286
408.922000,0.278846
409.265180,0.313131
409.608320,0.303030
409.951420,0.329897
410.294480,0.343137
410.637500,0.304348
410.980480,0.294118
411.323420,0.326531
411.666320,0.302752
412.009180,0.318182
412.352000,0.277228
412.694780,0.339450
413.037520,0.275229
413.380220,0.333333
413.722880,0.348214
414.065500,0.261261
414.408080,0.194690
414.750620,0.247788
415.093120,0.223140
415.435580,0.344538
415.778000,0.287879
416.120380,0.277311
416.462720,0.269841
416.805020,0.285714
417.147280,0.283582
417.489500,0.278571
417.831680,0.280822
418.173820,0.276596
418.515920,0.300699
418.857980,0.278481
419.200000,0.243590
419.541980,0.307692
419.883920,0.275281
420.225820,0.254335
420.567680,0.284916
420.909500,0.278689
421.251280,0.276042
421.593020,0.234694
421.934720,0.267677
422.276380,0.287179
422.618000,0.269608
422.959580,0.269608
423.301120,0.255708
423.642620,0.221739
423.984080,0.260465
424.325500,0.269058
424.666880,0.267241
425.008220,0.239496
425.349520,0.245763
425.690780,0.215385
426.032000,0.223529
426.373180,0.261411
426.714320,0.246094
427.055420,0.243243
427.396480,0.250936
427.737500,0.221344
428.078480,0.225296
428.419420,0.265060
428.760320,0.245211
429.101180,0.248031
429.442000,0.222222
429.782780,0.246154
430.123520,0.266667
430.464220,0.228782
430.804880,0.260536
431.145500,0.229091
431.486080,0.232210
431.826620,0.251938
432.167120,0.213235
432.507580,0.246377
432.848000,0.237410
433.188380,0.234657
433.528720,0.226415
433.869020,0.221429
434.209280,0.196491
434.549500,0.226481
434.889680,0.235690
435.229820,0.242321
435.569920,0.211073
435.909980,0.229773
436.250000,0.216949
436.589980,0.204334
436.929920,0.231746
437.269820,0.197492
437.609680,0.207101
437.949500,0.225904
438.289280,0.220963
438.629020,0.220930
438.968720,0.194767
439.308380,0.203252
439.648000,0.205479
439.987580,0.193122
440.327120,0.221333
440.666620,0.210390
441.006080,0.207161
441.345500,0.208845
441.684880,0.196172
442.024220,0.203474
442.363520,0.192857
442.702780,0.197727
443.042000,0.200441
443.381180,0.209052
443.720320,0.218143
444.059420,0.199580
444.398480,0.184100
444.737500,0.204918
445.076480,0.200397
445.415420,0.197605
445.754320,0.203742
446.093180,0.198165
446.432000,0.195489
446.770780,0.201139
447.109520,0.207721
447.448220,0.203936
447.786880,0.200358
448.125500,0.189655
448.464080,0.191071
448.802620,0.186170
449.141120,0.190311
449.479580,0.194056
449.818000,0.199656
450.156380,0.185619
450.494720,0.195041
450.833020,0.206294
451.171280,0.198630
451.509500,0.207317
451.847680,0.192243
452.185820,0.209983
452.523920,0.202749
452.861980,0.193929
453.200000,0.189369
453.537980,0.194958
453.875920,0.191597
454.213820,0.179795
454.551680,0.188742
454.889500,0.193929
455.227280,0.193950
455.565020,0.194305
455.902720,0.196339
456.240380,0.179700
456.578000,0.202091
456.915580,0.198618
457.253120,0.194079
457.590620,0.200328
457.928080,0.200337
458.265500,0.202703
458.602880,0.189935
458.940220,0.189509
459.277520,0.192000
459.614780,0.206219
459.952000,0.190994
460.289180,0.197785
460.626320,0.196850
460.963420,0.200323
461.300480,0.192661
461.637500,0.197227
461.974480,0.206422
462.311420,0.195231
462.648320,0.200586
462.985180,0.189383
463.322000,0.191964
463.658780,0.185083
463.995520,0.189821
464.332220,0.200831
464.668880,0.196237
465.005500,0.206434
465.342080,0.194622
465.678620,0.199262
466.015120,0.196636
466.351580,0.197219
466.688000,0.205847
467.024380,0.200486
467.360720,0.189773
467.697020,0.192483
468.033280,0.202222
468.369500,0.199779
468.705680,0.211950
469.041820,0.198958
469.377920,0.196312
469.713980,0.210093
470.050000,0.200966
470.385980,0.206458
470.721920,0.204701
471.057820,0.209552
471.393680,0.200187
471.729500,0.196478
472.065280,0.205725
472.401020,0.198582
472.736720,0.211169
473.072380,0.201975
473.408000,0.204526
473.743580,0.204152
474.079120,0.211886
474.414620,0.206107
474.750080,0.209113
475.085500,0.212171
475.420880,0.208160
475.756220,0.210957
476.091520,0.208014
476.426780,0.206311
476.762000,0.200322
477.097180,0.212800
477.432320,0.215670
477.767420,0.205882
478.102480,0.213386
478.437500,0.220033
478.772480,0.211978
479.107420,0.215622
479.442320,0.205436
479.777180,0.217979
480.112000,0.210324
480.446780,0.214341
480.781520,0.220612
481.116220,0.218270
481.450880,0.221702
481.785500,0.231013
482.120080,0.224138
482.454620,0.222999
482.789120,0.225318
483.123580,0.221184
483.458000,0.223892
483.792380,0.223642
484.126720,0.228571
484.461020,0.228728
484.795280,0.228990
485.129500,0.232268
485.463680,0.232558
485.797820,0.241835
486.131920,0.231829
486.465980,0.237066
486.800000,0.240458
487.133980,0.230363
487.467920,0.242540
487.801820,0.240275
488.135680,0.241850
488.469500,0.236006
488.803280,0.236256
489.137020,0.234432
489.470720,0.242582
489.804380,0.239792
490.138000,0.250000
490.471580,0.258659
490.805120,0.243031
491.138620,0.243070
491.472080,0.246643
491.805500,0.252441
492.138880,0.246004
492.472220,0.254671
492.805520,0.260475
493.138780,0.257064
493.472000,0.261538
493.805180,0.268759
494.138320,0.264176
494.471420,0.257812
494.804480,0.261320
495.137500,0.265725
495.470480,0.267049
495.803420,0.265113
496.136320,0.265664
496.469180,0.261510
496.802000,0.265892
497.134780,0.269861
497.467520,0.273394
497.800220,0.270047
498.132880,0.276308
498.465500,0.267671
498.798080,0.268836
499.130620,0.274003
499.463120,0.280180
499.795580,0.281628
500.128000,0.274114
500.460380,0.275027
500.792720,0.282609
501.125020,0.271151
501.457280,0.283029
501.789500,0.285640
502.121680,0.288751
502.453820,0.285059
502.785920,0.286143
503.117980,0.287046
503.450000,0.304872
503.781980,0.293473
504.113920,0.290659
504.445820,0.295090
504.777680,0.294588
505.109500,0.294712
505.441280,0.300669
505.773020,0.295444
506.104720,0.299576
506.436380,0.296261
506.768000,0.304958
507.099580,0.297941
507.431120,0.304450
507.762620,0.308271
508.094080,0.304923
508.425500,0.312325
508.756880,0.313214
509.088220,0.311868
509.419520,0.314246
509.750780,0.309747
510.082000,0.311567
510.413180,0.313680
510.744320,0.319834
511.075420,0.318973
511.406480,0.320169
511.737500,0.318519
512.068480,0.329417
512.399420,0.324883
512.730320,0.322864
513.061180,0.327783
513.392000,0.328443
513.722780,0.325168
514.053520,0.330618
514.384220,0.328735
514.714880,0.338918
515.045500,0.334291
515.376080,0.342857
515.706620,0.338042
516.037120,0.340196
516.367580,0.338590
516.698000,0.341667
517.028380,0.338630
517.358720,0.344198
517.689020,0.347181
518.019280,0.346713
518.349500,0.350735
518.679680,0.345280
519.009820,0.343117
519.339920,0.357715
519.669980,0.350075
520.000000,0.362201
520.329980,0.369622
520.659920,0.358896
520.989820,0.356037
521.319680,0.355967
521.649500,0.361954
521.979280,0.366910
522.309020,0.361515
522.638720,0.353815
522.968380,0.365047
523.298000,0.363779
523.627580,0.366270
523.957120,0.364675
524.286620,0.373111
524.616080,0.378490
524.945500,0.373127
525.274880,0.376603
525.604220,0.389752
525.933520,0.375786
526.262780,0.374050
526.592000,0.384069
526.921180,0.386998
527.250320,0.381025
527.579420,0.391107
527.908480,0.383555
528.237500,0.390268
528.566480,0.389222
528.895420,0.393790
529.224320,0.390292
529.553180,0.388434
529.882000,0.400000
530.210780,0.395270
530.539520,0.396453
530.868220,0.397319
531.196880,0.397038
531.525500,0.401937
531.854080,0.391182
532.182620,0.400280
532.511120,0.402784
532.839580,0.415154
533.168000,0.403373
533.496380,0.409132
533.824720,0.407806
534.153020,0.398573
534.481280,0.411894
534.809500,0.419085
535.137680,0.424479
535.465820,0.409364
535.793920,0.418782
536.121980,0.418800
536.450000,0.421564
536.777980,0.423963
537.105920,0.418016
537.433820,0.420622
537.761680,0.428571
538.089500,0.427762
538.417280,0.429765
538.745020,0.432647
539.072720,0.427177
539.400380,0.431624
539.728000,0.431358
540.055580,0.433708
540.383120,0.433358
540.710620,0.432292
541.038080,0.443010
541.365500,0.440074
541.692880,0.437500
542.020220,0.431810
542.347520,0.440775
542.674780,0.448836
543.002000,0.441218
543.329180,0.451070
543.656320,0.456399
543.983420,0.447179
544.310480,0.453959
544.637500,0.454111
544.964480,0.451211
545.291420,0.453971
545.618320,0.457503
545.945180,0.450231
546.272000,0.449541
546.598780,0.458866
546.925520,0.460600
547.252220,0.463189
547.578880,0.462691
547.905500,0.463072
548.232080,0.462313
548.558620,0.468272
548.885120,0.468106
549.211580,0.461588
549.538000,0.466602
549.864380,0.472669
550.190720,0.474330
550.517020,0.475880
550.843280,0.471987
551.169500,0.462468
551.495680,0.473062
551.821820,0.482364
552.147920,0.475927
552.473980,0.470530
552.800000,0.476455
553.125980,0.486248
553.451920,0.485070
553.777820,0.488341
554.103680,0.481968
554.429500,0.486441
554.755280,0.480641
555.081020,0.481618
555.406720,0.480190
555.732380,0.484581
556.058000,0.480991
556.383580,0.484765
556.709120,0.494487
557.034620,0.489149
557.360080,0.488428
557.685500,0.492739
558.010880,0.494627
558.336220,0.490685
558.661520,0.495569
558.986780,0.498228
559.312000,0.498575
559.637180,0.488689
559.962320,0.491634
560.287420,0.496474
560.612480,0.497668
560.937500,0.504405
561.262480,0.500367
561.587420,0.493653
561.912320,0.499263
562.237180,0.498150
562.562000,0.506173
562.886780,0.510962
563.211520,0.501118
563.536220,0.507236
563.860880,0.513014
564.185500,0.514447
564.510080,0.517306
564.834620,0.502791
565.159120,0.497744
565.483580,0.512353
565.808000,0.507378
566.132380,0.505035
566.456720,0.514361
566.781020,0.505251
567.105280,0.508129
567.429500,0.516692
567.753680,0.520905
568.077820,0.519907
568.401920,0.520244
568.725980,0.520683
569.050000,0.521673
569.373980,0.506281
569.697920,0.525218
570.021820,0.519850
570.345680,0.519326
570.669500,0.516597
570.993280,0.520487
571.317020,0.517355
571.640720,0.523527
571.964380,0.522643
572.288000,0.525964
572.611580,0.533882
572.935120,0.526375
573.258620,0.526926
573.582080,0.517884
573.905500,0.529412
574.228880,0.536006
574.552220,0.528399
574.875520,0.535369
575.198780,0.524756
575.522000,0.532991
575.845180,0.520415
576.168320,0.532160
576.491420,0.537791
576.814480,0.531284
577.137500,0.534632
577.460480,0.531352
577.783420,0.536620
578.106320,0.541667
578.429180,0.536585
578.752000,0.537687
579.074780,0.536413
579.397520,0.542608
579.720220,0.535714
580.042880,0.542782
580.365500,0.536400
580.688080,0.543758
581.010620,0.544718
581.333120,0.542752
581.655580,0.541126
581.978000,0.548720
582.300380,0.541383
582.622720,0.544496
582.945020,0.541938
583.267280,0.549007
583.589500,0.538042
583.911680,0.541759
584.233820,0.539817
584.555920,0.550268
584.877980,0.550565
585.200000,0.533763
585.521980,0.546494
585.843920,0.551251
586.165820,0.553016
586.487680,0.545591
586.809500,0.558956
587.131280,0.545992
587.453020,0.552976
587.774720,0.549675
588.096380,0.547550
588.418000,0.552531
588.739580,0.547284
589.061120,0.553479
589.382620,0.546132
589.704080,0.553717
590.025500,0.559361
590.346880,0.548904
590.668220,0.548306
590.989520,0.549917
591.310780,0.548743
591.632000,0.556011
591.953180,0.554387
592.274320,0.550915
592.595420,0.549030
592.916480,0.555284
593.237500,0.562652
593.558480,0.560667
593.879420,0.552738
594.200320,0.559068
594.521180,0.556707
594.842000,0.560183
595.162780,0.556891
595.483520,0.559426
595.804220,0.559882
596.124880,0.554756
596.445500,0.549908
596.766080,0.565475
597.086620,0.554140
597.407120,0.555292
597.727580,0.557677
598.048000,0.559640
598.368380,0.560231
598.688720,0.554915
599.009020,0.560244
599.329280,0.557477
599.649500,0.559165
599.969680,0.564103
600.289820,0.557692
600.609920,0.555704
600.929980,0.563870
601.250000,0.556486
601.569980,0.551175
601.889920,0.550120
602.209820,0.550595
602.529680,0.565779
602.849500,0.561375
603.169280,0.562414
603.489020,0.558262
603.808720,0.553758
604.128380,0.557395
604.448000,0.556077
604.767580,0.563687
605.087120,0.556510
605.406620,0.555556
605.726080,0.560878
606.045500,0.553636
606.364880,0.555430
606.684220,0.556254
607.003520,0.551032
607.322780,0.555998
607.642000,0.549971
607.961180,0.553917
608.280320,0.554814
608.599420,0.557358
608.918480,0.556891
609.237500,0.557512
609.556480,0.557265
609.875420,0.555227
610.194320,0.549749
610.513180,0.550755
610.832000,0.559261
611.150780,0.554521
611.469520,0.554449
611.788220,0.555623
612.106880,0.545235
612.425500,0.555116
612.744080,0.556787
613.062620,0.559021
613.381120,0.552712
613.699580,0.555181
614.018000,0.556204
614.336380,0.554904
614.654720,0.548217
614.973020,0.554150
615.291280,0.559963
615.609500,0.563233
615.927680,0.548826
616.245820,0.552257
616.563920,0.554554
616.881980,0.555348
617.200000,0.554277
617.517980,0.555694
617.835920,0.549550
618.153820,0.539322
618.471680,0.549147
618.789500,0.549087
619.107280,0.549609
619.425020,0.541706
619.742720,0.544256
620.060380,0.548417
620.378000,0.545312
620.695580,0.552043
621.013120,0.547087
621.330620,0.548478
621.648080,0.541956
621.965500,0.543915
622.282880,0.549811
622.600220,0.539166
622.917520,0.544739
623.234780,0.551591
623.552000,0.549013
623.869180,0.538607
624.186320,0.542502
624.503420,0.548589
624.820480,0.544769
625.137500,0.550363
625.454480,0.545796
625.771420,0.542875
626.088320,0.543821
626.405180,0.540759
626.722000,0.540151
627.038780,0.540414
627.355520,0.541250
627.672220,0.545879
627.988880,0.538725
628.305500,0.544718
628.622080,0.541512
628.938620,0.537920
629.255120,0.543248
629.571580,0.537542
629.888000,0.537588
630.204380,0.535133
630.520720,0.536868
630.837020,0.538082
631.153280,0.536871
631.469500,0.536992
631.785680,0.538276
632.101820,0.534982
632.417920,0.526677
632.733980,0.534214
633.050000,0.541844
633.365980,0.529935
633.681920,0.533413
633.997820,0.535266
634.313680,0.533766
634.629500,0.532291
634.945280,0.531378
635.261020,0.530966
635.576720,0.539636
635.892380,0.532385
636.208000,0.533992
636.523580,0.536393
636.839120,0.531558
637.154620,0.528406
637.470080,0.526829
637.785500,0.530774
638.100880,0.532580
638.416220,0.534944
638.731520,0.524355
639.046780,0.529857
639.362000,0.526376
639.677180,0.521702
639.992320,0.526642
640.307420,0.521495
640.622480,0.521983
640.937500,0.525659
641.252480,0.526948
641.567420,0.524297
641.882320,0.517539
642.197180,0.527232
642.512000,0.521690
642.826780,0.522330
643.141520,0.521534
643.456220,0.522690
643.770880,0.522388
644.085500,0.518167
644.400080,0.525562
644.714620,0.525084
645.029120,0.516227
645.343580,0.517279
645.658000,0.526506
645.972380,0.520965
646.286720,0.514037
646.601020,0.524218
646.915280,0.519879
647.229500,0.514560
647.543680,0.505385
647.857820,0.507294
648.171920,0.506782
648.485980,0.507810
648.800000,0.512262
649.113980,0.511364
649.427920,0.514563
649.741820,0.503435
650.055680,0.509874
650.369500,0.510930
650.683280,0.503607
650.997020,0.502200
651.310720,0.503853
651.624380,0.496429
651.938000,0.506371
652.251580,0.504592
652.565120,0.497764
652.878620,0.506475
653.192080,0.501124
653.505500,0.498738
653.818880,0.506397
654.132220,0.496725
654.445520,0.494044
654.758780,0.492351
655.072000,0.496562
655.385180,0.493010
655.698320,0.489568
656.011420,0.491831
656.324480,0.495774
656.637500,0.499421
656.950480,0.490311
657.263420,0.496601
657.576320,0.496294
657.889180,0.494249
658.202000,0.495471
658.514780,0.489431
658.827520,0.488896
659.140220,0.484567
659.452880,0.491392
659.765500,0.487658
660.078080,0.479687
660.390620,0.481210
660.703120,0.488237
661.015580,0.485890
661.328000,0.488665
661.640380,0.488661
661.952720,0.485207
662.265020,0.479521
662.577280,0.478372
662.889500,0.468307
663.201680,0.478622
663.513820,0.479575
663.825920,0.474544
664.137980,0.480284
664.450000,0.468350
664.761980,0.464157
665.073920,0.467056
665.385820,0.469895
665.697680,0.469091
666.009500,0.476887
666.321280,0.472830
666.633020,0.468750
666.944720,0.471183
667.256380,0.472073
667.568000,0.462636
667.879580,0.460204
668.191120,0.463255
668.502620,0.465936
668.814080,0.468070
669.125500,0.462881
669.436880,0.463693
669.748220,0.463136
670.059520,0.461134
670.370780,0.456855
670.682000,0.463363
670.993180,0.460888
671.304320,0.456048
671.615420,0.455256
671.926480,0.451739
672.237500,0.455163
672.548480,0.444642
672.859420,0.448177
673.170320,0.457381
673.481180,0.460898
673.792000,0.447890
674.102780,0.448474
674.413520,0.447685
674.724220,0.446824
675.034880,0.447378
675.345500,0.448578
675.656080,0.437387
675.966620,0.447072
676.277120,0.445990
676.587580,0.442931
676.898000,0.432624
677.208380,0.441774
677.518720,0.435449
677.829020,0.446046
678.139280,0.438473
678.449500,0.440030
678.759680,0.433870
679.069820,0.436803
679.379920,0.436062
679.689980,0.435945
680.000000,0.432150
680.309980,0.435412
680.619920,0.426354
680.929820,0.430758
681.239680,0.431684
681.549500,0.430370
681.859280,0.426811
682.169020,0.428944
682.478720,0.436051
682.788380,0.424142
683.098000,0.429693
683.407580,0.431895
683.717120,0.423799
684.026620,0.427711
684.336080,0.421372
684.645500,0.416012
684.954880,0.426143
685.264220,0.419026
685.573520,0.418348
685.882780,0.424242
686.192000,0.413845
686.501180,0.412032
686.810320,0.418140
687.119420,0.423413
687.428480,0.410558
687.737500,0.417114
688.046480,0.413727
688.355420,0.410034
688.664320,0.412777
688.973180,0.413476
689.282000,0.413966
689.590780,0.411426
689.899520,0.406760
690.208220,0.418196
690.516880,0.404735
690.825500,0.400755
691.134080,0.404708
691.442620,0.403201
691.751120,0.406143
692.059580,0.405044
692.368000,0.402499
692.676380,0.397328
692.984720,0.395802
693.293020,0.399696
693.601280,0.396795
693.909500,0.393871
694.217680,0.396801
694.525820,0.392612
694.833920,0.389928
695.141980,0.396066
695.450000,0.388168
695.757980,0.396486
696.065920,0.393786
696.373820,0.392995
696.681680,0.384733
696.989500,0.390969
697.297280,0.385842
697.605020,0.391667
697.912720,0.381630
698.220380,0.386856
698.528000,0.389636
698.835580,0.382062
699.143120,0.380748
699.450620,0.389021
699.758080,0.373333
700.065500,0.391460
700.372880,0.390000
700.680220,0.372158
700.987520,0.385714
701.294780,0.381590
701.602000,0.383914
701.909180,0.379571
702.216320,0.373485
702.523420,0.378453
702.830480,0.379010
703.137500,0.372564
703.444480,0.384221
703.751420,0.376726
704.058320,0.372774
704.365180,0.368297
704.672000,0.369901
704.978780,0.368318
705.285520,0.364241
705.592220,0.364706
705.898880,0.364854
706.205500,0.361894
706.512080,0.361769
706.818620,0.357585
707.125120,0.366154
707.431580,0.359515
707.738000,0.360547
708.044380,0.355461
708.350720,0.360336
708.657020,0.358343
708.963280,0.362189
709.269500,0.359687
709.575680,0.355599
709.881820,0.358884
710.187920,0.361089
710.493980,0.350659
710.800000,0.352403
711.105980,0.347515
711.411920,0.351202
711.717820,0.347758
712.023680,0.356393
712.329500,0.354101
712.635280,0.351938
712.941020,0.349053
713.246720,0.352964
713.552380,0.350078
713.858000,0.344107
714.163580,0.341358
714.469120,0.345838
714.774620,0.342677
715.080080,0.343541
715.385500,0.347322
715.690880,0.338067
715.996220,0.342314
716.301520,0.344269
716.606780,0.343160
716.912000,0.342488
717.217180,0.339186
717.522320,0.335586
717.827420,0.341741
718.132480,0.331995
718.437500,0.330208
718.742480,0.335887
719.047420,0.333738
719.352320,0.330843
719.657180,0.333606
719.962000,0.327543
720.266780,0.326548
720.571520,0.330986
720.876220,0.327332
721.180880,0.325669
721.485500,0.321772
721.790080,0.328238
722.094620,0.326758
722.399120,0.326583
722.703580,0.324904
723.008000,0.327296
723.312380,0.325441
723.616720,0.318742
723.921020,0.317453
724.225280,0.319808
724.529500,0.315236
724.833680,0.328292
725.137820,0.321145
725.441920,0.317878
725.745980,0.309172
726.050000,0.315291
726.353980,0.305543
726.657920,0.316239
726.961820,0.315525
727.265680,0.313454
727.569500,0.309872
727.873280,0.310393
728.177020,0.308153
728.480720,0.307870
728.784380,0.314232
729.088000,0.299576
729.391580,0.310279
729.695120,0.307102
729.998620,0.304015
730.302080,0.299375
730.605500,0.303251
730.908880,0.299853
731.212220,0.297747
731.515520,0.301804
731.818780,0.297573
732.122000,0.296752
732.425180,0.296205
732.728320,0.295488
733.031420,0.295238
733.334480,0.301020
733.637500,0.294355
733.940480,0.298874
734.243420,0.295107
734.546320,0.290975
734.849180,0.288223
735.152000,0.292531
735.454780,0.285640
735.757520,0.287671
736.060220,0.285413
736.362880,0.293067
736.665500,0.289295
736.968080,0.282644
737.270620,0.290691
737.573120,0.285480
737.875580,0.280374
738.178000,0.286336
738.480380,0.279459
738.782720,0.277535
739.085020,0.276432
739.387280,0.282151
739.689500,0.278596
739.991680,0.284672
740.293820,0.280818
740.595920,0.275459
740.897980,0.276115
741.200000,0.275939
741.501980,0.279083
741.803920,0.278153
742.105820,0.265651
742.407680,0.272568
742.709500,0.273864
743.011280,0.265533
743.313020,0.270145
743.614720,0.268137
743.916380,0.266279
744.218000,0.276253
744.519580,0.270531
744.821120,0.271856
745.122620,0.265428
745.424080,0.260216
745.725500,0.264333
746.026880,0.262931
746.328220,0.266954
746.629520,0.261288
746.930780,0.258578
747.232000,0.258124
747.533180,0.260525
747.834320,0.268411
748.135420,0.261032
748.436480,0.262009
748.737500,0.261272
749.038480,0.259621
749.339420,0.258867
749.640320,0.264613
749.941180,0.262336
750.242000,0.260678
750.542780,0.256203
750.843520,0.255605
751.144220,0.258333
751.444880,0.253012
751.745500,0.242857
752.046080,0.255933
752.346620,0.251933
752.647120,0.252123
752.947580,0.247089
753.248000,0.258543
753.548380,0.254392
753.848720,0.251127
754.149020,0.237911
754.449280,0.256074
754.749500,0.243530
755.049680,0.242667
755.349820,0.248833
755.649920,0.251818
755.949980,0.247512
756.250000,0.253123
756.549980,0.238284
756.849920,0.244731
757.149820,0.239521
757.449680,0.242904
757.749500,0.243354
758.049280,0.245051
758.349020,0.242003
758.648720,0.245687
758.948380,0.235052
759.248000,0.235849
759.547580,0.241426
759.847120,0.238456
760.146620,0.235453
760.446080,0.233871
760.745500,0.233566
761.044880,0.240057
761.344220,0.233785
761.643520,0.239407
761.942780,0.237229
762.242000,0.232673
762.541180,0.223944
762.840320,0.231039
763.139420,0.229255
763.438480,0.228982
763.737500,0.228119
764.036480,0.225716
764.335420,0.234298
764.634320,0.227304
764.933180,0.232877
765.232000,0.227620
765.530780,0.226667
765.829520,0.232168
766.128220,0.226862
766.426880,0.225302
766.725500,0.226182
767.024080,0.225652
767.322620,0.224066
767.621120,0.219512
767.919580,0.222526
768.218000,0.222298
768.516380,0.218391
768.814720,0.213992
769.113020,0.228808
769.411280,0.221685
769.709500,0.221922
770.007680,0.217451
770.305820,0.219743
770.603920,0.214286
770.901980,0.220628
771.200000,0.213315
771.497980,0.207775
771.795920,0.213378
772.093820,0.213235
772.391680,0.216216
772.689500,0.217568
772.987280,0.209428
773.285020,0.214627
773.582720,0.206757
773.880380,0.209334
774.178000,0.209271
774.475580,0.215003
774.773120,0.206827
775.070620,0.211629
775.368080,0.215097
775.665500,0.207522
775.962880,0.204803
776.260220,0.212651
776.557520,0.208806
776.854780,0.207573
777.152000,0.199602
777.449180,0.202967
777.746320,0.198925
778.043420,0.200546
778.340480,0.198917
778.637500,0.208249
778.934480,0.201748
779.231420,0.199457
779.528320,0.202405
779.825180,0.200922
780.122000,0.201195
780.418780,0.205198
780.715520,0.203890
781.012220,0.208219
781.308880,0.199459
781.605500,0.195890
781.902080,0.203970
782.198620,0.200273
782.495120,0.197531
782.791580,0.204952
783.088000,0.195997
783.384380,0.189821
783.680720,0.192202
783.977020,0.189952
784.273280,0.200000
784.569500,0.194270
784.865680,0.200974
785.161820,0.195833
785.457920,0.191268
785.753980,0.188416
786.050000,0.194061
786.345980,0.195833
786.641920,0.196391
786.937820,0.189459
787.233680,0.183020
787.529500,0.185160
787.825280,0.194051
788.121020,0.186969
788.416720,0.189132
788.712380,0.189704
789.008000,0.184844
789.303580,0.181625
789.599120,0.186182
789.894620,0.190614
790.190080,0.184917
790.485500,0.185745
790.780880,0.186380
791.076220,0.182540
791.371520,0.188816
791.666780,0.189091
791.962000,0.183688
792.257180,0.185944
792.552320,0.187092
792.847420,0.179767
793.142480,0.186081
793.437500,0.183068
793.732480,0.174104
794.027420,0.183234
794.322320,0.175988
794.617180,0.182021
794.912000,0.176820
795.206780,0.174497
795.501520,0.187072
795.796220,0.173333
796.090880,0.174077
796.385500,0.176912
796.680080,0.169035
796.974620,0.191617
797.269120,0.168055
797.563580,0.182443
797.858000,0.175399
798.152380,0.180201
798.446720,0.176154
798.741020,0.176425
799.035280,0.174689
799.329500,0.177059
799.623680,0.167442
