399.985280,0.148649
400.329500,0.243243
400.673680,0.189873
401.017820,0.250000
401.361920,0.151515
401.705980,0.207317
402.050000,0.155844
402.393980,0.223529
402.737920,0.269663
403.081820,0.206186
403.425680,0.220930
403.769500,0.187500
404.113280,0.218391
404.457020,0.292135
404.800720,0.217391
405.144380,0.252525
405.488000,0.204301
405.831580,0.216495
406.175120,0.234043
406.518620,0.270000
406.862080,0.278351
407.205500,0.187500
407.548880,0.214286
407.892220,0.235294
408.235520,0.255319
408.578780,0.238095
408.922000,0.211538
409.265180,0.252525
409.608320,0.212121
409.951420,0.319588
410.294480,0.313725
410.637500,0.206522
410.980480,0.284314
411.323420,0.224490
411.666320,0.284404
412.009180,0.290909
412.352000,0.217822
412.694780,0.293578
413.037520,0.201835
413.380220,0.261261
413.722880,0.285714
414.065500,0.279279
414.408080,0.230088
414.750620,0.247788
415.093120,0.190083
415.435580,0.226891
415.778000,0.250000
416.120380,0.235294
416.462720,0.253968
416.805020,0.263158
417.147280,0.253731
417.489500,0.235714
417.831680,0.246575
418.173820,0.234043
418.515920,0.265734
418.857980,0.246835
419.200000,0.256410
419.541980,0.284024
419.883920,0.230337
420.225820,0.248555
420.567680,0.251397
420.909500,0.229508
421.251280,0.276042
421.593020,0.255102
421.934720,0.247475
422.276380,0.256410
422.618000,0.279412
422.959580,0.284314
423.301120,0.264840
423.642620,0.221739
423.984080,0.260465
424.325500,0.233184
424.666880,0.254310
425.008220,0.226891
425.349520,0.262712
425.690780,0.238462
426.032000,0.231373
426.373180,0.269710
426.714320,0.250000
427.055420,0.231660
427.396480,0.262172
427.737500,0.260870
428.078480,0.264822
428.419420,0.277108
428.760320,0.260536
429.101180,0.283465
429.442000,0.275862
429.782780,0.234615
430.123520,0.254902
430.464220,0.254613
430.804880,0.283525
431.145500,0.254545
431.486080,0.269663
431.826620,0.279070
432.167120,0.268382
432.507580,0.278986
432.848000,0.276978
433.188380,0.277978
433.528720,0.264151
433.869020,0.289286
434.209280,0.266667
434.549500,0.292683
434.889680,0.282828
435.229820,0.252560
435.569920,0.262976
435.909980,0.265372
436.250000,0.284746
436.589980,0.266254
436.929920,0.282540
437.269820,0.266458
437.609680,0.286982
437.949500,0.280120
438.289280,0.263456
438.629020,0.290698
438.968720,0.264535
439.308380,0.268293
439.648000,0.284932
439.987580,0.261905
440.327120,0.288000
440.666620,0.293506
441.006080,0.291560
441.345500,0.289926
441.684880,0.289474
442.024220,0.297767
442.363520,0.290476
442.702780,0.284091
443.042000,0.288546
443.381180,0.293103
443.720320,0.311015
444.059420,0.285714
444.398480,0.297071
444.737500,0.293033
445.076480,0.281746
445.415420,0.301397
445.754320,0.293139
446.093180,0.308257
446.432000,0.312030
446.770780,0.299810
447.109520,0.301471
447.448220,0.295170
447.786880,0.295170
448.125500,0.315517
448.464080,0.303571
448.802620,0.306738
449.141120,0.299308
449.479580,0.311189
449.818000,0.333907
450.156380,0.312709
450.494720,0.322314
450.833020,0.321678
451.171280,0.308219
451.509500,0.343206
451.847680,0.320405
452.185820,0.309811
452.523920,0.331615
452.861980,0.322091
453.200000,0.295681
453.537980,0.319328
453.875920,0.322689
454.213820,0.318493
454.551680,0.311258
454.889500,0.305228
455.227280,0.306050
455.565020,0.326633
455.902720,0.321131
456.240380,0.312812
456.578000,0.317073
456.915580,0.338515
457.253120,0.328947
457.590620,0.334975
457.928080,0.350168
458.265500,0.341216
458.602880,0.342532
458.940220,0.329949
459.277520,0.348800
459.614780,0.355155
459.952000,0.326087
460.289180,0.360759
460.626320,0.351181
460.963420,0.345719
461.300480,0.344037
461.637500,0.342065
461.974480,0.351682
462.311420,0.348733
462.648320,0.352855
462.985180,0.350072
463.322000,0.363095
463.658780,0.363260
463.995520,0.348006
464.332220,0.349030
464.668880,0.358871
465.005500,0.359249
465.342080,0.364917
465.678620,0.359164
466.015120,0.364812
466.351580,0.370417
466.688000,0.371498
467.024380,0.368165
467.360720,0.357955
467.697020,0.361048
468.033280,0.374444
468.369500,0.368653
468.705680,0.382187
469.041820,0.377083
469.377920,0.380694
469.713980,0.372812
470.050000,0.374879
470.385980,0.375734
470.721920,0.380020
471.057820,0.374269
471.393680,0.374181
471.729500,0.382762
472.065280,0.381038
472.401020,0.398936
472.736720,0.382199
473.072380,0.390485
473.408000,0.369887
473.743580,0.383218
474.079120,0.385874
474.414620,0.387617
474.750080,0.381611
475.085500,0.386513
475.420880,0.382182
475.756220,0.394113
476.091520,0.407502
476.426780,0.388350
476.762000,0.388576
477.097180,0.391200
477.432320,0.394992
477.767420,0.391340
478.102480,0.384252
478.437500,0.397373
478.772480,0.390071
479.107420,0.405207
479.442320,0.402078
479.777180,0.400955
480.112000,0.394453
480.446780,0.401403
480.781520,0.401771
481.116220,0.413905
481.450880,0.401249
481.785500,0.409810
482.120080,0.413009
482.454620,0.407925
482.789120,0.402070
483.123580,0.404206
483.458000,0.402690
483.792380,0.412939
484.126720,0.414672
484.461020,0.415301
484.795280,0.419429
485.129500,0.417771
485.463680,0.403876
485.797820,0.415241
486.131920,0.413925
486.465980,0.420077
486.800000,0.427481
487.133980,0.406344
487.467920,0.429227
487.801820,0.432494
488.135680,0.432904
488.469500,0.428896
488.803280,0.435364
489.137020,0.412454
489.470720,0.430267
489.804380,0.435041
490.138000,0.432493
490.471580,0.439204
490.805120,0.421730
491.138620,0.429282
491.472080,0.440989
491.805500,0.432357
492.138880,0.442669
492.472220,0.437370
492.805520,0.442737
493.138780,0.437629
493.472000,0.426756
493.805180,0.448840
494.138320,0.442962
494.471420,0.443359
494.804480,0.445019
495.137500,0.440950
495.470480,0.448056
495.803420,0.437657
496.136320,0.447368
496.469180,0.453039
496.802000,0.447433
497.134780,0.448757
497.467520,0.455046
497.800220,0.450472
498.132880,0.459142
498.465500,0.445539
498.798080,0.460616
499.130620,0.446378
499.463120,0.453678
499.795580,0.452145
500.128000,0.455586
500.460380,0.455328
500.792720,0.452810
501.125020,0.452969
501.457280,0.455875
501.789500,0.456095
502.121680,0.469673
502.453820,0.452320
502.785920,0.461731
503.117980,0.461237
503.450000,0.465093
503.781980,0.459392
504.113920,0.449502
504.445820,0.455032
504.777680,0.455059
505.109500,0.466827
505.441280,0.470841
505.773020,0.455143
506.104720,0.457372
506.436380,0.469948
506.768000,0.464920
507.099580,0.462700
507.431120,0.466511
507.762620,0.468515
508.094080,0.458067
508.425500,0.473856
508.756880,0.464563
509.088220,0.472861
509.419520,0.465549
509.750780,0.469541
510.082000,0.473881
510.413180,0.464302
510.744320,0.468477
511.075420,0.463795
511.406480,0.477198
511.737500,0.465741
512.068480,0.477914
512.399420,0.471831
512.730320,0.470670
513.061180,0.480495
513.392000,0.476574
513.722780,0.475024
514.053520,0.480594
514.384220,0.471931
514.714880,0.467209
515.045500,0.466954
515.376080,0.483777
515.706620,0.473453
516.037120,0.479412
516.367580,0.482504
516.698000,0.483333
517.028380,0.476167
517.358720,0.481975
517.689020,0.476756
518.019280,0.484195
518.349500,0.480487
518.679680,0.486118
519.009820,0.475709
519.339920,0.480962
519.669980,0.475138
520.000000,0.483953
520.329980,0.486781
520.659920,0.470348
520.989820,0.476780
521.319680,0.481481
521.649500,0.480720
521.979280,0.489040
522.309020,0.475622
522.638720,0.469022
522.968380,0.483454
523.298000,0.483820
523.627580,0.473875
523.957120,0.477403
524.286620,0.485670
524.616080,0.491727
524.945500,0.473385
525.274880,0.483325
525.604220,0.478261
525.933520,0.485325
526.262780,0.472377
526.592000,0.477930
526.921180,0.483494
527.250320,0.489092
527.579420,0.477009
527.908480,0.480059
528.237500,0.488083
528.566480,0.489022
528.895420,0.486447
529.224320,0.492323
529.553180,0.482892
529.882000,0.490024
530.210780,0.482625
530.539520,0.480825
530.868220,0.482528
531.196880,0.481605
531.525500,0.496852
531.854080,0.482645
532.182620,0.483886
532.511120,0.487239
532.839580,0.499093
533.168000,0.484047
533.496380,0.494064
533.824720,0.489009
534.153020,0.493090
534.481280,0.491630
534.809500,0.494283
535.137680,0.487413
535.465820,0.481529
535.793920,0.489425
536.121980,0.495174
536.450000,0.494715
536.777980,0.496020
537.105920,0.493151
537.433820,0.481997
537.761680,0.486122
538.089500,0.494132
538.417280,0.494230
538.745020,0.494453
539.072720,0.483405
539.400380,0.488345
539.728000,0.492161
540.055580,0.487266
540.383120,0.489203
540.710620,0.484747
541.038080,0.488012
541.365500,0.487500
541.692880,0.496366
542.020220,0.489025
542.347520,0.484925
542.674780,0.488003
543.002000,0.486704
543.329180,0.490705
543.656320,0.489803
543.983420,0.487179
544.310480,0.484200
544.637500,0.484817
544.964480,0.487214
545.291420,0.488867
545.618320,0.485392
545.945180,0.486157
546.272000,0.480013
546.598780,0.487053
546.925520,0.487966
547.252220,0.483988
547.578880,0.486478
547.905500,0.480065
548.232080,0.478233
548.558620,0.489749
548.885120,0.477592
549.211580,0.478946
549.538000,0.488651
549.864380,0.485531
550.190720,0.480788
550.517020,0.482725
550.843280,0.490554
551.169500,0.466921
551.495680,0.490473
551.821820,0.478445
552.147920,0.480807
552.473980,0.483372
552.800000,0.476455
553.125980,0.480026
553.451920,0.485733
553.777820,0.479680
554.103680,0.482305
554.429500,0.476733
554.755280,0.475968
555.081020,0.473596
555.406720,0.481206
555.732380,0.476788
556.058000,0.477936
556.383580,0.478603
556.709120,0.478291
557.034620,0.475715
557.360080,0.473575
557.685500,0.477524
558.010880,0.473484
558.336220,0.471002
558.661520,0.481744
558.986780,0.474486
559.312000,0.471866
559.637180,0.468941
559.962320,0.465646
560.287420,0.472496
560.612480,0.468245
560.937500,0.473201
561.262480,0.469575
561.587420,0.466812
561.912320,0.476419
562.237180,0.467432
562.562000,0.473999
562.886780,0.471200
563.211520,0.463115
563.536220,0.460853
563.860880,0.471143
564.185500,0.463790
564.510080,0.466892
564.834620,0.453666
565.159120,0.461278
565.483580,0.464842
565.808000,0.460083
566.132380,0.459903
566.456720,0.461451
566.781020,0.463616
567.105280,0.454442
567.429500,0.460926
567.753680,0.455313
568.077820,0.459219
568.401920,0.462185
568.725980,0.453131
569.050000,0.454753
569.373980,0.449562
569.697920,0.450133
570.021820,0.456554
570.345680,0.453119
570.669500,0.455551
570.993280,0.449982
571.317020,0.451224
571.640720,0.449796
571.964380,0.451002
572.288000,0.452151
572.611580,0.458255
572.935120,0.443322
573.258620,0.444278
573.582080,0.446721
573.905500,0.444899
574.228880,0.453972
574.552220,0.449982
574.875520,0.449739
575.198780,0.450307
575.522000,0.449047
575.845180,0.445559
576.168320,0.439813
576.491420,0.446584
576.814480,0.444846
577.137500,0.443001
577.460480,0.444726
577.783420,0.444087
578.106320,0.445869
578.429180,0.439024
578.752000,0.442515
579.074780,0.445044
579.397520,0.440284
579.720220,0.436293
580.042880,0.439049
580.365500,0.436466
580.688080,0.442334
581.010620,0.438745
581.333120,0.441216
581.655580,0.432900
581.978000,0.441969
582.300380,0.425836
582.622720,0.434740
582.945020,0.431730
583.267280,0.432107
583.589500,0.430498
583.911680,0.426485
584.233820,0.423355
584.555920,0.437756
584.877980,0.430905
585.200000,0.421424
585.521980,0.437442
585.843920,0.420073
586.165820,0.425960
586.487680,0.425218
586.809500,0.423942
587.131280,0.422952
587.453020,0.433036
587.774720,0.423418
588.096380,0.425904
588.418000,0.423764
588.739580,0.424547
589.061120,0.424957
589.382620,0.421490
589.704080,0.418233
590.025500,0.424943
590.346880,0.420461
590.668220,0.424531
590.989520,0.416528
591.310780,0.417840
591.632000,0.422131
591.953180,0.416828
592.274320,0.415779
592.595420,0.410022
592.916480,0.418093
593.237500,0.415252
593.558480,0.414044
593.879420,0.415161
594.200320,0.414412
594.521180,0.408765
594.842000,0.417786
595.162780,0.409989
595.483520,0.414517
595.804220,0.412460
596.124880,0.413003
596.445500,0.406864
596.766080,0.413283
597.086620,0.405255
597.407120,0.408636
597.727580,0.409440
598.048000,0.403597
598.368380,0.401631
598.688720,0.400786
599.009020,0.399947
599.329280,0.401277
599.649500,0.391970
599.969680,0.396635
600.289820,0.404113
600.609920,0.397809
600.929980,0.391502
601.250000,0.391892
601.569980,0.391574
601.889920,0.386528
602.209820,0.386905
602.529680,0.396869
602.849500,0.390071
603.169280,0.389915
603.489020,0.396900
603.808720,0.387548
604.128380,0.386038
604.448000,0.382873
604.767580,0.385196
605.087120,0.379501
605.406620,0.388749
605.726080,0.384089
606.045500,0.375313
606.364880,0.380777
606.684220,0.384352
607.003520,0.377580
607.322780,0.385446
607.642000,0.382252
607.961180,0.381613
608.280320,0.376740
608.599420,0.373407
608.918480,0.374194
609.237500,0.370599
609.556480,0.375259
609.875420,0.364146
610.194320,0.364629
610.513180,0.370820
610.832000,0.368076
611.150780,0.366176
611.469520,0.375566
611.788220,0.364571
612.106880,0.363993
612.425500,0.361449
612.744080,0.371499
613.062620,0.360856
613.381120,0.359232
613.699580,0.362354
614.018000,0.360565
614.336380,0.361814
614.654720,0.360310
614.973020,0.357297
615.291280,0.356058
615.609500,0.363233
615.927680,0.352905
616.245820,0.357452
616.563920,0.350637
616.881980,0.350483
617.200000,0.349300
617.517980,0.349720
617.835920,0.349798
618.153820,0.348461
618.471680,0.342636
618.789500,0.348962
619.107280,0.348044
619.425020,0.346654
619.742720,0.348085
620.060380,0.346913
620.378000,0.339836
620.695580,0.336526
621.013120,0.339843
621.330620,0.340446
621.648080,0.335647
621.965500,0.340652
622.282880,0.336696
622.600220,0.339861
622.917520,0.333018
623.234780,0.339762
623.552000,0.339274
623.869180,0.331232
624.186320,0.332697
624.503420,0.332602
624.820480,0.333019
625.137500,0.331228
625.454480,0.333229
625.771420,0.329760
626.088320,0.331967
626.405180,0.325451
626.722000,0.329046
627.038780,0.323935
627.355520,0.325313
627.672220,0.325972
627.988880,0.319440
628.305500,0.323777
628.622080,0.321871
628.938620,0.318654
629.255120,0.325762
629.571580,0.317193
629.888000,0.323105
630.204380,0.316355
630.520720,0.313528
630.837020,0.308973
631.153280,0.315348
631.469500,0.318072
631.785680,0.314346
632.101820,0.315742
632.417920,0.309985
632.733980,0.312725
633.050000,0.319891
633.365980,0.309129
633.681920,0.306086
633.997820,0.314106
634.313680,0.306399
634.629500,0.303155
634.945280,0.300880
635.261020,0.310831
635.576720,0.305931
635.892380,0.301481
636.208000,0.304765
636.523580,0.301958
636.839120,0.303127
637.154620,0.298551
637.470080,0.300430
637.785500,0.297773
638.100880,0.298871
638.416220,0.303710
638.731520,0.297421
639.046780,0.296242
639.362000,0.299312
639.677180,0.296402
639.992320,0.296589
640.307420,0.294746
640.622480,0.291235
640.937500,0.290985
641.252480,0.295448
641.567420,0.288718
641.882320,0.289532
642.197180,0.296182
642.512000,0.291632
642.826780,0.288766
643.141520,0.290636
643.456220,0.286940
643.770880,0.287728
644.085500,0.286752
644.400080,0.281461
644.714620,0.287347
645.029120,0.284653
645.343580,0.282776
645.658000,0.278102
645.972380,0.278706
646.286720,0.278823
646.601020,0.277885
646.915280,0.278859
647.229500,0.279121
647.543680,0.276443
647.857820,0.278007
648.171920,0.268041
648.485980,0.278432
648.800000,0.271149
649.113980,0.271064
649.427920,0.277393
649.741820,0.266832
650.055680,0.270708
650.369500,0.272422
650.683280,0.269145
650.997020,0.267602
651.310720,0.267199
651.624380,0.261813
651.938000,0.264543
652.251580,0.266908
652.565120,0.260481
652.878620,0.268018
653.192080,0.265449
653.505500,0.257784
653.818880,0.263293
654.132220,0.261179
654.445520,0.261486
654.758780,0.258074
655.072000,0.259599
655.385180,0.259058
655.698320,0.252072
656.011420,0.257094
656.324480,0.250656
656.637500,0.258401
656.950480,0.256019
657.263420,0.251552
657.576320,0.253780
657.889180,0.254497
658.202000,0.246679
658.514780,0.251861
658.827520,0.254202
659.140220,0.243632
659.452880,0.244639
659.765500,0.241722
660.078080,0.241950
660.390620,0.242896
660.703120,0.246868
661.015580,0.243252
661.328000,0.244962
661.640380,0.247282
661.952720,0.238866
662.265020,0.244171
662.577280,0.242366
662.889500,0.237465
663.201680,0.240587
663.513820,0.244130
663.825920,0.236311
664.137980,0.237880
664.450000,0.234974
664.761980,0.236661
665.073920,0.233366
665.385820,0.231675
665.697680,0.236694
666.009500,0.235451
666.321280,0.229291
666.633020,0.237367
666.944720,0.231547
667.256380,0.228802
667.568000,0.226223
667.879580,0.232313
668.191120,0.228709
668.502620,0.225265
668.814080,0.226667
669.125500,0.224427
669.436880,0.221646
669.748220,0.222222
670.059520,0.225490
670.370780,0.221990
670.682000,0.225487
670.993180,0.218464
671.304320,0.218706
671.615420,0.220526
671.926480,0.222853
672.237500,0.214005
672.548480,0.215046
672.859420,0.218013
673.170320,0.220167
673.481180,0.216148
673.792000,0.210602
674.102780,0.212567
674.413520,0.211447
674.724220,0.211978
675.034880,0.221122
675.345500,0.216995
675.656080,0.217060
675.966620,0.212077
676.277120,0.211278
676.587580,0.212445
676.898000,0.204554
677.208380,0.204436
677.518720,0.204595
677.829020,0.207687
678.139280,0.207191
678.449500,0.203119
678.759680,0.204946
679.069820,0.199257
679.379920,0.206337
679.689980,0.202748
680.000000,0.201121
680.309980,0.206013
680.619920,0.199546
680.929820,0.197835
681.239680,0.199778
681.549500,0.203333
681.859280,0.200149
682.169020,0.202909
682.478720,0.203815
682.788380,0.200074
683.098000,0.198205
683.407580,0.193246
683.717120,0.193694
684.026620,0.197666
684.336080,0.195529
684.645500,0.194538
684.954880,0.192671
685.264220,0.191393
685.573520,0.198325
685.882780,0.196011
686.192000,0.192250
686.501180,0.188801
686.810320,0.190623
687.119420,0.189282
687.428480,0.187619
687.737500,0.188411
688.046480,0.188650
688.355420,0.187476
688.664320,0.189748
688.973180,0.191807
689.282000,0.188657
689.590780,0.185199
689.899520,0.178124
690.208220,0.186927
690.516880,0.183658
690.825500,0.186038
691.134080,0.183371
691.442620,0.181784
691.751120,0.180129
692.059580,0.179213
692.368000,0.173419
692.676380,0.183588
692.984720,0.179389
693.293020,0.181991
693.601280,0.181992
693.909500,0.175936
694.217680,0.180122
694.525820,0.178218
694.833920,0.177032
695.141980,0.182414
695.450000,0.173664
695.757980,0.177998
696.065920,0.173981
696.373820,0.176289
696.681680,0.172612
696.989500,0.179467
697.297280,0.169973
697.605020,0.176190
697.912720,0.176403
698.220380,0.171586
698.528000,0.172468
698.835580,0.173449
699.143120,0.173422
699.450620,0.173031
699.758080,0.164314
700.065500,0.171189
700.372880,0.174400
700.680220,0.167930
700.987520,0.168651
701.294780,0.172749
701.602000,0.167591
701.909180,0.167727
702.216320,0.168948
702.523420,0.170481
702.830480,0.165941
703.137500,0.164458
703.444480,0.166075
703.751420,0.166864
704.058320,0.165809
704.365180,0.162855
704.672000,0.169901
704.978780,0.163480
705.285520,0.162363
705.592220,0.160784
705.898880,0.157210
706.205500,0.162363
706.512080,0.163112
706.818620,0.164861
707.125120,0.161154
707.431580,0.159828
707.738000,0.166406
708.044380,0.159398
708.350720,0.160489
708.657020,0.159828
708.963280,0.161102
709.269500,0.160078
709.575680,0.161886
709.881820,0.159591
710.187920,0.160311
710.493980,0.155159
710.800000,0.156751
711.105980,0.152108
711.411920,0.158455
711.717820,0.152437
712.023680,0.155461
712.329500,0.159306
712.635280,0.160078
712.941020,0.152687
713.246720,0.152964
713.552380,0.151884
713.858000,0.156484
714.163580,0.157064
714.469120,0.150840
714.774620,0.153178
715.080080,0.152729
715.385500,0.157474
715.690880,0.154241
715.996220,0.150555
716.301520,0.156126
716.606780,0.151336
716.912000,0.152262
717.217180,0.152434
717.522320,0.150696
717.827420,0.150529
718.132480,0.150943
718.437500,0.151243
718.742480,0.150000
719.047420,0.147249
719.352320,0.153176
719.657180,0.150041
719.962000,0.144334
720.266780,0.147486
720.571520,0.147887
720.876220,0.144026
721.180880,0.145067
721.485500,0.151275
721.790080,0.143524
722.094620,0.149228
722.399120,0.146919
722.703580,0.144878
723.008000,0.142303
723.312380,0.143780
723.616720,0.135572
723.921020,0.140320
724.225280,0.142670
724.529500,0.142732
724.833680,0.148577
725.137820,0.146256
725.441920,0.142666
725.745980,0.144519
726.050000,0.145241
726.353980,0.135196
726.657920,0.139901
726.961820,0.143836
727.265680,0.144244
727.569500,0.143967
727.873280,0.139030
728.177020,0.141870
728.480720,0.144444
728.784380,0.143260
729.088000,0.140838
729.391580,0.143060
729.695120,0.140595
729.998620,0.141969
730.302080,0.134551
730.605500,0.135856
730.908880,0.141107
731.212220,0.140548
731.515520,0.136031
731.818780,0.141262
732.122000,0.143701
732.425180,0.134056
732.728320,0.133366
733.031420,0.137343
733.334480,0.136224
733.637500,0.133065
733.940480,0.133060
734.243420,0.134557
734.546320,0.132780
734.849180,0.139979
735.152000,0.135892
735.454780,0.133781
735.757520,0.134879
736.060220,0.135861
736.362880,0.134454
736.665500,0.133159
736.968080,0.139172
737.270620,0.138269
737.573120,0.138646
737.875580,0.139087
738.178000,0.133914
738.480380,0.134595
738.782720,0.129771
739.085020,0.132159
739.387280,0.132483
739.689500,0.131937
739.991680,0.134194
740.293820,0.134881
740.595920,0.129104
740.897980,0.132129
741.200000,0.132922
741.501980,0.134097
741.803920,0.134009
742.105820,0.135364
742.407680,0.136867
742.709500,0.134659
743.011280,0.126612
743.313020,0.131014
743.614720,0.125943
743.916380,0.134302
744.218000,0.133055
744.519580,0.132246
744.821120,0.132335
745.122620,0.130617
745.424080,0.126803
745.725500,0.124925
746.026880,0.131158
746.328220,0.128853
746.629520,0.131848
746.930780,0.128676
747.232000,0.132434
747.533180,0.130567
747.834320,0.136336
748.135420,0.126787
748.436480,0.128509
748.737500,0.129710
749.038480,0.129505
749.339420,0.126945
749.640320,0.128221
749.941180,0.128045
750.242000,0.130025
750.542780,0.131514
750.843520,0.131967
751.144220,0.130128
751.444880,0.127457
751.745500,0.129870
752.046080,0.132777
752.346620,0.125000
752.647120,0.134553
752.947580,0.128719
753.248000,0.126370
753.548380,0.126871
753.848720,0.130071
754.149020,0.125725
754.449280,0.130663
754.749500,0.126078
755.049680,0.128000
755.349820,0.124083
755.649920,0.128222
755.949980,0.127405
756.250000,0.132150
756.549980,0.122112
756.849920,0.126445
757.149820,0.126414
757.449680,0.126733
757.749500,0.126789
758.049280,0.122184
758.349020,0.129346
758.648720,0.129055
758.948380,0.128522
759.248000,0.128706
759.547580,0.121722
759.847120,0.127498
760.146620,0.127876
760.446080,0.127688
760.745500,0.129371
761.044880,0.128551
761.344220,0.127584
761.643520,0.125706
761.942780,0.127362
762.242000,0.128006
762.541180,0.128169
762.840320,0.125702
763.139420,0.130098
763.438480,0.127820
763.737500,0.129566
764.036480,0.133473
764.335420,0.126323
764.634320,0.121968
764.933180,0.133562
765.232000,0.131159
765.530780,0.124912
765.829520,0.125874
766.128220,0.128740
766.426880,0.120824
766.725500,0.126799
767.024080,0.124143
767.322620,0.124481
767.621120,0.126694
767.919580,0.123549
768.218000,0.129959
768.516380,0.126437
768.814720,0.117284
769.113020,0.128877
769.411280,0.129144
769.709500,0.127199
770.007680,0.126108
770.305820,0.128465
770.603920,0.124663
770.901980,0.137295
771.200000,0.127038
771.497980,0.128686
771.795920,0.124415
772.093820,0.123663
772.391680,0.129202
772.689500,0.126351
772.987280,0.125253
773.285020,0.125085
773.582720,0.122297
773.880380,0.123542
774.178000,0.126108
774.475580,0.128600
774.773120,0.129853
775.070620,0.125761
775.368080,0.128257
775.665500,0.132975
775.962880,0.126084
776.260220,0.126514
776.557520,0.128753
776.854780,0.126437
777.152000,0.122679
777.449180,0.124747
777.746320,0.122984
778.043420,0.130286
778.340480,0.129905
778.637500,0.124408
778.934480,0.134499
779.231420,0.124830
779.528320,0.130261
779.825180,0.133729
780.122000,0.128154
780.418780,0.126539
780.715520,0.132126
781.012220,0.132192
781.308880,0.128465
781.605500,0.126712
781.902080,0.128679
782.198620,0.133971
782.495120,0.133059
782.791580,0.126547
783.088000,0.130435
783.384380,0.132737
783.680720,0.129959
783.977020,0.133517
784.273280,0.128671
784.569500,0.129280
784.865680,0.135605
785.161820,0.131250
785.457920,0.133056
785.753980,0.131193
786.050000,0.129144
786.345980,0.129167
786.641920,0.132547
786.937820,0.136040
787.233680,0.123173
787.529500,0.137309
787.825280,0.138102
788.121020,0.131020
788.416720,0.127735
788.712380,0.129760
789.008000,0.127479
789.303580,0.130742
789.599120,0.134545
789.894620,0.136462
790.190080,0.131255
790.485500,0.138229
790.780880,0.134050
791.076220,0.133478
791.371520,0.133624
791.666780,0.138909
791.962000,0.128582
792.257180,0.133968
792.552320,0.139231
792.847420,0.133916
793.142480,0.134066
793.437500,0.139653
793.732480,0.136064
794.027420,0.133531
794.322320,0.130500
794.617180,0.135958
794.912000,0.133730
795.206780,0.134228
795.501520,0.142966
795.796220,0.135556
796.090880,0.131876
796.385500,0.128936
796.680080,0.133882
796.974620,0.143713
797.269120,0.138531
797.563580,0.141985
797.858000,0.137434
798.152380,0.136118
798.446720,0.136923
798.741020,0.143297
799.035280,0.139752
799.329500,0.138568
799.623680,0.134884
