399.985280,0.283784
400.329500,0.324324
400.673680,0.341772
401.017820,0.294118
401.361920,0.378788
401.705980,0.329268
402.050000,0.220779
402.393980,0.341176
402.737920,0.382022
403.081820,0.298969
403.425680,0.279070
403.769500,0.250000
404.113280,0.287356
404.457020,0.303371
404.800720,0.260870
405.144380,0.292929
405.488000,0.268817
405.831580,0.298969
406.175120,0.276596
406.518620,0.300000
406.862080,0.360825
407.205500,0.291667
407.548880,0.265306
407.892220,0.264706
408.235520,0.351064
408.578780,0.323810
408.922000,0.307692
409.265180,0.313131
409.608320,0.292929
409.951420,0.329897
410.294480,0.382353
410.637500,0.347826
410.980480,0.303922
411.323420,0.346939
411.666320,0.330275
412.009180,0.363636
412.352000,0.306931
412.694780,0.311927
413.037520,0.330275
413.380220,0.324324
413.722880,0.357143
414.065500,0.387387
414.408080,0.300885
414.750620,0.327434
415.093120,0.280992
415.435580,0.327731
415.778000,0.348485
416.120380,0.352941
416.462720,0.317460
416.805020,0.338346
417.147280,0.328358
417.489500,0.321429
417.831680,0.321918
418.173820,0.319149
418.515920,0.377622
418.857980,0.329114
419.200000,0.346154
419.541980,0.337278
419.883920,0.342697
420.225820,0.346821
420.567680,0.329609
420.909500,0.344262
421.251280,0.322917
421.593020,0.352041
421.934720,0.323232
422.276380,0.348718
422.618000,0.372549
422.959580,0.338235
423.301120,0.365297
423.642620,0.330435
423.984080,0.353488
424.325500,0.354260
424.666880,0.349138
425.008220,0.348739
425.349520,0.377119
425.690780,0.342308
426.032000,0.356863
426.373180,0.369295
426.714320,0.347656
427.055420,0.335907
427.396480,0.348315
427.737500,0.367589
428.078480,0.351779
428.419420,0.365462
428.760320,0.329502
429.101180,0.389764
429.442000,0.337165
429.782780,0.373077
430.123520,0.380392
430.464220,0.372694
430.804880,0.379310
431.145500,0.349091
431.486080,0.374532
431.826620,0.372093
432.167120,0.367647
432.507580,0.391304
432.848000,0.370504
433.188380,0.368231
433.528720,0.384906
433.869020,0.403571
434.209280,0.364912
434.549500,0.365854
434.889680,0.387205
435.229820,0.368601
435.569920,0.397924
435.909980,0.372168
436.250000,0.410169
436.589980,0.334365
436.929920,0.403175
437.269820,0.410658
437.609680,0.396450
437.949500,0.385542
438.289280,0.388102
438.629020,0.401163
438.968720,0.383721
439.308380,0.376694
439.648000,0.380822
439.987580,0.373016
440.327120,0.402667
440.666620,0.381818
441.006080,0.398977
441.345500,0.398034
441.684880,0.401914
442.024220,0.384615
442.363520,0.388095
442.702780,0.397727
443.042000,0.407489
443.381180,0.398707
443.720320,0.399568
444.059420,0.399160
444.398480,0.393305
444.737500,0.397541
445.076480,0.400794
445.415420,0.413174
445.754320,0.384615
446.093180,0.400000
446.432000,0.404135
446.770780,0.406072
447.109520,0.413603
447.448220,0.404293
447.786880,0.411449
448.125500,0.422414
448.464080,0.401786
448.802620,0.418440
449.141120,0.420415
449.479580,0.417832
449.818000,0.426850
450.156380,0.413043
450.494720,0.406612
450.833020,0.405594
451.171280,0.419521
451.509500,0.437282
451.847680,0.409781
452.185820,0.419966
452.523920,0.415808
452.861980,0.406408
453.200000,0.430233
453.537980,0.416807
453.875920,0.396639
454.213820,0.424658
454.551680,0.417219
454.889500,0.424958
455.227280,0.418149
455.565020,0.423786
455.902720,0.425957
456.240380,0.402662
456.578000,0.432056
456.915580,0.443869
457.253120,0.424342
457.590620,0.413793
457.928080,0.434343
458.265500,0.439189
458.602880,0.422078
458.940220,0.439932
459.277520,0.424000
459.614780,0.436989
459.952000,0.406832
460.289180,0.438291
460.626320,0.428346
460.963420,0.420032
461.300480,0.438838
461.637500,0.420647
461.974480,0.422018
462.311420,0.427720
462.648320,0.423133
462.985180,0.420373
463.322000,0.449405
463.658780,0.424033
463.995520,0.444292
464.332220,0.429363
464.668880,0.435484
465.005500,0.441019
465.342080,0.444302
465.678620,0.434194
466.015120,0.438551
466.351580,0.431100
466.688000,0.444580
467.024380,0.439854
467.360720,0.427273
467.697020,0.431663
468.033280,0.448889
468.369500,0.444812
468.705680,0.457723
469.041820,0.443750
469.377920,0.453362
469.713980,0.439753
470.050000,0.440580
470.385980,0.450098
470.721920,0.452498
471.057820,0.444444
471.393680,0.436857
471.729500,0.448563
472.065280,0.451699
472.401020,0.449468
472.736720,0.450262
473.072380,0.440754
473.408000,0.438642
473.743580,0.440311
474.079120,0.448751
474.414620,0.446989
474.750080,0.436127
475.085500,0.444079
475.420880,0.455454
475.756220,0.456255
476.091520,0.453538
476.426780,0.434466
476.762000,0.436042
477.097180,0.462400
477.432320,0.455574
477.767420,0.448529
478.102480,0.454331
478.437500,0.453202
478.772480,0.448385
479.107420,0.453214
479.442320,0.442046
479.777180,0.458234
480.112000,0.432974
480.446780,0.443492
480.781520,0.442834
481.116220,0.449475
481.450880,0.445746
481.785500,0.460443
482.120080,0.456897
482.454620,0.450660
482.789120,0.457006
483.123580,0.444704
483.458000,0.439082
483.792380,0.459265
484.126720,0.454826
484.461020,0.448087
484.795280,0.451812
485.129500,0.460639
485.463680,0.450388
485.797820,0.459565
486.131920,0.452181
486.465980,0.450965
486.800000,0.456489
487.133980,0.451662
487.467920,0.451415
487.801820,0.454615
488.135680,0.451857
488.469500,0.453101
488.803280,0.447251
489.137020,0.437363
489.470720,0.455490
489.804380,0.457313
490.138000,0.460682
490.471580,0.456153
490.805120,0.448892
491.138620,0.457711
491.472080,0.443816
491.805500,0.453975
492.138880,0.446838
492.472220,0.455363
492.805520,0.457402
493.138780,0.453480
493.472000,0.450836
493.805180,0.474761
494.138320,0.457638
494.471420,0.451823
494.804480,0.452781
495.137500,0.451220
495.470480,0.448693
495.803420,0.448363
496.136320,0.451754
496.469180,0.449355
496.802000,0.445599
497.134780,0.454821
497.467520,0.452599
497.800220,0.451651
498.132880,0.455614
498.465500,0.457706
498.798080,0.451484
499.130620,0.453678
499.463120,0.448624
499.795580,0.453245
500.128000,0.449046
500.460380,0.449946
500.792720,0.453340
501.125020,0.441934
501.457280,0.451697
501.789500,0.456612
502.121680,0.464489
502.453820,0.447731
502.785920,0.452226
503.117980,0.446026
503.450000,0.465093
503.781980,0.451918
504.113920,0.455666
504.445820,0.437044
504.777680,0.450353
505.109500,0.449038
505.441280,0.453633
505.773020,0.450446
506.104720,0.444183
506.436380,0.450071
506.768000,0.441534
507.099580,0.445309
507.431120,0.446370
507.762620,0.444549
508.094080,0.440292
508.425500,0.447712
508.756880,0.439872
509.088220,0.443422
509.419520,0.449721
509.750780,0.449859
510.082000,0.449627
510.413180,0.448641
510.744320,0.448228
511.075420,0.448213
511.406480,0.444758
511.737500,0.435648
512.068480,0.450188
512.399420,0.442723
512.730320,0.426328
513.061180,0.445290
513.392000,0.447231
513.722780,0.447646
514.053520,0.437949
514.384220,0.435775
514.714880,0.434179
515.045500,0.436303
515.376080,0.440678
515.706620,0.435460
516.037120,0.436275
516.367580,0.434697
516.698000,0.433824
517.028380,0.440914
517.358720,0.429630
517.689020,0.433234
518.019280,0.438033
518.349500,0.435378
518.679680,0.428571
519.009820,0.432186
519.339920,0.439880
519.669980,0.428930
520.000000,0.437596
520.329980,0.437014
520.659920,0.427914
520.989820,0.437049
521.319680,0.431070
521.649500,0.427763
521.979280,0.430063
522.309020,0.429461
522.638720,0.424987
522.968380,0.430714
523.298000,0.428497
523.627580,0.422659
523.957120,0.424416
524.286620,0.423658
524.616080,0.431231
524.945500,0.419121
525.274880,0.420729
525.604220,0.416667
525.933520,0.418239
526.262780,0.414597
526.592000,0.417555
526.921180,0.414424
527.250320,0.425672
527.579420,0.422941
527.908480,0.411620
528.237500,0.422542
528.566480,0.433134
528.895420,0.412518
529.224320,0.419515
529.553180,0.413012
529.882000,0.434550
530.210780,0.413610
530.539520,0.410834
530.868220,0.415989
531.196880,0.403727
531.525500,0.426150
531.854080,0.409475
532.182620,0.401214
532.511120,0.410209
532.839580,0.413793
533.168000,0.410210
533.496380,0.414612
533.824720,0.409601
534.153020,0.408827
534.481280,0.412335
534.809500,0.414248
535.137680,0.406684
535.465820,0.402491
535.793920,0.412437
536.121980,0.406630
536.450000,0.414799
536.777980,0.411395
537.105920,0.404317
537.433820,0.405074
537.761680,0.411020
538.089500,0.410360
538.417280,0.404696
538.745020,0.400951
539.072720,0.399844
539.400380,0.402875
539.728000,0.404589
540.055580,0.398127
540.383120,0.394639
540.710620,0.399926
541.038080,0.396164
541.365500,0.400000
541.692880,0.400436
542.020220,0.403742
542.347520,0.397703
542.674780,0.392731
543.002000,0.384535
543.329180,0.402315
543.656320,0.392053
543.983420,0.392137
544.310480,0.393136
544.637500,0.390993
544.964480,0.389637
545.291420,0.392489
545.618320,0.397742
545.945180,0.388596
546.272000,0.387287
546.598780,0.386431
546.925520,0.380811
547.252220,0.388577
547.578880,0.384490
547.905500,0.391830
548.232080,0.383041
548.558620,0.383990
548.885120,0.386654
549.211580,0.380264
549.538000,0.381323
549.864380,0.377492
550.190720,0.379399
550.517020,0.381356
550.843280,0.386971
551.169500,0.378181
551.495680,0.376150
551.821820,0.376878
552.147920,0.372479
552.473980,0.378334
552.800000,0.377371
553.125980,0.373281
553.451920,0.373258
553.777820,0.374084
554.103680,0.368049
554.429500,0.365919
554.755280,0.363485
555.081020,0.364305
555.406720,0.373857
555.732380,0.365639
556.058000,0.367278
556.383580,0.358439
556.709120,0.360096
557.034620,0.362728
557.360080,0.360622
557.685500,0.364108
558.010880,0.353899
558.336220,0.358524
558.661520,0.358384
558.986780,0.360383
559.312000,0.356481
559.637180,0.355476
559.962320,0.355999
560.287420,0.351199
560.612480,0.354862
560.937500,0.349119
561.262480,0.353372
561.587420,0.350744
561.912320,0.348563
562.237180,0.351591
562.562000,0.344557
562.886780,0.351542
563.211520,0.343145
563.536220,0.343599
563.860880,0.344021
564.185500,0.344841
564.510080,0.349511
564.834620,0.346111
565.159120,0.341729
565.483580,0.341695
565.808000,0.339387
566.132380,0.339426
566.456720,0.339002
566.781020,0.343211
567.105280,0.333081
567.429500,0.331942
567.753680,0.339471
568.077820,0.335137
568.401920,0.337662
568.725980,0.335863
569.050000,0.328517
569.373980,0.336506
569.697920,0.329162
570.021820,0.325468
570.345680,0.326062
570.669500,0.322778
570.993280,0.323736
571.317020,0.318597
571.640720,0.323824
571.964380,0.325167
572.288000,0.322700
572.611580,0.324972
572.935120,0.324729
573.258620,0.322364
573.582080,0.314829
573.905500,0.320551
574.228880,0.325909
574.552220,0.323562
574.875520,0.321668
575.198780,0.321287
575.522000,0.315616
575.845180,0.313037
576.168320,0.309019
576.491420,0.325581
576.814480,0.311031
577.137500,0.316378
577.460480,0.306995
577.783420,0.311183
578.106320,0.313034
578.429180,0.317780
578.752000,0.310177
579.074780,0.308833
579.397520,0.303422
579.720220,0.303732
580.042880,0.311860
580.365500,0.307412
580.688080,0.310380
581.010620,0.305096
581.333120,0.302605
581.655580,0.301032
581.978000,0.300632
582.300380,0.298929
582.622720,0.302900
582.945020,0.303966
583.267280,0.302833
583.589500,0.297271
583.911680,0.294379
584.233820,0.297765
584.555920,0.303813
584.877980,0.296168
585.200000,0.288828
585.521980,0.296880
585.843920,0.285540
586.165820,0.290372
586.487680,0.292206
586.809500,0.288929
587.131280,0.291925
587.453020,0.291369
587.774720,0.295979
588.096380,0.289673
588.418000,0.287387
588.739580,0.291176
589.061120,0.286947
589.382620,0.286246
589.704080,0.285835
590.025500,0.282534
590.346880,0.282181
590.668220,0.285634
590.989520,0.280921
591.310780,0.282519
591.632000,0.278962
591.953180,0.283975
592.274320,0.277914
592.595420,0.276131
592.916480,0.281989
593.237500,0.278362
593.558480,0.275760
593.879420,0.272727
594.200320,0.274846
594.521180,0.275432
594.842000,0.276196
595.162780,0.269498
595.483520,0.267748
595.804220,0.266380
596.124880,0.271250
596.445500,0.266964
596.766080,0.273729
597.086620,0.268047
597.407120,0.263296
597.727580,0.267568
598.048000,0.270299
598.368380,0.266702
598.688720,0.265531
599.009020,0.264597
599.329280,0.261841
599.649500,0.255415
599.969680,0.255075
600.289820,0.261752
600.609920,0.258616
600.929980,0.253608
601.250000,0.257568
601.569980,0.256549
601.889920,0.253943
602.209820,0.252706
602.529680,0.262016
602.849500,0.253137
603.169280,0.251860
603.489020,0.251591
603.808720,0.250137
604.128380,0.254415
604.448000,0.247238
604.767580,0.248883
605.087120,0.246260
605.406620,0.246572
605.726080,0.248931
606.045500,0.241850
606.364880,0.244117
606.684220,0.249001
607.003520,0.240539
607.322780,0.244173
607.642000,0.239805
607.961180,0.241977
608.280320,0.238979
608.599420,0.233198
608.918480,0.238416
609.237500,0.235329
609.556480,0.238828
609.875420,0.234495
610.194320,0.229702
610.513180,0.234093
610.832000,0.234961
611.150780,0.233704
611.469520,0.229261
611.788220,0.232467
612.106880,0.230097
612.425500,0.231730
612.744080,0.233610
613.062620,0.226911
613.381120,0.226691
613.699580,0.231453
614.018000,0.231572
614.336380,0.228254
614.654720,0.225736
614.973020,0.224005
615.291280,0.224667
615.609500,0.227258
615.927680,0.226205
616.245820,0.222016
616.563920,0.220703
616.881980,0.222950
617.200000,0.221773
617.517980,0.214686
617.835920,0.216838
618.153820,0.215729
618.471680,0.217364
618.789500,0.218691
619.107280,0.221283
619.425020,0.220108
619.742720,0.218142
620.060380,0.211846
620.378000,0.213656
620.695580,0.212644
621.013120,0.206614
621.330620,0.214308
621.648080,0.209148
621.965500,0.211104
622.282880,0.210908
622.600220,0.207517
622.917520,0.208885
623.234780,0.207650
623.552000,0.205602
623.869180,0.204853
624.186320,0.205985
624.503420,0.202194
624.820480,0.204838
625.137500,0.208715
625.454480,0.202251
625.771420,0.203972
626.088320,0.203026
626.405180,0.201307
626.722000,0.204203
627.038780,0.203321
627.355520,0.206563
627.672220,0.200311
627.988880,0.195956
628.305500,0.201620
628.622080,0.198575
628.938620,0.199388
629.255120,0.198507
629.571580,0.194913
629.888000,0.194231
630.204380,0.195766
630.520720,0.190433
630.837020,0.193956
631.153280,0.194844
631.469500,0.195573
631.785680,0.197408
632.101820,0.193305
632.417920,0.191952
632.733980,0.190276
633.050000,0.193451
633.365980,0.189389
633.681920,0.191826
633.997820,0.191871
634.313680,0.189030
634.629500,0.188735
634.945280,0.187683
635.261020,0.191958
635.576720,0.189078
635.892380,0.187627
636.208000,0.185648
636.523580,0.185618
636.839120,0.183845
637.154620,0.182319
637.470080,0.180488
637.785500,0.187280
638.100880,0.183898
638.416220,0.182341
638.731520,0.173639
639.046780,0.180891
639.362000,0.180619
639.677180,0.179041
639.992320,0.178743
640.307420,0.182917
640.622480,0.180342
640.937500,0.176976
641.252480,0.177046
641.567420,0.176186
641.882320,0.175390
642.197180,0.177709
642.512000,0.176043
642.826780,0.172816
643.141520,0.174493
643.456220,0.179026
643.770880,0.176341
644.085500,0.172722
644.400080,0.173876
644.714620,0.172520
645.029120,0.171617
645.343580,0.171146
645.658000,0.175964
645.972380,0.174842
646.286720,0.170619
646.601020,0.171049
646.915280,0.170277
647.229500,0.167308
647.543680,0.167909
647.857820,0.170107
648.171920,0.165762
648.485980,0.169087
648.800000,0.168366
649.113980,0.167406
649.427920,0.168100
649.741820,0.167079
650.055680,0.164290
650.369500,0.162836
650.683280,0.164539
650.997020,0.161716
651.310720,0.164282
651.624380,0.160440
651.938000,0.158726
652.251580,0.160590
652.565120,0.155953
652.878620,0.163288
653.192080,0.160955
653.505500,0.155400
653.818880,0.164060
654.132220,0.159784
654.445520,0.160522
654.758780,0.157790
655.072000,0.159599
655.385180,0.156348
655.698320,0.154901
656.011420,0.156492
656.324480,0.155640
656.637500,0.154693
656.950480,0.154727
657.263420,0.156074
657.576320,0.154462
657.889180,0.155706
658.202000,0.154287
658.514780,0.152426
658.827520,0.152161
659.140220,0.159425
659.452880,0.152824
659.765500,0.152318
660.078080,0.148059
660.390620,0.146654
660.703120,0.153682
661.015580,0.151227
661.328000,0.151448
661.640380,0.147561
661.952720,0.150420
662.265020,0.148393
662.577280,0.147901
662.889500,0.148218
663.201680,0.150287
663.513820,0.147636
663.825920,0.146013
664.137980,0.148675
664.450000,0.143223
664.761980,0.142390
665.073920,0.147355
665.385820,0.145942
665.697680,0.144132
666.009500,0.147988
666.321280,0.147780
666.633020,0.148936
666.944720,0.144928
667.256380,0.144011
667.568000,0.142323
667.879580,0.145238
668.191120,0.145948
668.502620,0.142417
668.814080,0.142105
669.125500,0.142320
669.436880,0.144191
669.748220,0.142264
670.059520,0.145308
670.370780,0.141962
670.682000,0.144779
670.993180,0.140240
671.304320,0.139241
671.615420,0.139560
671.926480,0.142654
672.237500,0.135763
672.548480,0.143009
672.859420,0.141530
673.170320,0.140007
673.481180,0.141926
673.792000,0.137396
674.102780,0.140754
674.413520,0.138170
674.724220,0.138294
675.034880,0.141181
675.345500,0.141138
675.656080,0.140472
675.966620,0.137505
676.277120,0.134749
676.587580,0.138807
676.898000,0.140724
677.208380,0.136414
677.518720,0.135303
677.829020,0.134885
678.139280,0.137880
678.449500,0.139621
678.759680,0.136381
679.069820,0.131599
679.379920,0.137684
679.689980,0.135908
680.000000,0.131963
680.309980,0.133630
680.619920,0.129496
680.929820,0.135498
681.239680,0.135894
681.549500,0.135926
681.859280,0.134055
682.169020,0.136143
682.478720,0.135004
682.788380,0.131783
683.098000,0.138743
683.407580,0.135835
683.717120,0.132132
684.026620,0.136295
684.336080,0.129595
684.645500,0.132061
684.954880,0.130714
685.264220,0.134013
685.573520,0.135896
685.882780,0.137706
686.192000,0.127163
686.501180,0.129398
686.810320,0.133359
687.119420,0.133409
687.428480,0.132548
687.737500,0.132771
688.046480,0.131902
688.355420,0.133157
688.664320,0.126626
688.973180,0.132083
689.282000,0.133488
689.590780,0.133819
689.899520,0.126092
690.208220,0.129969
690.516880,0.131348
690.825500,0.135472
691.134080,0.130979
691.442620,0.124238
691.751120,0.132727
692.059580,0.126481
692.368000,0.125710
692.676380,0.127099
692.984720,0.130916
693.293020,0.129939
693.601280,0.128195
693.909500,0.129398
694.217680,0.129474
694.525820,0.134044
694.833920,0.128577
695.141980,0.129194
695.450000,0.134351
695.757980,0.132926
696.065920,0.130097
696.373820,0.128560
696.681680,0.129651
696.989500,0.130838
697.297280,0.127577
697.605020,0.128968
697.912720,0.125288
698.220380,0.127115
698.528000,0.134494
698.835580,0.128803
699.143120,0.125097
699.450620,0.128481
699.758080,0.130980
700.065500,0.131285
700.372880,0.128000
700.680220,0.130435
700.987520,0.128175
701.294780,0.129359
701.602000,0.126387
701.909180,0.132353
702.216320,0.129449
702.523420,0.130624
702.830480,0.127921
703.137500,0.127825
703.444480,0.130178
703.751420,0.128994
704.058320,0.130194
704.365180,0.127366
704.672000,0.129901
704.978780,0.128365
705.285520,0.126369
705.592220,0.127059
705.898880,0.129236
706.205500,0.135368
706.512080,0.132306
706.818620,0.130418
707.125120,0.127308
707.431580,0.127003
707.738000,0.129297
708.044380,0.127364
708.350720,0.124570
708.657020,0.126612
708.963280,0.131599
709.269500,0.129941
709.575680,0.126523
709.881820,0.128538
710.187920,0.124514
710.493980,0.128782
710.800000,0.125858
711.105980,0.125377
711.411920,0.128892
711.717820,0.128265
712.023680,0.128255
712.329500,0.130915
712.635280,0.130233
712.941020,0.134132
713.246720,0.126482
713.552380,0.130298
713.858000,0.132440
714.163580,0.127466
714.469120,0.127003
714.774620,0.124753
715.080080,0.133098
715.385500,0.127498
715.690880,0.127022
715.996220,0.128368
716.301520,0.130040
716.606780,0.127358
716.912000,0.129241
717.217180,0.127294
717.522320,0.130417
717.827420,0.131001
718.132480,0.126455
718.437500,0.130453
718.742480,0.128226
719.047420,0.131472
719.352320,0.129929
719.657180,0.130417
719.962000,0.129446
720.266780,0.131699
720.571520,0.125518
720.876220,0.130115
721.180880,0.127926
721.485500,0.134977
721.790080,0.128238
722.094620,0.132933
722.399120,0.130978
722.703580,0.137162
723.008000,0.131953
723.312380,0.131726
723.616720,0.130047
723.921020,0.132958
724.225280,0.129145
724.529500,0.129159
724.833680,0.132117
725.137820,0.130837
725.441920,0.128845
725.745980,0.133333
726.050000,0.128552
726.353980,0.132041
726.657920,0.133153
726.961820,0.133333
727.265680,0.130837
727.569500,0.130713
727.873280,0.130716
728.177020,0.134961
728.480720,0.131481
728.784380,0.133396
729.088000,0.134715
729.391580,0.137376
729.695120,0.134357
729.998620,0.137667
730.302080,0.135992
730.605500,0.129064
730.908880,0.131798
731.212220,0.133692
731.515520,0.130668
731.818780,0.132039
732.122000,0.135335
732.425180,0.136028
732.728320,0.142291
733.031420,0.134837
733.334480,0.134184
733.637500,0.134073
733.940480,0.132549
734.243420,0.134047
734.546320,0.137448
734.849180,0.135331
735.152000,0.133299
735.454780,0.133264
735.757520,0.133825
736.060220,0.139021
736.362880,0.138655
736.665500,0.131070
736.968080,0.138635
737.270620,0.138813
737.573120,0.133188
737.875580,0.135789
738.178000,0.134458
738.480380,0.135676
738.782720,0.136314
739.085020,0.134361
739.387280,0.138027
739.689500,0.136467
739.991680,0.139248
740.293820,0.140409
740.595920,0.140234
740.897980,0.141728
741.200000,0.143578
741.501980,0.142693
741.803920,0.139077
742.105820,0.141004
742.407680,0.139196
742.709500,0.139773
743.011280,0.138921
743.313020,0.142029
743.614720,0.136970
743.916380,0.137209
744.218000,0.145585
744.519580,0.139493
744.821120,0.146108
745.122620,0.144398
745.424080,0.135216
745.725500,0.142426
746.026880,0.147783
746.328220,0.143650
746.629520,0.139073
746.930780,0.143995
747.232000,0.142857
747.533180,0.143990
747.834320,0.149726
748.135420,0.145432
748.436480,0.152838
748.737500,0.150710
749.038480,0.148442
749.339420,0.145613
749.640320,0.147077
749.941180,0.141162
750.242000,0.145729
750.542780,0.146402
750.843520,0.146701
751.144220,0.147436
751.444880,0.145212
751.745500,0.140260
752.046080,0.153303
752.346620,0.147552
752.647120,0.146310
752.947580,0.147477
753.248000,0.148291
753.548380,0.141835
753.848720,0.151320
754.149020,0.147002
754.449280,0.154301
754.749500,0.149967
755.049680,0.145333
755.349820,0.151434
755.649920,0.153338
755.949980,0.153948
756.250000,0.158448
756.549980,0.149835
756.849920,0.150238
757.149820,0.148370
757.449680,0.155116
757.749500,0.157464
758.049280,0.153584
758.349020,0.154381
758.648720,0.155970
758.948380,0.153265
759.248000,0.156334
759.547580,0.157364
759.847120,0.152998
760.146620,0.154263
760.446080,0.154570
760.745500,0.152448
761.044880,0.154830
761.344220,0.153243
761.643520,0.157486
761.942780,0.156053
762.242000,0.150636
762.541180,0.157746
762.840320,0.155899
763.139420,0.152602
763.438480,0.155161
763.737500,0.161957
764.036480,0.155835
764.335420,0.155963
764.634320,0.160083
764.933180,0.163699
765.232000,0.160305
765.530780,0.165614
765.829520,0.159441
766.128220,0.159360
766.426880,0.159204
766.725500,0.167238
767.024080,0.161180
767.322620,0.158368
767.621120,0.159214
767.919580,0.159727
768.218000,0.161423
768.516380,0.164976
768.814720,0.163237
769.113020,0.160579
769.411280,0.163674
769.709500,0.165765
770.007680,0.158828
770.305820,0.163624
770.603920,0.165094
770.901980,0.167350
771.200000,0.162364
771.497980,0.162869
771.795920,0.161873
772.093820,0.162433
772.391680,0.166777
772.689500,0.164189
772.987280,0.158249
773.285020,0.166097
773.582720,0.166216
773.880380,0.173644
774.178000,0.166326
774.475580,0.168118
774.773120,0.165997
775.070620,0.175794
775.368080,0.168337
775.665500,0.169241
775.962880,0.178119
776.260220,0.168910
776.557520,0.166778
776.854780,0.170385
777.152000,0.169761
777.449180,0.169252
777.746320,0.167339
778.043420,0.177353
778.340480,0.170501
778.637500,0.175118
778.934480,0.165434
779.231420,0.167571
779.528320,0.172345
779.825180,0.167325
780.122000,0.168659
780.418780,0.175787
780.715520,0.175721
781.012220,0.181507
781.308880,0.173766
781.605500,0.173288
781.902080,0.177276
782.198620,0.181818
782.495120,0.176955
782.791580,0.176066
783.088000,0.178054
783.384380,0.178817
783.680720,0.177839
783.977020,0.175499
784.273280,0.182517
784.569500,0.178197
784.865680,0.184284
785.161820,0.179861
785.457920,0.178794
785.753980,0.179344
786.050000,0.174724
786.345980,0.189583
786.641920,0.184594
786.937820,0.190171
787.233680,0.175365
787.529500,0.185160
787.825280,0.191926
788.121020,0.182011
788.416720,0.183486
788.712380,0.184767
789.008000,0.186969
789.303580,0.178799
789.599120,0.184727
789.894620,0.185560
790.190080,0.184917
790.485500,0.187185
790.780880,0.187814
791.076220,0.191919
791.371520,0.194626
791.666780,0.194909
791.962000,0.181484
792.257180,0.189605
792.552320,0.189268
792.847420,0.191412
793.142480,0.198535
793.437500,0.187410
793.732480,0.188734
794.027420,0.192878
794.322320,0.190902
794.617180,0.199851
794.912000,0.190193
795.206780,0.193139
795.501520,0.194677
795.796220,0.188889
796.090880,0.192163
796.385500,0.196402
796.680080,0.192221
796.974620,0.198353
797.269120,0.189251
797.563580,0.197710
797.858000,0.201215
798.152380,0.196442
798.446720,0.202308
798.741020,0.190293
799.035280,0.202640
799.329500,0.200924
799.623680,0.202326
