382,NaN
383,0.2454
384,1.0000
385,0.0000
386,0.0000
387,0.1264
388,0.2088
389,0.1031
390,0.0000
391,0.0000
392,0.0878
393,0.0000
394,0.0000
395,0.0000
396,0.0670
397,0.0000
398,0.0000
399,0.0369
400,0.0000
401,0.1626
402,0.0000
403,0.0000
404,0.0239
405,0.0000
406,0.0171
407,0.0318
408,0.0000
409,0.0000
410,0.0346
411,0.0222
412,0.0761
413,0.0000
414,0.0000
415,0.0000
416,0.0328
417,0.0124
418,0.0000
419,0.0357
420,0.0395
421,0.0000
422,0.0117
423,0.0000
424,0.0059
425,0.0000
426,0.0465
427,0.0000
428,0.0000
429,0.0052
430,0.0573
431,0.0000
432,0.0159
433,0.0086
434,0.0000
435,0.0116
436,0.0074
437,0.0380
438,0.0000
439,0.0000
440,0.0000
441,0.0063
442,0.0246
443,0.0247
444,0.0295
445,0.0023
446,0.0134
447,0.0306
448,0.0017
449,0.0238
450,0.0278
451,0.0000
452,0.0000
453,0.0245
454,0.0178
455,0.0060
456,0.0129
457,0.0143
458,0.0000
459,0.0337
460,0.0116
461,0.0183
462,0.0095
463,0.0312
464,0.0053
465,0.0000
466,0.0000
467,0.0041
468,0.0247
469,0.0160
470,0.0059
471,0.0035
472,0.0230
473,0.0120
474,0.0115
475,0.0172
476,0.0061
477,0.0175
478,0.0193
479,0.0273
480,0.0188
481,0.0103
482,0.0144
483,0.0122
484,0.0131
485,0.0204
486,0.0172
487,0.0230
488,0.0114
489,0.0147
490,0.0207
491,0.0219
492,0.0086
493,0.0152
494,0.0169
495,0.0151
496,0.0144
497,0.0171
498,0.0165
499,0.0198
500,0.0181
501,0.0210
502,0.0215
503,0.0162
504,0.0169
505,0.0117
506,0.0157
507,0.0197
508,0.0159
509,0.0183
510,0.0175
511,0.0119
512,0.0170
513,0.0132
514,0.0121
515,0.0105
516,0.0111
517,0.0138
518,0.0118
519,0.0111
520,0.0122
521,0.0100
522,0.0110
523,0.0101
524,0.0112
525,0.0089
526,0.0093
527,0.0123
528,0.0104
529,0.0113
530,0.0105
531,0.0101
532,0.0093
533,0.0083
534,0.0121
535,0.0103
536,0.0096
537,0.0115
538,0.0098
539,0.0103
540,0.0109
541,0.0103
542,0.0106
543,0.0102
544,0.0099
545,0.0093
546,0.0122
547,0.0115
548,0.0108
549,0.0094
550,0.0110
551,0.0093
552,0.0103
553,0.0115
554,0.0118
555,0.0099
556,0.0106
557,0.0097
558,0.0101
559,0.0094
560,0.0095
561,0.0096
562,0.0104
563,0.0111
564,0.0105
565,0.0106
566,0.0099
567,0.0114
568,0.0100
569,0.0118
570,0.0117
571,0.0112
572,0.0111
573,0.0105
574,0.0108
575,0.0102
576,0.0110
577,0.0110
578,0.0096
579,0.0112
580,0.0114
581,0.0097
582,0.0101
583,0.0105
584,0.0101
585,0.0099
586,0.0109
587,0.0099
588,0.0104
589,0.0100
590,0.0111
591,0.0099
592,0.0096
593,0.0105
594,0.0114
595,0.0102
596,0.0091
597,0.0097
598,0.0096
599,0.0103
600,0.0095
601,0.0101
602,0.0098
603,0.0094
604,0.0095
605,0.0095
606,0.0091
607,0.0098
608,0.0106
609,0.0105
610,0.0098
611,0.0096
612,0.0101
613,0.0099
614,0.0100
615,0.0107
616,0.0101
617,0.0093
618,0.0100
619,0.0096
620,0.0094
621,0.0103
622,0.0107
623,0.0107
624,0.0098
625,0.0093
626,0.0093
627,0.0095
628,0.0100
629,0.0103
630,0.0099
631,0.0093
632,0.0099
633,0.0094
634,0.0097
635,0.0098
636,0.0099
637,0.0099
638,0.0095
639,0.0089
640,0.0096
641,0.0100
642,0.0098
643,0.0101
644,0.0095
645,0.0097
646,0.0098
647,0.0094
648,0.0099
649,0.0090
650,0.0096
651,0.0090
652,0.0095
653,0.0093
654,0.0085
655,0.0092
656,0.0091
657,0.0085
658,0.0086
659,0.0085
660,0.0089
661,0.0080
662,0.0090
663,0.0092
664,0.0088
665,0.0095
666,0.0091
667,0.0087
668,0.0083
669,0.0092
670,0.0088
671,0.0093
672,0.0091
673,0.0094
674,0.0080
675,0.0091
676,0.0089
677,0.0081
678,0.0087
679,0.0084
680,0.0086
681,0.0087
682,0.0087
683,0.0086
684,0.0090
685,0.0085
686,0.0089
687,0.0085
688,0.0089
689,0.0089
690,0.0088
691,0.0087
692,0.0088
693,0.0088
694,0.0092
695,0.0084
696,0.0091
697,0.0088
698,0.0084
699,0.0086
700,0.0093
701,0.0088
702,0.0085
703,0.0083
704,0.0074
705,0.0086
706,0.0083
707,0.0083
708,0.0086
709,0.0090
710,0.0082
711,0.0092
712,0.0081
713,0.0085
714,0.0086
715,0.0090
716,0.0082
717,0.0086
718,0.0087
719,0.0087
720,0.0086
721,0.0081
722,0.0073
723,0.0079
724,0.0076
725,0.0081
726,0.0089
727,0.0073
728,0.0074
729,0.0072
730,0.0067
731,0.0078
732,0.0077
733,0.0072
734,0.0078
735,0.0078
736,0.0077
737,0.0074
738,0.0077
739,0.0079
740,0.0061
741,0.0073
742,0.0076
743,0.0071
744,0.0076
745,0.0075
746,0.0077
747,0.0070
748,0.0079
749,0.0073
750,0.0072
751,0.0082
752,0.0074
753,0.0085
754,0.0072
755,0.0073
756,0.0080
757,0.0076
758,0.0066
759,0.0074
760,0.0079
761,0.0077
762,0.0074
763,0.0083
764,0.0081
765,0.0076
766,0.0074
767,0.0072
768,0.0079
769,0.0072
770,0.0068
771,0.0077
772,0.0065
773,0.0071
774,0.0074
775,0.0071
776,0.0080
777,0.0069
778,0.0070
779,0.0080
780,0.0060
781,0.0074
782,0.0068
783,0.0068
784,0.0070
785,0.0075
786,0.0073
787,0.0072
788,0.0072
789,0.0075
790,0.0073
791,0.0061
792,0.0072
793,0.0062
794,0.0070
795,0.0072
796,0.0074
797,0.0080
798,0.0065
799,0.0070
800,0.0070
801,0.0069
802,0.0070
803,0.0083
804,0.0073
805,0.0075
806,0.0067
807,0.0077
808,0.0079
809,0.0067
810,0.0077
811,0.0072
812,0.0072
813,0.0076
814,0.0069
815,0.0074
816,0.0080
817,0.0085
818,0.0075
819,0.0090
820,0.0086
821,0.0077
822,0.0080
823,0.0085
824,0.0069
825,0.0088
826,0.0082
827,0.0071
828,0.0069
829,0.0071
830,0.0074
831,0.0084
832,0.0067
833,0.0059
834,0.0080
835,0.0065
836,0.0074
837,0.0079
838,0.0068
839,0.0070
840,0.0062
841,0.0059
842,0.0073
843,0.0058
844,0.0068
845,0.0062
846,0.0061
847,0.0059
848,0.0061
849,0.0069
850,0.0053
851,0.0066
852,0.0062
853,0.0058
854,0.0069
855,0.0070
856,0.0067
857,0.0075
858,0.0068
859,0.0055
860,0.0065
861,0.0059
862,0.0066
863,0.0069
864,0.0061
865,0.0050
866,0.0066
867,0.0066
868,0.0053
869,0.0055
870,0.0062
871,0.0061
872,0.0060
873,0.0056
874,0.0060
875,0.0064
876,0.0071
877,0.0051
878,0.0062
879,0.0064
880,0.0053
881,0.0055
882,0.0067
883,0.0063
884,0.0060
885,0.0061
886,0.0070
887,0.0070
888,0.0061
889,0.0061
890,0.0078
891,0.0062
892,0.0065
893,0.0085
894,0.0069
895,0.0076
896,0.0081
897,0.0081
898,0.0081
899,0.0078
900,0.0070
901,0.0077
902,0.0056
903,0.0062
904,0.0077
905,0.0070
906,0.0075
907,0.0106
908,0.0094
909,0.0085
910,0.0078
911,0.0043
912,0.0086
913,0.0039
914,0.0076
915,0.0076
916,0.0090
917,0.0052
918,0.0052
919,0.0050
920,0.0078
921,0.0044
922,0.0047
923,0.0054
924,0.0058
925,0.0056
926,0.0044
927,0.0063
928,0.0049
929,0.0070
930,0.0040
931,0.0042
932,0.0029
933,0.0043
934,0.0064
935,0.0027
936,0.0022
937,0.0018
938,0.0023
939,0.0009
940,0.0020
941,0.0015
942,0.0025
943,0.0016
944,0.0016
945,0.0019
946,0.0000
947,0.0081
