382,NaN
383,0.6841
384,1.0000
385,0.1979
386,0.0000
387,0.0864
388,0.0553
389,0.0000
390,0.0218
391,0.0000
392,0.1302
393,0.0000
394,0.0000
395,0.0000
396,0.0957
397,0.1183
398,0.0000
399,0.0120
400,0.0348
401,0.2049
402,0.0000
403,0.0211
404,0.0989
405,0.0000
406,0.0255
407,0.0000
408,0.0000
409,0.0000
410,0.0998
411,0.0000
412,0.0000
413,0.0449
414,0.0000
415,0.0000
416,0.0000
417,0.0330
418,0.0000
419,0.0199
420,0.0508
421,0.0000
422,0.0000
423,0.0000
424,0.0038
425,0.0148
426,0.0215
427,0.0000
428,0.0000
429,0.0147
430,0.0360
431,0.0000
432,0.0067
433,0.0000
434,0.0000
435,0.0038
436,0.0000
437,0.0139
438,0.0235
439,0.0000
440,0.0051
441,0.0178
442,0.0122
443,0.0431
444,0.0000
445,0.0137
446,0.0128
447,0.0156
448,0.0038
449,0.0329
450,0.0200
451,0.0000
452,0.0000
453,0.0249
454,0.0128
455,0.0105
456,0.0046
457,0.0146
458,0.0261
459,0.0070
460,0.0253
461,0.0181
462,0.0014
463,0.0228
464,0.0000
465,0.0000
466,0.0111
467,0.0020
468,0.0232
469,0.0235
470,0.0121
471,0.0076
472,0.0232
473,0.0213
474,0.0176
475,0.0234
476,0.0120
477,0.0235
478,0.0153
479,0.0216
480,0.0158
481,0.0187
482,0.0131
483,0.0220
484,0.0091
485,0.0211
486,0.0098
487,0.0251
488,0.0174
489,0.0113
490,0.0267
491,0.0237
492,0.0160
493,0.0224
494,0.0206
495,0.0184
496,0.0170
497,0.0203
498,0.0219
499,0.0194
500,0.0182
501,0.0178
502,0.0203
503,0.0177
504,0.0199
505,0.0154
506,0.0222
507,0.0204
508,0.0163
509,0.0177
510,0.0196
511,0.0142
512,0.0145
513,0.0157
514,0.0138
515,0.0146
516,0.0152
517,0.0153
518,0.0145
519,0.0134
520,0.0148
521,0.0135
522,0.0137
523,0.0107
524,0.0110
525,0.0116
526,0.0122
527,0.0129
528,0.0130
529,0.0123
530,0.0124
531,0.0120
532,0.0132
533,0.0123
534,0.0125
535,0.0108
536,0.0111
537,0.0118
538,0.0116
539,0.0123
540,0.0142
541,0.0119
542,0.0115
543,0.0132
544,0.0126
545,0.0119
546,0.0132
547,0.0131
548,0.0132
549,0.0131
550,0.0125
551,0.0115
552,0.0117
553,0.0124
554,0.0131
555,0.0113
556,0.0130
557,0.0112
558,0.0124
559,0.0123
560,0.0119
561,0.0117
562,0.0137
563,0.0133
564,0.0126
565,0.0120
566,0.0121
567,0.0127
568,0.0124
569,0.0129
570,0.0132
571,0.0133
572,0.0132
573,0.0140
574,0.0121
575,0.0126
576,0.0129
577,0.0127
578,0.0124
579,0.0131
580,0.0133
581,0.0124
582,0.0130
583,0.0125
584,0.0126
585,0.0127
586,0.0121
587,0.0114
588,0.0127
589,0.0120
590,0.0123
591,0.0114
592,0.0131
593,0.0122
594,0.0118
595,0.0115
596,0.0129
597,0.0116
598,0.0125
599,0.0126
600,0.0122
601,0.0120
602,0.0120
603,0.0121
604,0.0121
605,0.0113
606,0.0117
607,0.0123
608,0.0121
609,0.0119
610,0.0122
611,0.0127
612,0.0126
613,0.0122
614,0.0120
615,0.0125
616,0.0118
617,0.0114
618,0.0118
619,0.0123
620,0.0123
621,0.0116
622,0.0123
623,0.0124
624,0.0119
625,0.0125
626,0.0128
627,0.0117
628,0.0115
629,0.0123
630,0.0125
631,0.0124
632,0.0110
633,0.0113
634,0.0115
635,0.0117
636,0.0117
637,0.0122
638,0.0112
639,0.0112
640,0.0118
641,0.0126
642,0.0121
643,0.0117
644,0.0123
645,0.0115
646,0.0124
647,0.0120
648,0.0123
649,0.0117
650,0.0115
651,0.0111
652,0.0116
653,0.0120
654,0.0110
655,0.0121
656,0.0112
657,0.0100
658,0.0117
659,0.0105
660,0.0105
661,0.0109
662,0.0110
663,0.0110
664,0.0109
665,0.0112
666,0.0101
667,0.0106
668,0.0109
669,0.0105
670,0.0110
671,0.0106
672,0.0112
673,0.0107
674,0.0103
675,0.0112
676,0.0106
677,0.0105
678,0.0110
679,0.0104
680,0.0098
681,0.0106
682,0.0099
683,0.0113
684,0.0107
685,0.0110
686,0.0104
687,0.0097
688,0.0106
689,0.0112
690,0.0109
691,0.0109
692,0.0104
693,0.0107
694,0.0107
695,0.0107
696,0.0106
697,0.0110
698,0.0108
699,0.0113
700,0.0107
701,0.0108
702,0.0108
703,0.0111
704,0.0101
705,0.0101
706,0.0102
707,0.0104
708,0.0106
709,0.0102
710,0.0103
711,0.0112
712,0.0102
713,0.0102
714,0.0106
715,0.0105
716,0.0101
717,0.0104
718,0.0106
719,0.0096
720,0.0104
721,0.0090
722,0.0091
723,0.0100
724,0.0091
725,0.0099
726,0.0094
727,0.0097
728,0.0087
729,0.0087
730,0.0087
731,0.0092
732,0.0094
733,0.0085
734,0.0099
735,0.0099
736,0.0088
737,0.0090
738,0.0090
739,0.0085
740,0.0084
741,0.0091
742,0.0088
743,0.0081
744,0.0092
745,0.0091
746,0.0091
747,0.0100
748,0.0096
749,0.0088
750,0.0082
751,0.0092
752,0.0090
753,0.0087
754,0.0092
755,0.0103
756,0.0087
757,0.0096
758,0.0085
759,0.0098
760,0.0089
761,0.0102
762,0.0088
763,0.0102
764,0.0097
765,0.0085
766,0.0092
767,0.0087
768,0.0093
769,0.0094
770,0.0089
771,0.0085
772,0.0086
773,0.0087
774,0.0093
775,0.0098
776,0.0091
777,0.0086
778,0.0089
779,0.0090
780,0.0086
781,0.0086
782,0.0085
783,0.0086
784,0.0086
785,0.0080
786,0.0093
787,0.0092
788,0.0102
789,0.0093
790,0.0080
791,0.0075
792,0.0086
793,0.0076
794,0.0083
795,0.0086
796,0.0080
797,0.0093
798,0.0084
799,0.0090
800,0.0086
801,0.0079
802,0.0085
803,0.0092
804,0.0088
805,0.0091
806,0.0078
807,0.0095
808,0.0104
809,0.0091
810,0.0098
811,0.0089
812,0.0084
813,0.0088
814,0.0090
815,0.0091
816,0.0101
817,0.0087
818,0.0096
819,0.0109
820,0.0113
821,0.0099
822,0.0094
823,0.0090
824,0.0101
825,0.0093
826,0.0082
827,0.0090
828,0.0088
829,0.0085
830,0.0088
831,0.0097
832,0.0084
833,0.0095
834,0.0098
835,0.0090
836,0.0091
837,0.0087
838,0.0083
839,0.0092
840,0.0087
841,0.0080
842,0.0090
843,0.0071
844,0.0073
845,0.0083
846,0.0076
847,0.0077
848,0.0076
849,0.0080
850,0.0079
851,0.0074
852,0.0083
853,0.0076
854,0.0085
855,0.0069
856,0.0069
857,0.0086
858,0.0083
859,0.0056
860,0.0070
861,0.0074
862,0.0077
863,0.0080
864,0.0070
865,0.0071
866,0.0085
867,0.0080
868,0.0069
869,0.0075
870,0.0062
871,0.0073
872,0.0071
873,0.0074
874,0.0076
875,0.0079
876,0.0081
877,0.0062
878,0.0069
879,0.0082
880,0.0077
881,0.0061
882,0.0074
883,0.0077
884,0.0071
885,0.0084
886,0.0072
887,0.0080
888,0.0063
889,0.0069
890,0.0082
891,0.0078
892,0.0072
893,0.0086
894,0.0081
895,0.0078
896,0.0095
897,0.0099
898,0.0090
899,0.0090
900,0.0087
901,0.0093
902,0.0065
903,0.0065
904,0.0109
905,0.0094
906,0.0088
907,0.0133
908,0.0123
909,0.0099
910,0.0103
911,0.0075
912,0.0103
913,0.0085
914,0.0085
915,0.0074
916,0.0115
917,0.0078
918,0.0075
919,0.0076
920,0.0094
921,0.0046
922,0.0062
923,0.0068
924,0.0082
925,0.0084
926,0.0057
927,0.0070
928,0.0054
929,0.0078
930,0.0065
931,0.0050
932,0.0043
933,0.0030
934,0.0039
935,0.0034
936,0.0010
937,0.0009
938,0.0030
939,0.0022
940,0.0012
941,0.0030
942,0.0024
943,0.0012
944,0.0017
945,0.0028
946,0.0009
947,0.0062
