382,NaN
383,1.0000
384,0.0000
385,0.0000
386,0.0000
387,0.0953
388,0.0000
389,0.0751
390,0.0000
391,0.0788
392,0.1618
393,0.0478
394,0.0000
395,0.0000
396,0.1575
397,0.0000
398,0.0000
399,0.0000
400,0.0000
401,0.2014
402,0.0000
403,0.0425
404,0.0000
405,0.0212
406,0.0000
407,0.0280
408,0.0000
409,0.0795
410,0.0668
411,0.0478
412,0.0905
413,0.0000
414,0.0000
415,0.0168
416,0.0000
417,0.0658
418,0.0000
419,0.0155
420,0.0000
421,0.0288
422,0.0084
423,0.0279
424,0.0000
425,0.0000
426,0.0529
427,0.0156
428,0.0000
429,0.0015
430,0.0098
431,0.0020
432,0.0013
433,0.0039
434,0.0118
435,0.0000
436,0.0189
437,0.0289
438,0.0277
439,0.0000
440,0.0072
441,0.0321
442,0.0151
443,0.0434
444,0.0299
445,0.0270
446,0.0037
447,0.0175
448,0.0098
449,0.0311
450,0.0190
451,0.0044
452,0.0067
453,0.0325
454,0.0256
455,0.0213
456,0.0210
457,0.0206
458,0.0219
459,0.0115
460,0.0020
461,0.0202
462,0.0115
463,0.0257
464,0.0176
465,0.0050
466,0.0160
467,0.0144
468,0.0164
469,0.0350
470,0.0209
471,0.0195
472,0.0274
473,0.0232
474,0.0179
475,0.0319
476,0.0214
477,0.0369
478,0.0297
479,0.0353
480,0.0300
481,0.0320
482,0.0257
483,0.0282
484,0.0227
485,0.0383
486,0.0199
487,0.0327
488,0.0213
489,0.0232
490,0.0289
491,0.0332
492,0.0281
493,0.0391
494,0.0260
495,0.0315
496,0.0305
497,0.0308
498,0.0335
499,0.0342
500,0.0329
501,0.0281
502,0.0286
503,0.0251
504,0.0303
505,0.0273
506,0.0280
507,0.0313
508,0.0272
509,0.0275
510,0.0256
511,0.0232
512,0.0230
513,0.0229
514,0.0215
515,0.0224
516,0.0216
517,0.0218
518,0.0192
519,0.0208
520,0.0209
521,0.0188
522,0.0190
523,0.0201
524,0.0186
525,0.0160
526,0.0206
527,0.0194
528,0.0190
529,0.0194
530,0.0190
531,0.0185
532,0.0190
533,0.0186
534,0.0198
535,0.0177
536,0.0184
537,0.0188
538,0.0180
539,0.0183
540,0.0190
541,0.0182
542,0.0189
543,0.0187
544,0.0174
545,0.0185
546,0.0189
547,0.0192
548,0.0177
549,0.0188
550,0.0200
551,0.0184
552,0.0179
553,0.0184
554,0.0189
555,0.0196
556,0.0188
557,0.0191
558,0.0191
559,0.0192
560,0.0183
561,0.0178
562,0.0184
563,0.0197
564,0.0189
565,0.0197
566,0.0183
567,0.0195
568,0.0187
569,0.0209
570,0.0201
571,0.0208
572,0.0204
573,0.0199
574,0.0214
575,0.0186
576,0.0203
577,0.0197
578,0.0194
579,0.0209
580,0.0201
581,0.0180
582,0.0185
583,0.0186
584,0.0187
585,0.0201
586,0.0194
587,0.0187
588,0.0191
589,0.0179
590,0.0187
591,0.0181
592,0.0190
593,0.0193
594,0.0195
595,0.0184
596,0.0186
597,0.0178
598,0.0184
599,0.0186
600,0.0180
601,0.0185
602,0.0192
603,0.0177
604,0.0188
605,0.0178
606,0.0180
607,0.0188
608,0.0191
609,0.0183
610,0.0183
611,0.0187
612,0.0188
613,0.0197
614,0.0190
615,0.0195
616,0.0186
617,0.0174
618,0.0189
619,0.0184
620,0.0181
621,0.0185
622,0.0187
623,0.0194
624,0.0189
625,0.0186
626,0.0179
627,0.0194
628,0.0191
629,0.0198
630,0.0200
631,0.0189
632,0.0179
633,0.0175
634,0.0187
635,0.0177
636,0.0183
637,0.0192
638,0.0173
639,0.0186
640,0.0184
641,0.0191
642,0.0181
643,0.0188
644,0.0184
645,0.0191
646,0.0191
647,0.0182
648,0.0185
649,0.0180
650,0.0174
651,0.0179
652,0.0177
653,0.0182
654,0.0173
655,0.0180
656,0.0171
657,0.0163
658,0.0172
659,0.0163
660,0.0168
661,0.0167
662,0.0172
663,0.0179
664,0.0168
665,0.0173
666,0.0162
667,0.0168
668,0.0165
669,0.0164
670,0.0177
671,0.0172
672,0.0166
673,0.0168
674,0.0163
675,0.0169
676,0.0170
677,0.0160
678,0.0168
679,0.0158
680,0.0159
681,0.0163
682,0.0166
683,0.0166
684,0.0171
685,0.0162
686,0.0176
687,0.0169
688,0.0171
689,0.0170
690,0.0169
691,0.0169
692,0.0177
693,0.0174
694,0.0173
695,0.0167
696,0.0173
697,0.0184
698,0.0172
699,0.0170
700,0.0169
701,0.0165
702,0.0165
703,0.0166
704,0.0160
705,0.0167
706,0.0167
707,0.0162
708,0.0165
709,0.0172
710,0.0165
711,0.0172
712,0.0167
713,0.0160
714,0.0158
715,0.0166
716,0.0161
717,0.0159
718,0.0155
719,0.0160
720,0.0156
721,0.0150
722,0.0148
723,0.0150
724,0.0150
725,0.0151
726,0.0152
727,0.0160
728,0.0150
729,0.0145
730,0.0141
731,0.0143
732,0.0150
733,0.0144
734,0.0148
735,0.0140
736,0.0145
737,0.0146
738,0.0147
739,0.0143
740,0.0135
741,0.0153
742,0.0144
743,0.0143
744,0.0142
745,0.0142
746,0.0146
747,0.0144
748,0.0145
749,0.0146
750,0.0134
751,0.0147
752,0.0140
753,0.0150
754,0.0135
755,0.0135
756,0.0142
757,0.0150
758,0.0142
759,0.0148
760,0.0144
761,0.0145
762,0.0138
763,0.0156
764,0.0150
765,0.0141
766,0.0143
767,0.0140
768,0.0147
769,0.0137
770,0.0138
771,0.0144
772,0.0140
773,0.0142
774,0.0147
775,0.0140
776,0.0147
777,0.0143
778,0.0141
779,0.0143
780,0.0141
781,0.0149
782,0.0142
783,0.0137
784,0.0132
785,0.0135
786,0.0145
787,0.0143
788,0.0148
789,0.0136
790,0.0136
791,0.0127
792,0.0142
793,0.0129
794,0.0143
795,0.0136
796,0.0132
797,0.0147
798,0.0138
799,0.0150
800,0.0143
801,0.0138
802,0.0134
803,0.0147
804,0.0146
805,0.0141
806,0.0137
807,0.0154
808,0.0153
809,0.0147
810,0.0149
811,0.0158
812,0.0145
813,0.0147
814,0.0146
815,0.0143
816,0.0157
817,0.0153
818,0.0154
819,0.0165
820,0.0172
821,0.0160
822,0.0150
823,0.0144
824,0.0156
825,0.0171
826,0.0141
827,0.0141
828,0.0139
829,0.0144
830,0.0143
831,0.0157
832,0.0145
833,0.0144
834,0.0136
835,0.0136
836,0.0137
837,0.0138
838,0.0143
839,0.0129
840,0.0123
841,0.0132
842,0.0140
843,0.0125
844,0.0139
845,0.0139
846,0.0118
847,0.0123
848,0.0100
849,0.0124
850,0.0120
851,0.0138
852,0.0129
853,0.0133
854,0.0142
855,0.0131
856,0.0120
857,0.0129
858,0.0120
859,0.0104
860,0.0116
861,0.0117
862,0.0132
863,0.0129
864,0.0110
865,0.0119
866,0.0112
867,0.0134
868,0.0111
869,0.0104
870,0.0111
871,0.0105
872,0.0119
873,0.0117
874,0.0112
875,0.0115
876,0.0113
877,0.0128
878,0.0118
879,0.0119
880,0.0120
881,0.0100
882,0.0119
883,0.0136
884,0.0114
885,0.0112
886,0.0121
887,0.0111
888,0.0118
889,0.0122
890,0.0137
891,0.0117
892,0.0131
893,0.0144
894,0.0158
895,0.0160
896,0.0138
897,0.0144
898,0.0134
899,0.0138
900,0.0152
901,0.0147
902,0.0134
903,0.0138
904,0.0158
905,0.0161
906,0.0153
907,0.0161
908,0.0166
909,0.0160
910,0.0169
911,0.0153
912,0.0162
913,0.0144
914,0.0131
915,0.0138
916,0.0163
917,0.0131
918,0.0119
919,0.0140
920,0.0127
921,0.0104
922,0.0118
923,0.0119
924,0.0125
925,0.0120
926,0.0113
927,0.0115
928,0.0092
929,0.0099
930,0.0112
931,0.0076
932,0.0094
933,0.0083
934,0.0066
935,0.0072
936,0.0033
937,0.0057
938,0.0048
939,0.0026
940,0.0039
941,0.0014
942,0.0046
943,0.0015
944,0.0029
945,0.0046
946,0.0022
947,0.0099
