382,NaN
383,0.9726
384,0.0000
385,0.0000
386,0.0000
387,0.1121
388,0.1223
389,0.0000
390,0.0000
391,0.0000
392,0.1284
393,0.0000
394,0.0000
395,0.0118
396,0.0799
397,0.0951
398,0.0000
399,0.0000
400,0.0979
401,0.3294
402,0.0000
403,0.0000
404,0.0000
405,0.0000
406,0.0358
407,0.0752
408,0.0728
409,0.0000
410,0.0196
411,0.0121
412,0.0603
413,0.0000
414,0.0000
415,0.0419
416,0.0000
417,0.0000
418,0.0137
419,0.0000
420,0.0232
421,0.0000
422,0.0000
423,0.0143
424,0.0000
425,0.0000
426,0.0476
427,0.0000
428,0.0295
429,0.0185
430,0.0146
431,0.0448
432,0.0277
433,0.0129
434,0.0119
435,0.0000
436,0.0268
437,0.0415
438,0.0018
439,0.0117
440,0.0211
441,0.0177
442,0.0189
443,0.0472
444,0.0205
445,0.0338
446,0.0000
447,0.0132
448,0.0000
449,0.0237
450,0.0089
451,0.0000
452,0.0079
453,0.0279
454,0.0186
455,0.0208
456,0.0143
457,0.0073
458,0.0268
459,0.0135
460,0.0206
461,0.0267
462,0.0189
463,0.0227
464,0.0122
465,0.0097
466,0.0130
467,0.0217
468,0.0204
469,0.0295
470,0.0185
471,0.0079
472,0.0319
473,0.0232
474,0.0172
475,0.0333
476,0.0259
477,0.0321
478,0.0325
479,0.0365
480,0.0320
481,0.0239
482,0.0263
483,0.0247
484,0.0236
485,0.0253
486,0.0260
487,0.0357
488,0.0258
489,0.0248
490,0.0276
491,0.0220
492,0.0213
493,0.0330
494,0.0310
495,0.0319
496,0.0275
497,0.0279
498,0.0324
499,0.0320
500,0.0294
501,0.0342
502,0.0314
503,0.0272
504,0.0245
505,0.0281
506,0.0304
507,0.0296
508,0.0298
509,0.0255
510,0.0295
511,0.0234
512,0.0245
513,0.0235
514,0.0248
515,0.0225
516,0.0229
517,0.0246
518,0.0176
519,0.0203
520,0.0224
521,0.0170
522,0.0184
523,0.0186
524,0.0198
525,0.0185
526,0.0182
527,0.0190
528,0.0191
529,0.0202
530,0.0178
531,0.0187
532,0.0190
533,0.0180
534,0.0197
535,0.0167
536,0.0192
537,0.0184
538,0.0187
539,0.0194
540,0.0179
541,0.0169
542,0.0180
543,0.0188
544,0.0170
545,0.0193
546,0.0207
547,0.0201
548,0.0175
549,0.0177
550,0.0198
551,0.0188
552,0.0184
553,0.0190
554,0.0194
555,0.0183
556,0.0185
557,0.0194
558,0.0182
559,0.0184
560,0.0194
561,0.0186
562,0.0196
563,0.0185
564,0.0184
565,0.0194
566,0.0185
567,0.0196
568,0.0191
569,0.0190
570,0.0210
571,0.0199
572,0.0201
573,0.0202
574,0.0196
575,0.0192
576,0.0201
577,0.0195
578,0.0195
579,0.0207
580,0.0208
581,0.0204
582,0.0190
583,0.0189
584,0.0193
585,0.0193
586,0.0184
587,0.0187
588,0.0194
589,0.0186
590,0.0198
591,0.0181
592,0.0190
593,0.0181
594,0.0189
595,0.0177
596,0.0178
597,0.0179
598,0.0185
599,0.0189
600,0.0181
601,0.0183
602,0.0191
603,0.0185
604,0.0182
605,0.0181
606,0.0181
607,0.0188
608,0.0192
609,0.0189
610,0.0182
611,0.0189
612,0.0187
613,0.0181
614,0.0187
615,0.0189
616,0.0181
617,0.0182
618,0.0186
619,0.0187
620,0.0182
621,0.0185
622,0.0185
623,0.0187
624,0.0183
625,0.0174
626,0.0180
627,0.0189
628,0.0193
629,0.0193
630,0.0187
631,0.0185
632,0.0180
633,0.0187
634,0.0184
635,0.0177
636,0.0177
637,0.0186
638,0.0179
639,0.0180
640,0.0191
641,0.0194
642,0.0183
643,0.0183
644,0.0184
645,0.0182
646,0.0179
647,0.0179
648,0.0185
649,0.0171
650,0.0177
651,0.0175
652,0.0184
653,0.0183
654,0.0171
655,0.0171
656,0.0177
657,0.0172
658,0.0174
659,0.0165
660,0.0158
661,0.0165
662,0.0170
663,0.0175
664,0.0164
665,0.0170
666,0.0158
667,0.0172
668,0.0161
669,0.0169
670,0.0167
671,0.0177
672,0.0170
673,0.0166
674,0.0171
675,0.0171
676,0.0173
677,0.0163
678,0.0172
679,0.0166
680,0.0171
681,0.0162
682,0.0173
683,0.0171
684,0.0174
685,0.0168
686,0.0172
687,0.0164
688,0.0170
689,0.0182
690,0.0169
691,0.0175
692,0.0166
693,0.0163
694,0.0178
695,0.0169
696,0.0169
697,0.0174
698,0.0166
699,0.0173
700,0.0175
701,0.0172
702,0.0174
703,0.0168
704,0.0163
705,0.0159
706,0.0164
707,0.0158
708,0.0164
709,0.0170
710,0.0162
711,0.0167
712,0.0157
713,0.0160
714,0.0158
715,0.0161
716,0.0162
717,0.0164
718,0.0158
719,0.0165
720,0.0161
721,0.0146
722,0.0149
723,0.0159
724,0.0150
725,0.0142
726,0.0156
727,0.0149
728,0.0141
729,0.0150
730,0.0146
731,0.0146
732,0.0148
733,0.0146
734,0.0148
735,0.0151
736,0.0146
737,0.0149
738,0.0142
739,0.0146
740,0.0139
741,0.0141
742,0.0143
743,0.0140
744,0.0144
745,0.0141
746,0.0148
747,0.0144
748,0.0148
749,0.0141
750,0.0138
751,0.0143
752,0.0138
753,0.0143
754,0.0146
755,0.0140
756,0.0139
757,0.0147
758,0.0141
759,0.0146
760,0.0146
761,0.0138
762,0.0147
763,0.0146
764,0.0148
765,0.0149
766,0.0134
767,0.0144
768,0.0144
769,0.0145
770,0.0137
771,0.0146
772,0.0137
773,0.0141
774,0.0144
775,0.0144
776,0.0150
777,0.0137
778,0.0137
779,0.0150
780,0.0141
781,0.0139
782,0.0145
783,0.0142
784,0.0148
785,0.0141
786,0.0142
787,0.0142
788,0.0139
789,0.0145
790,0.0139
791,0.0124
792,0.0142
793,0.0133
794,0.0137
795,0.0141
796,0.0137
797,0.0142
798,0.0124
799,0.0134
800,0.0144
801,0.0136
802,0.0138
803,0.0146
804,0.0139
805,0.0137
806,0.0143
807,0.0153
808,0.0150
809,0.0153
810,0.0152
811,0.0153
812,0.0139
813,0.0144
814,0.0148
815,0.0146
816,0.0150
817,0.0154
818,0.0153
819,0.0161
820,0.0149
821,0.0165
822,0.0147
823,0.0149
824,0.0149
825,0.0158
826,0.0152
827,0.0144
828,0.0143
829,0.0150
830,0.0144
831,0.0151
832,0.0141
833,0.0136
834,0.0152
835,0.0141
836,0.0136
837,0.0132
838,0.0128
839,0.0129
840,0.0127
841,0.0130
842,0.0139
843,0.0132
844,0.0132
845,0.0127
846,0.0123
847,0.0123
848,0.0129
849,0.0132
850,0.0121
851,0.0131
852,0.0132
853,0.0131
854,0.0135
855,0.0129
856,0.0132
857,0.0128
858,0.0123
859,0.0117
860,0.0118
861,0.0123
862,0.0113
863,0.0137
864,0.0118
865,0.0125
866,0.0130
867,0.0122
868,0.0107
869,0.0107
870,0.0120
871,0.0099
872,0.0126
873,0.0107
874,0.0114
875,0.0123
876,0.0121
877,0.0119
878,0.0100
879,0.0121
880,0.0117
881,0.0121
882,0.0137
883,0.0122
884,0.0108
885,0.0119
886,0.0121
887,0.0130
888,0.0121
889,0.0119
890,0.0147
891,0.0114
892,0.0120
893,0.0155
894,0.0150
895,0.0134
896,0.0129
897,0.0141
898,0.0140
899,0.0141
900,0.0159
901,0.0154
902,0.0128
903,0.0133
904,0.0156
905,0.0154
906,0.0156
907,0.0176
908,0.0187
909,0.0160
910,0.0147
911,0.0145
912,0.0168
913,0.0148
914,0.0150
915,0.0133
916,0.0153
917,0.0133
918,0.0131
919,0.0130
920,0.0161
921,0.0102
922,0.0134
923,0.0125
924,0.0087
925,0.0115
926,0.0108
927,0.0109
928,0.0102
929,0.0114
930,0.0096
931,0.0086
932,0.0074
933,0.0065
934,0.0068
935,0.0074
936,0.0042
937,0.0043
938,0.0048
939,0.0052
940,0.0043
941,0.0036
942,0.0039
943,0.0020
944,0.0022
945,0.0030
946,0.0024
947,0.0072
