382,NaN
383,1.0000
384,0.0000
385,1.0000
386,0.0000
387,0.2359
388,0.1072
389,0.0000
390,0.0000
391,0.3043
392,0.1193
393,0.0729
394,0.0000
395,0.0000
396,0.0738
397,0.0000
398,0.0641
399,0.0000
400,0.0000
401,0.2433
402,0.0000
403,0.0380
404,0.0000
405,0.0000
406,0.0000
407,0.0158
408,0.0253
409,0.0335
410,0.0380
411,0.0473
412,0.0712
413,0.0000
414,0.0983
415,0.0352
416,0.0000
417,0.0000
418,0.0000
419,0.0371
420,0.0527
421,0.0143
422,0.0000
423,0.0000
424,0.0043
425,0.0225
426,0.0326
427,0.0000
428,0.0000
429,0.0284
430,0.0000
431,0.0088
432,0.0535
433,0.0000
434,0.0000
435,0.0335
436,0.0229
437,0.0431
438,0.0376
439,0.0116
440,0.0438
441,0.0218
442,0.0149
443,0.0221
444,0.0167
445,0.0299
446,0.0222
447,0.0122
448,0.0000
449,0.0000
450,0.0203
451,0.0045
452,0.0000
453,0.0361
454,0.0180
455,0.0183
456,0.0168
457,0.0047
458,0.0209
459,0.0082
460,0.0244
461,0.0316
462,0.0108
463,0.0375
464,0.0152
465,0.0000
466,0.0205
467,0.0164
468,0.0140
469,0.0287
470,0.0191
471,0.0133
472,0.0326
473,0.0176
474,0.0226
475,0.0256
476,0.0335
477,0.0401
478,0.0304
479,0.0456
480,0.0337
481,0.0251
482,0.0266
483,0.0278
484,0.0262
485,0.0295
486,0.0244
487,0.0314
488,0.0277
489,0.0217
490,0.0306
491,0.0347
492,0.0253
493,0.0334
494,0.0324
495,0.0331
496,0.0354
497,0.0341
498,0.0334
499,0.0335
500,0.0309
501,0.0282
502,0.0325
503,0.0287
504,0.0288
505,0.0204
506,0.0282
507,0.0294
508,0.0259
509,0.0270
510,0.0275
511,0.0196
512,0.0220
513,0.0246
514,0.0223
515,0.0228
516,0.0208
517,0.0234
518,0.0189
519,0.0211
520,0.0222
521,0.0195
522,0.0207
523,0.0204
524,0.0220
525,0.0181
526,0.0212
527,0.0205
528,0.0185
529,0.0178
530,0.0177
531,0.0190
532,0.0185
533,0.0177
534,0.0195
535,0.0190
536,0.0198
537,0.0195
538,0.0182
539,0.0197
540,0.0202
541,0.0203
542,0.0198
543,0.0183
544,0.0175
545,0.0189
546,0.0200
547,0.0201
548,0.0200
549,0.0183
550,0.0191
551,0.0183
552,0.0193
553,0.0183
554,0.0203
555,0.0183
556,0.0193
557,0.0192
558,0.0181
559,0.0194
560,0.0189
561,0.0208
562,0.0207
563,0.0202
564,0.0202
565,0.0196
566,0.0186
567,0.0204
568,0.0201
569,0.0212
570,0.0198
571,0.0216
572,0.0204
573,0.0196
574,0.0207
575,0.0197
576,0.0206
577,0.0203
578,0.0205
579,0.0206
580,0.0199
581,0.0190
582,0.0192
583,0.0190
584,0.0192
585,0.0192
586,0.0191
587,0.0189
588,0.0198
589,0.0189
590,0.0197
591,0.0187
592,0.0193
593,0.0191
594,0.0197
595,0.0187
596,0.0188
597,0.0176
598,0.0183
599,0.0193
600,0.0190
601,0.0182
602,0.0187
603,0.0186
604,0.0191
605,0.0186
606,0.0178
607,0.0191
608,0.0190
609,0.0195
610,0.0187
611,0.0191
612,0.0191
613,0.0183
614,0.0185
615,0.0188
616,0.0194
617,0.0182
618,0.0192
619,0.0194
620,0.0186
621,0.0188
622,0.0197
623,0.0195
624,0.0188
625,0.0189
626,0.0195
627,0.0191
628,0.0196
629,0.0189
630,0.0188
631,0.0192
632,0.0183
633,0.0192
634,0.0194
635,0.0186
636,0.0193
637,0.0187
638,0.0176
639,0.0186
640,0.0198
641,0.0191
642,0.0184
643,0.0189
644,0.0183
645,0.0185
646,0.0188
647,0.0184
648,0.0185
649,0.0181
650,0.0171
651,0.0182
652,0.0182
653,0.0183
654,0.0175
655,0.0170
656,0.0177
657,0.0172
658,0.0176
659,0.0167
660,0.0169
661,0.0170
662,0.0177
663,0.0178
664,0.0171
665,0.0173
666,0.0169
667,0.0171
668,0.0170
669,0.0181
670,0.0171
671,0.0172
672,0.0175
673,0.0173
674,0.0169
675,0.0172
676,0.0178
677,0.0167
678,0.0181
679,0.0164
680,0.0171
681,0.0163
682,0.0172
683,0.0172
684,0.0173
685,0.0164
686,0.0171
687,0.0163
688,0.0173
689,0.0171
690,0.0170
691,0.0176
692,0.0172
693,0.0173
694,0.0169
695,0.0165
696,0.0173
697,0.0174
698,0.0169
699,0.0167
700,0.0177
701,0.0168
702,0.0179
703,0.0167
704,0.0162
705,0.0161
706,0.0158
707,0.0160
708,0.0172
709,0.0173
710,0.0164
711,0.0170
712,0.0159
713,0.0166
714,0.0167
715,0.0169
716,0.0167
717,0.0165
718,0.0165
719,0.0165
720,0.0163
721,0.0148
722,0.0149
723,0.0164
724,0.0156
725,0.0151
726,0.0146
727,0.0163
728,0.0145
729,0.0148
730,0.0150
731,0.0140
732,0.0144
733,0.0151
734,0.0150
735,0.0150
736,0.0147
737,0.0142
738,0.0149
739,0.0143
740,0.0150
741,0.0142
742,0.0145
743,0.0136
744,0.0142
745,0.0144
746,0.0144
747,0.0148
748,0.0156
749,0.0141
750,0.0137
751,0.0146
752,0.0141
753,0.0154
754,0.0144
755,0.0156
756,0.0142
757,0.0149
758,0.0144
759,0.0149
760,0.0150
761,0.0150
762,0.0137
763,0.0155
764,0.0146
765,0.0151
766,0.0150
767,0.0137
768,0.0147
769,0.0148
770,0.0138
771,0.0153
772,0.0143
773,0.0139
774,0.0146
775,0.0149
776,0.0150
777,0.0140
778,0.0138
779,0.0142
780,0.0139
781,0.0136
782,0.0138
783,0.0146
784,0.0133
785,0.0143
786,0.0140
787,0.0144
788,0.0134
789,0.0145
790,0.0137
791,0.0129
792,0.0139
793,0.0133
794,0.0141
795,0.0138
796,0.0135
797,0.0147
798,0.0145
799,0.0140
800,0.0144
801,0.0140
802,0.0141
803,0.0144
804,0.0157
805,0.0141
806,0.0143
807,0.0153
808,0.0154
809,0.0150
810,0.0165
811,0.0149
812,0.0154
813,0.0156
814,0.0152
815,0.0156
816,0.0145
817,0.0156
818,0.0144
819,0.0164
820,0.0169
821,0.0160
822,0.0166
823,0.0155
824,0.0158
825,0.0161
826,0.0149
827,0.0137
828,0.0139
829,0.0143
830,0.0151
831,0.0151
832,0.0145
833,0.0150
834,0.0142
835,0.0144
836,0.0138
837,0.0145
838,0.0141
839,0.0122
840,0.0131
841,0.0132
842,0.0139
843,0.0126
844,0.0142
845,0.0140
846,0.0123
847,0.0119
848,0.0114
849,0.0133
850,0.0120
851,0.0141
852,0.0133
853,0.0124
854,0.0140
855,0.0131
856,0.0125
857,0.0127
858,0.0113
859,0.0110
860,0.0117
861,0.0118
862,0.0137
863,0.0136
864,0.0128
865,0.0102
866,0.0129
867,0.0130
868,0.0112
869,0.0130
870,0.0122
871,0.0114
872,0.0119
873,0.0120
874,0.0119
875,0.0132
876,0.0129
877,0.0125
878,0.0116
879,0.0118
880,0.0128
881,0.0111
882,0.0118
883,0.0115
884,0.0124
885,0.0140
886,0.0123
887,0.0134
888,0.0113
889,0.0127
890,0.0145
891,0.0111
892,0.0144
893,0.0162
894,0.0158
895,0.0132
896,0.0150
897,0.0149
898,0.0149
899,0.0143
900,0.0157
901,0.0167
902,0.0154
903,0.0135
904,0.0158
905,0.0148
906,0.0159
907,0.0176
908,0.0175
909,0.0151
910,0.0163
911,0.0124
912,0.0174
913,0.0115
914,0.0153
915,0.0131
916,0.0145
917,0.0136
918,0.0139
919,0.0147
920,0.0139
921,0.0098
922,0.0115
923,0.0101
924,0.0114
925,0.0118
926,0.0105
927,0.0123
928,0.0082
929,0.0125
930,0.0097
931,0.0101
932,0.0089
933,0.0065
934,0.0077
935,0.0064
936,0.0057
937,0.0038
938,0.0055
939,0.0033
940,0.0049
941,0.0028
942,0.0038
943,0.0012
944,0.0027
945,0.0037
946,0.0008
947,0.0081
