382,NaN
383,0.8122
384,0.0093
385,0.7432
386,0.0260
387,0.1407
388,0.0624
389,0.0313
390,0.0000
391,0.1403
392,0.2195
393,0.0351
394,0.0266
395,0.0000
396,0.0082
397,0.0000
398,0.0503
399,0.0509
400,0.0916
401,0.1387
402,0.0000
403,0.0881
404,0.0775
405,0.0201
406,0.0028
407,0.0000
408,0.0236
409,0.0000
410,0.1043
411,0.0681
412,0.0306
413,0.0214
414,0.0366
415,0.0423
416,0.0000
417,0.0000
418,0.0000
419,0.0135
420,0.0167
421,0.0000
422,0.0000
423,0.0158
424,0.0000
425,0.0242
426,0.0242
427,0.0211
428,0.0000
429,0.0253
430,0.0374
431,0.0523
432,0.0042
433,0.0329
434,0.0000
435,0.0385
436,0.0283
437,0.0371
438,0.0280
439,0.0068
440,0.0263
441,0.0415
442,0.0311
443,0.0366
444,0.0208
445,0.0084
446,0.0243
447,0.0208
448,0.0218
449,0.0196
450,0.0200
451,0.0043
452,0.0165
453,0.0327
454,0.0376
455,0.0211
456,0.0185
457,0.0247
458,0.0237
459,0.0128
460,0.0347
461,0.0257
462,0.0197
463,0.0384
464,0.0171
465,0.0030
466,0.0238
467,0.0160
468,0.0181
469,0.0264
470,0.0237
471,0.0045
472,0.0265
473,0.0284
474,0.0254
475,0.0294
476,0.0241
477,0.0411
478,0.0342
479,0.0353
480,0.0308
481,0.0190
482,0.0285
483,0.0350
484,0.0264
485,0.0349
486,0.0332
487,0.0400
488,0.0292
489,0.0230
490,0.0351
491,0.0341
492,0.0287
493,0.0392
494,0.0344
495,0.0396
496,0.0380
497,0.0339
498,0.0358
499,0.0314
500,0.0350
501,0.0290
502,0.0351
503,0.0311
504,0.0344
505,0.0269
506,0.0277
507,0.0326
508,0.0274
509,0.0282
510,0.0288
511,0.0270
512,0.0256
513,0.0269
514,0.0232
515,0.0233
516,0.0226
517,0.0265
518,0.0234
519,0.0226
520,0.0237
521,0.0210
522,0.0219
523,0.0193
524,0.0213
525,0.0208
526,0.0216
527,0.0226
528,0.0206
529,0.0205
530,0.0203
531,0.0212
532,0.0201
533,0.0208
534,0.0210
535,0.0203
536,0.0215
537,0.0208
538,0.0207
539,0.0209
540,0.0204
541,0.0202
542,0.0206
543,0.0211
544,0.0196
545,0.0196
546,0.0219
547,0.0212
548,0.0194
549,0.0206
550,0.0199
551,0.0212
552,0.0217
553,0.0198
554,0.0216
555,0.0200
556,0.0205
557,0.0210
558,0.0215
559,0.0204
560,0.0207
561,0.0206
562,0.0206
563,0.0204
564,0.0213
565,0.0222
566,0.0196
567,0.0212
568,0.0218
569,0.0219
570,0.0227
571,0.0221
572,0.0214
573,0.0226
574,0.0221
575,0.0213
576,0.0228
577,0.0208
578,0.0212
579,0.0218
580,0.0219
581,0.0210
582,0.0210
583,0.0220
584,0.0211
585,0.0210
586,0.0201
587,0.0211
588,0.0212
589,0.0202
590,0.0206
591,0.0209
592,0.0208
593,0.0203
594,0.0210
595,0.0204
596,0.0212
597,0.0189
598,0.0205
599,0.0212
600,0.0196
601,0.0195
602,0.0204
603,0.0213
604,0.0207
605,0.0202
606,0.0196
607,0.0206
608,0.0202
609,0.0211
610,0.0205
611,0.0198
612,0.0209
613,0.0200
614,0.0199
615,0.0205
616,0.0212
617,0.0197
618,0.0196
619,0.0203
620,0.0201
621,0.0197
622,0.0212
623,0.0211
624,0.0208
625,0.0201
626,0.0195
627,0.0209
628,0.0204
629,0.0204
630,0.0207
631,0.0215
632,0.0196
633,0.0192
634,0.0203
635,0.0198
636,0.0207
637,0.0201
638,0.0190
639,0.0195
640,0.0205
641,0.0210
642,0.0202
643,0.0195
644,0.0206
645,0.0202
646,0.0202
647,0.0202
648,0.0203
649,0.0194
650,0.0184
651,0.0186
652,0.0203
653,0.0198
654,0.0187
655,0.0198
656,0.0182
657,0.0180
658,0.0185
659,0.0187
660,0.0185
661,0.0180
662,0.0191
663,0.0189
664,0.0185
665,0.0188
666,0.0183
667,0.0188
668,0.0181
669,0.0187
670,0.0189
671,0.0193
672,0.0189
673,0.0183
674,0.0184
675,0.0185
676,0.0187
677,0.0183
678,0.0187
679,0.0174
680,0.0180
681,0.0181
682,0.0180
683,0.0189
684,0.0190
685,0.0182
686,0.0186
687,0.0170
688,0.0184
689,0.0189
690,0.0185
691,0.0191
692,0.0185
693,0.0189
694,0.0188
695,0.0190
696,0.0183
697,0.0187
698,0.0186
699,0.0193
700,0.0190
701,0.0192
702,0.0184
703,0.0181
704,0.0180
705,0.0187
706,0.0184
707,0.0174
708,0.0180
709,0.0184
710,0.0178
711,0.0184
712,0.0177
713,0.0179
714,0.0183
715,0.0183
716,0.0182
717,0.0187
718,0.0178
719,0.0180
720,0.0177
721,0.0164
722,0.0163
723,0.0175
724,0.0168
725,0.0165
726,0.0167
727,0.0170
728,0.0169
729,0.0169
730,0.0167
731,0.0162
732,0.0161
733,0.0158
734,0.0160
735,0.0166
736,0.0164
737,0.0164
738,0.0155
739,0.0159
740,0.0152
741,0.0165
742,0.0162
743,0.0157
744,0.0161
745,0.0159
746,0.0156
747,0.0158
748,0.0167
749,0.0151
750,0.0153
751,0.0159
752,0.0162
753,0.0163
754,0.0154
755,0.0158
756,0.0161
757,0.0164
758,0.0154
759,0.0160
760,0.0157
761,0.0157
762,0.0158
763,0.0157
764,0.0163
765,0.0165
766,0.0165
767,0.0152
768,0.0155
769,0.0151
770,0.0156
771,0.0170
772,0.0159
773,0.0160
774,0.0157
775,0.0157
776,0.0160
777,0.0162
778,0.0157
779,0.0164
780,0.0153
781,0.0155
782,0.0149
783,0.0152
784,0.0150
785,0.0166
786,0.0159
787,0.0158
788,0.0156
789,0.0151
790,0.0156
791,0.0142
792,0.0156
793,0.0142
794,0.0154
795,0.0152
796,0.0159
797,0.0161
798,0.0148
799,0.0154
800,0.0156
801,0.0154
802,0.0146
803,0.0166
804,0.0162
805,0.0156
806,0.0159
807,0.0167
808,0.0158
809,0.0162
810,0.0177
811,0.0161
812,0.0158
813,0.0159
814,0.0156
815,0.0161
816,0.0158
817,0.0169
818,0.0153
819,0.0173
820,0.0183
821,0.0167
822,0.0173
823,0.0180
824,0.0154
825,0.0179
826,0.0174
827,0.0158
828,0.0160
829,0.0157
830,0.0158
831,0.0161
832,0.0166
833,0.0156
834,0.0160
835,0.0154
836,0.0153
837,0.0157
838,0.0149
839,0.0156
840,0.0138
841,0.0141
842,0.0142
843,0.0133
844,0.0145
845,0.0141
846,0.0137
847,0.0139
848,0.0154
849,0.0143
850,0.0145
851,0.0148
852,0.0133
853,0.0136
854,0.0144
855,0.0139
856,0.0125
857,0.0145
858,0.0144
859,0.0124
860,0.0132
861,0.0129
862,0.0137
863,0.0155
864,0.0125
865,0.0126
866,0.0138
867,0.0147
868,0.0128
869,0.0131
870,0.0122
871,0.0136
872,0.0141
873,0.0138
874,0.0120
875,0.0138
876,0.0113
877,0.0132
878,0.0119
879,0.0140
880,0.0129
881,0.0124
882,0.0137
883,0.0128
884,0.0113
885,0.0128
886,0.0133
887,0.0141
888,0.0134
889,0.0140
890,0.0154
891,0.0138
892,0.0156
893,0.0159
894,0.0160
895,0.0149
896,0.0150
897,0.0148
898,0.0153
899,0.0138
900,0.0167
901,0.0148
902,0.0141
903,0.0135
904,0.0173
905,0.0167
906,0.0151
907,0.0187
908,0.0184
909,0.0174
910,0.0185
911,0.0168
912,0.0168
913,0.0144
914,0.0155
915,0.0165
916,0.0173
917,0.0146
918,0.0131
919,0.0123
920,0.0165
921,0.0115
922,0.0119
923,0.0113
924,0.0140
925,0.0131
926,0.0099
927,0.0121
928,0.0095
929,0.0138
930,0.0097
931,0.0094
932,0.0098
933,0.0071
934,0.0085
935,0.0070
936,0.0071
937,0.0041
938,0.0066
939,0.0038
940,0.0041
941,0.0037
942,0.0022
943,0.0018
944,0.0043
945,0.0033
946,0.0020
947,0.0072
