382,NaN
383,1.0000
384,0.6471
385,1.0000
386,0.0745
387,0.2956
388,0.1378
389,0.0342
390,0.0000
391,0.0616
392,0.1735
393,0.1736
394,0.0000
395,0.0000
396,0.1691
397,0.0000
398,0.0709
399,0.0111
400,0.0741
401,0.1911
402,0.0000
403,0.0590
404,0.0652
405,0.1034
406,0.0353
407,0.0352
408,0.1049
409,0.1186
410,0.1428
411,0.1118
412,0.1165
413,0.0879
414,0.0333
415,0.0555
416,0.0792
417,0.1637
418,0.0342
419,0.0195
420,0.0684
421,0.0774
422,0.0402
423,0.0752
424,0.0574
425,0.0641
426,0.0808
427,0.0701
428,0.0491
429,0.0820
430,0.1117
431,0.0968
432,0.1119
433,0.0445
434,0.0843
435,0.0931
436,0.0994
437,0.1106
438,0.1191
439,0.0399
440,0.1023
441,0.1029
442,0.1085
443,0.1209
444,0.1064
445,0.0812
446,0.0843
447,0.0914
448,0.0859
449,0.0988
450,0.0843
451,0.0630
452,0.0866
453,0.0829
454,0.0884
455,0.0859
456,0.0985
457,0.0872
458,0.0993
459,0.0877
460,0.0917
461,0.1006
462,0.0859
463,0.0988
464,0.0844
465,0.0895
466,0.0765
467,0.0830
468,0.0925
469,0.1002
470,0.0896
471,0.0873
472,0.0881
473,0.0960
474,0.1002
475,0.1035
476,0.1038
477,0.1150
478,0.1086
479,0.1171
480,0.1159
481,0.1114
482,0.1108
483,0.1157
484,0.1149
485,0.1203
486,0.1205
487,0.1236
488,0.1218
489,0.1208
490,0.1253
491,0.1228
492,0.1167
493,0.1306
494,0.1256
495,0.1315
496,0.1239
497,0.1199
498,0.1246
499,0.1148
500,0.1166
501,0.1145
502,0.1145
503,0.0996
504,0.1075
505,0.0992
506,0.1000
507,0.0983
508,0.0950
509,0.0905
510,0.0912
511,0.0808
512,0.0809
513,0.0781
514,0.0800
515,0.0753
516,0.0739
517,0.0728
518,0.0707
519,0.0692
520,0.0704
521,0.0679
522,0.0663
523,0.0663
524,0.0671
525,0.0652
526,0.0641
527,0.0666
528,0.0627
529,0.0625
530,0.0600
531,0.0616
532,0.0612
533,0.0578
534,0.0585
535,0.0558
536,0.0563
537,0.0561
538,0.0564
539,0.0552
540,0.0552
541,0.0554
542,0.0559
543,0.0564
544,0.0542
545,0.0548
546,0.0579
547,0.0566
548,0.0579
549,0.0561
550,0.0571
551,0.0570
552,0.0592
553,0.0580
554,0.0580
555,0.0575
556,0.0594
557,0.0577
558,0.0579
559,0.0582
560,0.0558
561,0.0561
562,0.0576
563,0.0552
564,0.0534
565,0.0551
566,0.0529
567,0.0544
568,0.0543
569,0.0552
570,0.0544
571,0.0542
572,0.0548
573,0.0541
574,0.0546
575,0.0539
576,0.0569
577,0.0563
578,0.0556
579,0.0575
580,0.0559
581,0.0564
582,0.0559
583,0.0557
584,0.0564
585,0.0568
586,0.0558
587,0.0547
588,0.0545
589,0.0536
590,0.0543
591,0.0529
592,0.0524
593,0.0526
594,0.0525
595,0.0509
596,0.0505
597,0.0499
598,0.0492
599,0.0493
600,0.0500
601,0.0483
602,0.0478
603,0.0483
604,0.0491
605,0.0490
606,0.0470
607,0.0491
608,0.0497
609,0.0502
610,0.0504
611,0.0506
612,0.0512
613,0.0524
614,0.0523
615,0.0525
616,0.0523
617,0.0524
618,0.0524
619,0.0532
620,0.0530
621,0.0541
622,0.0539
623,0.0539
624,0.0535
625,0.0536
626,0.0525
627,0.0520
628,0.0528
629,0.0515
630,0.0505
631,0.0513
632,0.0496
633,0.0488
634,0.0480
635,0.0470
636,0.0483
637,0.0484
638,0.0476
639,0.0484
640,0.0493
641,0.0482
642,0.0477
643,0.0486
644,0.0478
645,0.0479
646,0.0487
647,0.0491
648,0.0489
649,0.0492
650,0.0491
651,0.0491
652,0.0498
653,0.0504
654,0.0496
655,0.0507
656,0.0487
657,0.0499
658,0.0497
659,0.0492
660,0.0497
661,0.0486
662,0.0482
663,0.0501
664,0.0489
665,0.0490
666,0.0480
667,0.0487
668,0.0475
669,0.0474
670,0.0470
671,0.0476
672,0.0461
673,0.0450
674,0.0446
675,0.0455
676,0.0443
677,0.0434
678,0.0443
679,0.0425
680,0.0435
681,0.0423
682,0.0441
683,0.0435
684,0.0434
685,0.0439
686,0.0432
687,0.0440
688,0.0442
689,0.0454
690,0.0451
691,0.0466
692,0.0462
693,0.0463
694,0.0465
695,0.0469
696,0.0470
697,0.0481
698,0.0482
699,0.0491
700,0.0495
701,0.0495
702,0.0497
703,0.0489
704,0.0490
705,0.0483
706,0.0489
707,0.0489
708,0.0487
709,0.0496
710,0.0479
711,0.0484
712,0.0480
713,0.0470
714,0.0463
715,0.0461
716,0.0458
717,0.0445
718,0.0437
719,0.0439
720,0.0432
721,0.0416
722,0.0416
723,0.0427
724,0.0403
725,0.0401
726,0.0395
727,0.0404
728,0.0386
729,0.0394
730,0.0390
731,0.0388
732,0.0391
733,0.0390
734,0.0395
735,0.0402
736,0.0394
737,0.0392
738,0.0398
739,0.0406
740,0.0403
741,0.0417
742,0.0412
743,0.0395
744,0.0416
745,0.0420
746,0.0424
747,0.0419
748,0.0434
749,0.0421
750,0.0439
751,0.0440
752,0.0430
753,0.0446
754,0.0446
755,0.0443
756,0.0449
757,0.0442
758,0.0443
759,0.0445
760,0.0438
761,0.0434
762,0.0429
763,0.0433
764,0.0434
765,0.0434
766,0.0414
767,0.0416
768,0.0428
769,0.0421
770,0.0397
771,0.0413
772,0.0404
773,0.0404
774,0.0406
775,0.0398
776,0.0386
777,0.0386
778,0.0388
779,0.0386
780,0.0385
781,0.0382
782,0.0385
783,0.0369
784,0.0379
785,0.0375
786,0.0378
787,0.0381
788,0.0378
789,0.0375
790,0.0375
791,0.0373
792,0.0382
793,0.0374
794,0.0389
795,0.0390
796,0.0391
797,0.0398
798,0.0398
799,0.0406
800,0.0405
801,0.0410
802,0.0411
803,0.0426
804,0.0427
805,0.0430
806,0.0424
807,0.0456
808,0.0467
809,0.0459
810,0.0469
811,0.0472
812,0.0454
813,0.0476
814,0.0464
815,0.0462
816,0.0462
817,0.0469
818,0.0472
819,0.0488
820,0.0489
821,0.0483
822,0.0484
823,0.0468
824,0.0470
825,0.0473
826,0.0454
827,0.0464
828,0.0444
829,0.0431
830,0.0436
831,0.0437
832,0.0410
833,0.0419
834,0.0416
835,0.0415
836,0.0399
837,0.0392
838,0.0376
839,0.0379
840,0.0365
841,0.0371
842,0.0376
843,0.0361
844,0.0365
845,0.0355
846,0.0353
847,0.0343
848,0.0349
849,0.0342
850,0.0349
851,0.0362
852,0.0349
853,0.0352
854,0.0354
855,0.0348
856,0.0351
857,0.0372
858,0.0347
859,0.0353
860,0.0356
861,0.0350
862,0.0360
863,0.0372
864,0.0355
865,0.0358
866,0.0372
867,0.0375
868,0.0350
869,0.0366
870,0.0374
871,0.0365
872,0.0375
873,0.0372
874,0.0358
875,0.0364
876,0.0371
877,0.0354
878,0.0360
879,0.0379
880,0.0379
881,0.0354
882,0.0379
883,0.0375
884,0.0395
885,0.0401
886,0.0396
887,0.0422
888,0.0410
889,0.0429
890,0.0446
891,0.0435
892,0.0431
893,0.0453
894,0.0449
895,0.0448
896,0.0457
897,0.0458
898,0.0473
899,0.0439
900,0.0481
901,0.0473
902,0.0430
903,0.0476
904,0.0491
905,0.0465
906,0.0495
907,0.0513
908,0.0516
909,0.0497
910,0.0490
911,0.0443
912,0.0464
913,0.0439
914,0.0440
915,0.0417
916,0.0462
917,0.0397
918,0.0381
919,0.0386
920,0.0410
921,0.0366
922,0.0352
923,0.0345
924,0.0356
925,0.0348
926,0.0325
927,0.0301
928,0.0337
929,0.0312
930,0.0305
931,0.0261
932,0.0276
933,0.0249
934,0.0251
935,0.0234
936,0.0188
937,0.0162
938,0.0147
939,0.0133
940,0.0117
941,0.0113
942,0.0082
943,0.0089
944,0.0088
945,0.0111
946,0.0094
947,0.0154
