382,NaN
383,0.5063
384,0.0000
385,1.0000
386,0.0000
387,0.2012
388,0.4679
389,0.1207
390,0.1654
391,0.1730
392,0.2675
393,0.1212
394,0.0104
395,0.1656
396,0.4481
397,0.1559
398,0.3133
399,0.1339
400,0.1553
401,0.4571
402,0.1080
403,0.3493
404,0.2229
405,0.1991
406,0.1699
407,0.1635
408,0.0981
409,0.0681
410,0.1474
411,0.2209
412,0.1730
413,0.1778
414,0.2023
415,0.2444
416,0.1416
417,0.2494
418,0.2667
419,0.2160
420,0.2435
421,0.1434
422,0.1246
423,0.1496
424,0.1125
425,0.1233
426,0.1369
427,0.0528
428,0.0862
429,0.0645
430,0.1123
431,0.1072
432,0.1531
433,0.1473
434,0.2086
435,0.2269
436,0.2467
437,0.2517
438,0.2827
439,0.2607
440,0.2547
441,0.2094
442,0.1896
443,0.1838
444,0.1442
445,0.1179
446,0.1030
447,0.1015
448,0.0668
449,0.0806
450,0.0775
451,0.0758
452,0.1003
453,0.1627
454,0.1503
455,0.1938
456,0.2110
457,0.2123
458,0.2330
459,0.2186
460,0.2297
461,0.2269
462,0.2291
463,0.2049
464,0.1680
465,0.1617
466,0.1570
467,0.1158
468,0.1244
469,0.1151
470,0.0925
471,0.0855
472,0.0939
473,0.0927
474,0.1120
475,0.1360
476,0.1700
477,0.1982
478,0.2074
479,0.2620
480,0.2699
481,0.2650
482,0.2869
483,0.3125
484,0.2940
485,0.3004
486,0.2861
487,0.2955
488,0.2678
489,0.2441
490,0.2258
491,0.2015
492,0.1756
493,0.1614
494,0.1454
495,0.1285
496,0.1240
497,0.1147
498,0.1242
499,0.1233
500,0.1389
501,0.1591
502,0.1674
503,0.1778
504,0.1929
505,0.2020
506,0.2182
507,0.2280
508,0.2339
509,0.2266
510,0.2216
511,0.2131
512,0.2046
513,0.1958
514,0.1821
515,0.1672
516,0.1544
517,0.1386
518,0.1198
519,0.1079
520,0.1022
521,0.0858
522,0.0779
523,0.0699
524,0.0669
525,0.0632
526,0.0661
527,0.0666
528,0.0680
529,0.0769
530,0.0825
531,0.0866
532,0.0968
533,0.1044
534,0.1132
535,0.1179
536,0.1247
537,0.1298
538,0.1373
539,0.1374
540,0.1391
541,0.1408
542,0.1365
543,0.1343
544,0.1308
545,0.1255
546,0.1198
547,0.1119
548,0.1048
549,0.0975
550,0.0886
551,0.0805
552,0.0746
553,0.0700
554,0.0646
555,0.0606
556,0.0580
557,0.0580
558,0.0577
559,0.0590
560,0.0615
561,0.0640
562,0.0687
563,0.0749
564,0.0821
565,0.0895
566,0.0930
567,0.1016
568,0.1088
569,0.1141
570,0.1202
571,0.1229
572,0.1290
573,0.1278
574,0.1327
575,0.1297
576,0.1322
577,0.1314
578,0.1268
579,0.1229
580,0.1181
581,0.1128
582,0.1068
583,0.0988
584,0.0947
585,0.0889
586,0.0811
587,0.0757
588,0.0708
589,0.0644
590,0.0618
591,0.0568
592,0.0555
593,0.0524
594,0.0513
595,0.0535
596,0.0529
597,0.0545
598,0.0593
599,0.0620
600,0.0656
601,0.0710
602,0.0765
603,0.0805
604,0.0847
605,0.0921
606,0.0947
607,0.1000
608,0.1048
609,0.1078
610,0.1121
611,0.1137
612,0.1156
613,0.1177
614,0.1181
615,0.1176
616,0.1169
617,0.1146
618,0.1127
619,0.1108
620,0.1072
621,0.1036
622,0.1000
623,0.0959
624,0.0904
625,0.0851
626,0.0790
627,0.0767
628,0.0721
629,0.0669
630,0.0634
631,0.0606
632,0.0559
633,0.0541
634,0.0515
635,0.0507
636,0.0500
637,0.0503
638,0.0507
639,0.0543
640,0.0561
641,0.0578
642,0.0621
643,0.0645
644,0.0690
645,0.0732
646,0.0759
647,0.0814
648,0.0856
649,0.0896
650,0.0931
651,0.0973
652,0.1004
653,0.1016
654,0.1039
655,0.1058
656,0.1076
657,0.1067
658,0.1086
659,0.1083
660,0.1078
661,0.1063
662,0.1067
663,0.1040
664,0.1022
665,0.1001
666,0.0971
667,0.0950
668,0.0909
669,0.0877
670,0.0827
671,0.0807
672,0.0764
673,0.0728
674,0.0674
675,0.0651
676,0.0617
677,0.0575
678,0.0552
679,0.0514
680,0.0493
681,0.0488
682,0.0470
683,0.0469
684,0.0470
685,0.0466
686,0.0475
687,0.0469
688,0.0498
689,0.0525
690,0.0539
691,0.0567
692,0.0606
693,0.0627
694,0.0653
695,0.0681
696,0.0720
697,0.0761
698,0.0796
699,0.0836
700,0.0872
701,0.0890
702,0.0923
703,0.0956
704,0.0966
705,0.0991
706,0.1009
707,0.1025
708,0.1028
709,0.1043
710,0.1054
711,0.1070
712,0.1046
713,0.1053
714,0.1046
715,0.1025
716,0.1004
717,0.0966
718,0.0957
719,0.0939
720,0.0889
721,0.0860
722,0.0826
723,0.0798
724,0.0752
725,0.0721
726,0.0708
727,0.0669
728,0.0629
729,0.0601
730,0.0575
731,0.0545
732,0.0547
733,0.0496
734,0.0480
735,0.0473
736,0.0442
737,0.0430
738,0.0430
739,0.0420
740,0.0413
741,0.0417
742,0.0416
743,0.0407
744,0.0427
745,0.0431
746,0.0442
747,0.0459
748,0.0485
749,0.0491
750,0.0520
751,0.0552
752,0.0576
753,0.0615
754,0.0640
755,0.0666
756,0.0692
757,0.0727
758,0.0750
759,0.0782
760,0.0796
761,0.0810
762,0.0838
763,0.0877
764,0.0884
765,0.0904
766,0.0902
767,0.0903
768,0.0921
769,0.0915
770,0.0925
771,0.0944
772,0.0928
773,0.0918
774,0.0938
775,0.0955
776,0.0916
777,0.0906
778,0.0891
779,0.0884
780,0.0859
781,0.0860
782,0.0839
783,0.0818
784,0.0784
785,0.0776
786,0.0749
787,0.0736
788,0.0710
789,0.0676
790,0.0652
791,0.0615
792,0.0600
793,0.0585
794,0.0553
795,0.0538
796,0.0518
797,0.0514
798,0.0489
799,0.0477
800,0.0468
801,0.0443
802,0.0445
803,0.0455
804,0.0440
805,0.0424
806,0.0435
807,0.0425
808,0.0436
809,0.0435
810,0.0457
811,0.0455
812,0.0465
813,0.0484
814,0.0486
815,0.0511
816,0.0533
817,0.0556
818,0.0577
819,0.0595
820,0.0632
821,0.0648
822,0.0668
823,0.0692
824,0.0718
825,0.0737
826,0.0765
827,0.0780
828,0.0792
829,0.0815
830,0.0828
831,0.0838
832,0.0855
833,0.0861
834,0.0857
835,0.0886
836,0.0888
837,0.0893
838,0.0900
839,0.0893
840,0.0880
841,0.0876
842,0.0892
843,0.0875
844,0.0873
845,0.0886
846,0.0869
847,0.0857
848,0.0849
849,0.0846
850,0.0832
851,0.0836
852,0.0813
853,0.0810
854,0.0812
855,0.0781
856,0.0738
857,0.0757
858,0.0731
859,0.0720
860,0.0723
861,0.0692
862,0.0683
863,0.0660
864,0.0636
865,0.0606
866,0.0600
867,0.0579
868,0.0556
869,0.0532
870,0.0519
871,0.0479
872,0.0470
873,0.0450
874,0.0431
875,0.0426
876,0.0425
877,0.0396
878,0.0386
879,0.0387
880,0.0375
881,0.0376
882,0.0360
883,0.0375
884,0.0353
885,0.0354
886,0.0374
887,0.0383
888,0.0371
889,0.0386
890,0.0387
891,0.0398
892,0.0410
893,0.0434
894,0.0453
895,0.0462
896,0.0484
897,0.0501
898,0.0510
899,0.0536
900,0.0579
901,0.0615
902,0.0610
903,0.0651
904,0.0690
905,0.0681
906,0.0759
907,0.0781
908,0.0807
909,0.0838
910,0.0867
911,0.0835
912,0.0856
913,0.0856
914,0.0862
915,0.0913
916,0.0882
917,0.0880
918,0.0865
919,0.0865
920,0.0865
921,0.0856
922,0.0867
923,0.0822
924,0.0844
925,0.0825
926,0.0767
927,0.0777
928,0.0744
929,0.0760
930,0.0732
931,0.0707
932,0.0683
933,0.0630
934,0.0629
935,0.0563
936,0.0525
937,0.0463
938,0.0405
939,0.0342
940,0.0302
941,0.0280
942,0.0269
943,0.0218
944,0.0216
945,0.0261
946,0.0224
947,0.0288
