382,NaN
383,0.3065
384,1.0000
385,1.0000
386,0.0000
387,0.3881
388,0.1552
389,0.1694
390,0.0970
391,0.1604
392,0.1748
393,0.3158
394,0.1802
395,0.1496
396,0.2644
397,0.1006
398,0.0214
399,0.2041
400,0.2195
401,0.3525
402,0.0840
403,0.2464
404,0.0937
405,0.1930
406,0.1246
407,0.2114
408,0.1497
409,0.1775
410,0.2220
411,0.1897
412,0.2332
413,0.1237
414,0.1769
415,0.1732
416,0.1477
417,0.1878
418,0.1308
419,0.1514
420,0.1011
421,0.1221
422,0.1248
423,0.1340
424,0.0948
425,0.1130
426,0.1933
427,0.1450
428,0.1559
429,0.1824
430,0.1766
431,0.1913
432,0.1850
433,0.1938
434,0.1836
435,0.1765
436,0.2043
437,0.1896
438,0.1645
439,0.1563
440,0.1833
441,0.1578
442,0.1772
443,0.1547
444,0.1329
445,0.1426
446,0.1377
447,0.1553
448,0.1203
449,0.1668
450,0.1724
451,0.1623
452,0.1531
453,0.1835
454,0.1949
455,0.1931
456,0.1935
457,0.1687
458,0.1866
459,0.1851
460,0.1576
461,0.1778
462,0.1683
463,0.1753
464,0.1417
465,0.1264
466,0.1425
467,0.1340
468,0.1437
469,0.1438
470,0.1299
471,0.1360
472,0.1621
473,0.1612
474,0.1825
475,0.1854
476,0.1948
477,0.2197
478,0.2103
479,0.2396
480,0.2465
481,0.2331
482,0.2424
483,0.2582
484,0.2423
485,0.2538
486,0.2593
487,0.2566
488,0.2388
489,0.2245
490,0.2131
491,0.2064
492,0.2033
493,0.1989
494,0.1941
495,0.1815
496,0.1793
497,0.1736
498,0.1819
499,0.1729
500,0.1923
501,0.1832
502,0.1962
503,0.1876
504,0.1907
505,0.1884
506,0.1926
507,0.1986
508,0.1988
509,0.1926
510,0.1895
511,0.1769
512,0.1780
513,0.1708
514,0.1643
515,0.1549
516,0.1498
517,0.1391
518,0.1292
519,0.1245
520,0.1206
521,0.1087
522,0.1040
523,0.0992
524,0.0985
525,0.0945
526,0.0925
527,0.0926
528,0.0897
529,0.0898
530,0.0906
531,0.0935
532,0.0946
533,0.0986
534,0.1016
535,0.1033
536,0.1068
537,0.1093
538,0.1127
539,0.1149
540,0.1157
541,0.1168
542,0.1171
543,0.1162
544,0.1166
545,0.1158
546,0.1142
547,0.1134
548,0.1115
549,0.1079
550,0.1058
551,0.1008
552,0.0986
553,0.0951
554,0.0926
555,0.0885
556,0.0877
557,0.0863
558,0.0817
559,0.0812
560,0.0797
561,0.0796
562,0.0799
563,0.0812
564,0.0823
565,0.0840
566,0.0838
567,0.0874
568,0.0911
569,0.0925
570,0.0958
571,0.0997
572,0.1021
573,0.1033
574,0.1053
575,0.1069
576,0.1085
577,0.1096
578,0.1099
579,0.1123
580,0.1108
581,0.1104
582,0.1094
583,0.1075
584,0.1067
585,0.1038
586,0.1028
587,0.0989
588,0.0959
589,0.0928
590,0.0907
591,0.0871
592,0.0847
593,0.0826
594,0.0829
595,0.0777
596,0.0767
597,0.0747
598,0.0731
599,0.0729
600,0.0719
601,0.0710
602,0.0720
603,0.0725
604,0.0730
605,0.0734
606,0.0760
607,0.0773
608,0.0796
609,0.0822
610,0.0811
611,0.0856
612,0.0879
613,0.0908
614,0.0924
615,0.0952
616,0.0958
617,0.0972
618,0.0996
619,0.1001
620,0.1004
621,0.1029
622,0.1035
623,0.1032
624,0.1029
625,0.1014
626,0.1003
627,0.1001
628,0.1004
629,0.0972
630,0.0944
631,0.0938
632,0.0906
633,0.0886
634,0.0861
635,0.0821
636,0.0798
637,0.0787
638,0.0762
639,0.0767
640,0.0745
641,0.0738
642,0.0714
643,0.0701
644,0.0695
645,0.0691
646,0.0678
647,0.0686
648,0.0689
649,0.0687
650,0.0692
651,0.0702
652,0.0701
653,0.0726
654,0.0732
655,0.0749
656,0.0753
657,0.0767
658,0.0789
659,0.0809
660,0.0816
661,0.0828
662,0.0850
663,0.0864
664,0.0883
665,0.0904
666,0.0904
667,0.0919
668,0.0914
669,0.0936
670,0.0918
671,0.0945
672,0.0917
673,0.0925
674,0.0908
675,0.0914
676,0.0904
677,0.0889
678,0.0883
679,0.0873
680,0.0856
681,0.0846
682,0.0815
683,0.0811
684,0.0799
685,0.0773
686,0.0764
687,0.0745
688,0.0736
689,0.0725
690,0.0701
691,0.0699
692,0.0685
693,0.0658
694,0.0661
695,0.0645
696,0.0655
697,0.0644
698,0.0639
699,0.0628
700,0.0635
701,0.0637
702,0.0639
703,0.0633
704,0.0642
705,0.0656
706,0.0663
707,0.0670
708,0.0694
709,0.0709
710,0.0718
711,0.0735
712,0.0752
713,0.0758
714,0.0773
715,0.0784
716,0.0795
717,0.0814
718,0.0807
719,0.0834
720,0.0818
721,0.0823
722,0.0817
723,0.0837
724,0.0836
725,0.0829
726,0.0835
727,0.0844
728,0.0834
729,0.0846
730,0.0836
731,0.0838
732,0.0845
733,0.0821
734,0.0823
735,0.0816
736,0.0796
737,0.0790
738,0.0797
739,0.0779
740,0.0748
741,0.0750
742,0.0741
743,0.0713
744,0.0705
745,0.0693
746,0.0674
747,0.0673
748,0.0657
749,0.0651
750,0.0631
751,0.0622
752,0.0620
753,0.0609
754,0.0606
755,0.0592
756,0.0585
757,0.0588
758,0.0578
759,0.0588
760,0.0566
761,0.0563
762,0.0556
763,0.0577
764,0.0565
765,0.0563
766,0.0573
767,0.0559
768,0.0566
769,0.0586
770,0.0584
771,0.0598
772,0.0591
773,0.0606
774,0.0644
775,0.0636
776,0.0651
777,0.0670
778,0.0681
779,0.0690
780,0.0680
781,0.0709
782,0.0709
783,0.0725
784,0.0728
785,0.0746
786,0.0761
787,0.0760
788,0.0766
789,0.0774
790,0.0768
791,0.0770
792,0.0785
793,0.0782
794,0.0777
795,0.0785
796,0.0804
797,0.0807
798,0.0809
799,0.0804
800,0.0822
801,0.0820
802,0.0821
803,0.0823
804,0.0821
805,0.0812
806,0.0811
807,0.0821
808,0.0807
809,0.0819
810,0.0821
811,0.0802
812,0.0801
813,0.0797
814,0.0775
815,0.0742
816,0.0760
817,0.0744
818,0.0740
819,0.0753
820,0.0733
821,0.0703
822,0.0707
823,0.0697
824,0.0682
825,0.0671
826,0.0658
827,0.0643
828,0.0626
829,0.0613
830,0.0602
831,0.0595
832,0.0575
833,0.0577
834,0.0562
835,0.0560
836,0.0541
837,0.0541
838,0.0537
839,0.0543
840,0.0526
841,0.0523
842,0.0537
843,0.0520
844,0.0529
845,0.0539
846,0.0531
847,0.0541
848,0.0533
849,0.0555
850,0.0552
851,0.0572
852,0.0574
853,0.0566
854,0.0592
855,0.0591
856,0.0595
857,0.0623
858,0.0624
859,0.0625
860,0.0630
861,0.0661
862,0.0662
863,0.0659
864,0.0669
865,0.0666
866,0.0675
867,0.0678
868,0.0694
869,0.0679
870,0.0686
871,0.0694
872,0.0701
873,0.0676
874,0.0692
875,0.0678
876,0.0677
877,0.0686
878,0.0707
879,0.0719
880,0.0718
881,0.0715
882,0.0712
883,0.0725
884,0.0738
885,0.0757
886,0.0737
887,0.0767
888,0.0753
889,0.0760
890,0.0778
891,0.0752
892,0.0772
893,0.0811
894,0.0802
895,0.0776
896,0.0805
897,0.0801
898,0.0785
899,0.0801
900,0.0803
901,0.0784
902,0.0785
903,0.0790
904,0.0793
905,0.0803
906,0.0786
907,0.0796
908,0.0777
909,0.0757
910,0.0747
911,0.0712
912,0.0714
913,0.0686
914,0.0657
915,0.0646
916,0.0623
917,0.0577
918,0.0574
919,0.0569
920,0.0576
921,0.0529
922,0.0528
923,0.0494
924,0.0500
925,0.0461
926,0.0442
927,0.0437
928,0.0421
929,0.0423
930,0.0415
931,0.0391
932,0.0394
933,0.0368
934,0.0353
935,0.0323
936,0.0285
937,0.0279
938,0.0222
939,0.0193
940,0.0178
941,0.0189
942,0.0165
943,0.0158
944,0.0142
945,0.0165
946,0.0141
947,0.0245
