382,NaN
383,1.0000
384,1.0000
385,1.0000
386,0.0000
387,0.3123
388,0.2655
389,0.1811
390,0.1706
391,0.0000
392,0.2805
393,0.0265
394,0.0587
395,0.0474
396,0.3925
397,0.0553
398,0.1816
399,0.1187
400,0.1539
401,0.3715
402,0.0262
403,0.2989
404,0.2527
405,0.1043
406,0.2316
407,0.1468
408,0.1558
409,0.0886
410,0.1609
411,0.2181
412,0.1876
413,0.2094
414,0.1219
415,0.1379
416,0.1571
417,0.2742
418,0.1485
419,0.1500
420,0.1572
421,0.1720
422,0.1013
423,0.1833
424,0.1353
425,0.1518
426,0.1630
427,0.1495
428,0.1684
429,0.1321
430,0.1563
431,0.1680
432,0.1602
433,0.1667
434,0.1484
435,0.1903
436,0.1416
437,0.1678
438,0.1476
439,0.1497
440,0.1812
441,0.1834
442,0.1673
443,0.1798
444,0.1621
445,0.1799
446,0.1700
447,0.1769
448,0.1669
449,0.1765
450,0.1620
451,0.1551
452,0.1452
453,0.1547
454,0.1624
455,0.1683
456,0.1500
457,0.1413
458,0.1420
459,0.1395
460,0.1319
461,0.1370
462,0.1458
463,0.1588
464,0.1333
465,0.1291
466,0.1574
467,0.1376
468,0.1626
469,0.1692
470,0.1717
471,0.1585
472,0.1794
473,0.1692
474,0.1879
475,0.1936
476,0.1927
477,0.1965
478,0.1995
479,0.2138
480,0.2115
481,0.1995
482,0.2154
483,0.2230
484,0.2067
485,0.2222
486,0.2337
487,0.2317
488,0.2201
489,0.2137
490,0.2290
491,0.2068
492,0.2092
493,0.2156
494,0.2047
495,0.2070
496,0.2058
497,0.1844
498,0.1961
499,0.1833
500,0.1926
501,0.1866
502,0.1917
503,0.1671
504,0.1720
505,0.1682
506,0.1677
507,0.1699
508,0.1687
509,0.1644
510,0.1572
511,0.1486
512,0.1500
513,0.1470
514,0.1473
515,0.1443
516,0.1420
517,0.1368
518,0.1292
519,0.1278
520,0.1276
521,0.1196
522,0.1210
523,0.1154
524,0.1148
525,0.1084
526,0.1096
527,0.1063
528,0.1045
529,0.1057
530,0.0996
531,0.0969
532,0.0972
533,0.0942
534,0.0959
535,0.0923
536,0.0926
537,0.0921
538,0.0917
539,0.0885
540,0.0892
541,0.0895
542,0.0901
543,0.0888
544,0.0907
545,0.0894
546,0.0930
547,0.0936
548,0.0923
549,0.0928
550,0.0931
551,0.0933
552,0.0951
553,0.0975
554,0.0967
555,0.0985
556,0.0978
557,0.0978
558,0.0992
559,0.0995
560,0.1011
561,0.1001
562,0.1003
563,0.1002
564,0.0995
565,0.0987
566,0.0962
567,0.0968
568,0.0968
569,0.0967
570,0.0969
571,0.0939
572,0.0932
573,0.0928
574,0.0920
575,0.0897
576,0.0883
577,0.0875
578,0.0868
579,0.0866
580,0.0857
581,0.0842
582,0.0829
583,0.0810
584,0.0825
585,0.0800
586,0.0802
587,0.0799
588,0.0800
589,0.0786
590,0.0813
591,0.0795
592,0.0776
593,0.0795
594,0.0800
595,0.0791
596,0.0804
597,0.0817
598,0.0824
599,0.0827
600,0.0833
601,0.0845
602,0.0851
603,0.0845
604,0.0858
605,0.0868
606,0.0859
607,0.0874
608,0.0880
609,0.0871
610,0.0869
611,0.0882
612,0.0896
613,0.0884
614,0.0880
615,0.0889
616,0.0874
617,0.0875
618,0.0881
619,0.0873
620,0.0865
621,0.0871
622,0.0868
623,0.0853
624,0.0866
625,0.0836
626,0.0830
627,0.0824
628,0.0820
629,0.0814
630,0.0812
631,0.0803
632,0.0779
633,0.0770
634,0.0756
635,0.0734
636,0.0738
637,0.0743
638,0.0726
639,0.0725
640,0.0737
641,0.0732
642,0.0728
643,0.0721
644,0.0720
645,0.0727
646,0.0716
647,0.0711
648,0.0720
649,0.0723
650,0.0735
651,0.0718
652,0.0724
653,0.0729
654,0.0732
655,0.0726
656,0.0739
657,0.0753
658,0.0748
659,0.0749
660,0.0758
661,0.0750
662,0.0761
663,0.0766
664,0.0773
665,0.0783
666,0.0793
667,0.0801
668,0.0793
669,0.0809
670,0.0798
671,0.0819
672,0.0791
673,0.0786
674,0.0790
675,0.0793
676,0.0808
677,0.0788
678,0.0789
679,0.0784
680,0.0781
681,0.0780
682,0.0781
683,0.0786
684,0.0766
685,0.0761
686,0.0757
687,0.0739
688,0.0755
689,0.0755
690,0.0741
691,0.0731
692,0.0725
693,0.0710
694,0.0726
695,0.0700
696,0.0709
697,0.0700
698,0.0700
699,0.0696
700,0.0699
701,0.0682
702,0.0685
703,0.0673
704,0.0657
705,0.0661
706,0.0650
707,0.0655
708,0.0651
709,0.0652
710,0.0647
711,0.0661
712,0.0647
713,0.0656
714,0.0644
715,0.0648
716,0.0650
717,0.0649
718,0.0652
719,0.0653
720,0.0640
721,0.0635
722,0.0625
723,0.0637
724,0.0619
725,0.0632
726,0.0628
727,0.0643
728,0.0636
729,0.0644
730,0.0651
731,0.0656
732,0.0672
733,0.0657
734,0.0669
735,0.0676
736,0.0675
737,0.0676
738,0.0687
739,0.0679
740,0.0688
741,0.0689
742,0.0697
743,0.0695
744,0.0698
745,0.0703
746,0.0696
747,0.0688
748,0.0700
749,0.0698
750,0.0692
751,0.0710
752,0.0717
753,0.0712
754,0.0704
755,0.0716
756,0.0720
757,0.0703
758,0.0715
759,0.0717
760,0.0704
761,0.0682
762,0.0688
763,0.0698
764,0.0687
765,0.0681
766,0.0675
767,0.0656
768,0.0661
769,0.0660
770,0.0638
771,0.0635
772,0.0624
773,0.0634
774,0.0627
775,0.0605
776,0.0608
777,0.0605
778,0.0597
779,0.0614
780,0.0588
781,0.0587
782,0.0588
783,0.0586
784,0.0588
785,0.0571
786,0.0573
787,0.0575
788,0.0583
789,0.0562
790,0.0555
791,0.0547
792,0.0560
793,0.0550
794,0.0559
795,0.0543
796,0.0550
797,0.0563
798,0.0555
799,0.0557
800,0.0572
801,0.0580
802,0.0575
803,0.0599
804,0.0602
805,0.0602
806,0.0605
807,0.0624
808,0.0620
809,0.0640
810,0.0640
811,0.0639
812,0.0645
813,0.0662
814,0.0652
815,0.0687
816,0.0673
817,0.0676
818,0.0679
819,0.0707
820,0.0718
821,0.0702
822,0.0722
823,0.0703
824,0.0709
825,0.0720
826,0.0724
827,0.0705
828,0.0709
829,0.0714
830,0.0708
831,0.0702
832,0.0694
833,0.0689
834,0.0689
835,0.0699
836,0.0680
837,0.0671
838,0.0677
839,0.0676
840,0.0649
841,0.0667
842,0.0657
843,0.0649
844,0.0615
845,0.0621
846,0.0639
847,0.0641
848,0.0634
849,0.0633
850,0.0612
851,0.0638
852,0.0606
853,0.0604
854,0.0633
855,0.0611
856,0.0590
857,0.0608
858,0.0601
859,0.0592
860,0.0580
861,0.0580
862,0.0581
863,0.0597
864,0.0584
865,0.0561
866,0.0581
867,0.0566
868,0.0559
869,0.0559
870,0.0548
871,0.0531
872,0.0519
873,0.0510
874,0.0543
875,0.0508
876,0.0518
877,0.0501
878,0.0494
879,0.0515
880,0.0520
881,0.0503
882,0.0537
883,0.0529
884,0.0532
885,0.0539
886,0.0518
887,0.0553
888,0.0540
889,0.0559
890,0.0568
891,0.0585
892,0.0577
893,0.0586
894,0.0595
895,0.0587
896,0.0594
897,0.0617
898,0.0594
899,0.0605
900,0.0629
901,0.0632
902,0.0615
903,0.0636
904,0.0656
905,0.0651
906,0.0646
907,0.0685
908,0.0675
909,0.0668
910,0.0686
911,0.0664
912,0.0659
913,0.0626
914,0.0631
915,0.0619
916,0.0608
917,0.0579
918,0.0575
919,0.0584
920,0.0566
921,0.0547
922,0.0527
923,0.0514
924,0.0531
925,0.0507
926,0.0488
927,0.0462
928,0.0454
929,0.0461
930,0.0435
931,0.0453
932,0.0424
933,0.0388
934,0.0400
935,0.0358
936,0.0313
937,0.0292
938,0.0253
939,0.0222
940,0.0196
941,0.0176
942,0.0147
943,0.0163
944,0.0154
945,0.0164
946,0.0138
947,0.0170
