382,NaN
383,0.7921
384,0.9424
385,1.0000
386,0.0000
387,0.2228
388,0.1971
389,0.0330
390,0.0000
391,0.0653
392,0.3149
393,0.1949
394,0.0173
395,0.0890
396,0.2289
397,0.0883
398,0.1930
399,0.1403
400,0.2260
401,0.2791
402,0.0000
403,0.2382
404,0.2122
405,0.1720
406,0.3060
407,0.1801
408,0.3230
409,0.1104
410,0.1931
411,0.2013
412,0.2362
413,0.1762
414,0.0714
415,0.1055
416,0.1088
417,0.1431
418,0.1211
419,0.1423
420,0.1700
421,0.1079
422,0.1286
423,0.1074
424,0.1578
425,0.0986
426,0.1891
427,0.1020
428,0.1635
429,0.1271
430,0.1861
431,0.2134
432,0.1793
433,0.1925
434,0.1899
435,0.2057
436,0.1929
437,0.1973
438,0.1800
439,0.1710
440,0.1766
441,0.1817
442,0.1834
443,0.1960
444,0.1536
445,0.1685
446,0.1366
447,0.1492
448,0.1627
449,0.1275
450,0.1326
451,0.1101
452,0.1256
453,0.1271
454,0.1339
455,0.1265
456,0.1119
457,0.1140
458,0.1138
459,0.1192
460,0.1141
461,0.1405
462,0.1433
463,0.1581
464,0.1633
465,0.1443
466,0.1759
467,0.1683
468,0.1792
469,0.1988
470,0.1910
471,0.1920
472,0.2039
473,0.2122
474,0.2044
475,0.2253
476,0.2160
477,0.2264
478,0.2182
479,0.2392
480,0.2227
481,0.2142
482,0.2133
483,0.2158
484,0.1986
485,0.2066
486,0.2018
487,0.2018
488,0.1894
489,0.1654
490,0.1780
491,0.1683
492,0.1617
493,0.1644
494,0.1619
495,0.1593
496,0.1573
497,0.1510
498,0.1582
499,0.1531
500,0.1619
501,0.1559
502,0.1565
503,0.1557
504,0.1569
505,0.1621
506,0.1627
507,0.1694
508,0.1707
509,0.1668
510,0.1685
511,0.1570
512,0.1644
513,0.1612
514,0.1586
515,0.1606
516,0.1571
517,0.1527
518,0.1463
519,0.1455
520,0.1454
521,0.1348
522,0.1330
523,0.1279
524,0.1268
525,0.1231
526,0.1200
527,0.1170
528,0.1118
529,0.1062
530,0.1030
531,0.0976
532,0.0962
533,0.0911
534,0.0896
535,0.0842
536,0.0843
537,0.0800
538,0.0795
539,0.0762
540,0.0748
541,0.0728
542,0.0702
543,0.0704
544,0.0684
545,0.0695
546,0.0723
547,0.0726
548,0.0723
549,0.0730
550,0.0744
551,0.0743
552,0.0772
553,0.0786
554,0.0816
555,0.0837
556,0.0858
557,0.0860
558,0.0907
559,0.0920
560,0.0948
561,0.0971
562,0.1000
563,0.0998
564,0.1039
565,0.1040
566,0.1043
567,0.1061
568,0.1070
569,0.1092
570,0.1096
571,0.1080
572,0.1094
573,0.1090
574,0.1083
575,0.1068
576,0.1060
577,0.1055
578,0.1025
579,0.1019
580,0.1010
581,0.0969
582,0.0945
583,0.0925
584,0.0915
585,0.0884
586,0.0861
587,0.0837
588,0.0800
589,0.0802
590,0.0776
591,0.0747
592,0.0735
593,0.0712
594,0.0706
595,0.0684
596,0.0676
597,0.0657
598,0.0641
599,0.0642
600,0.0614
601,0.0611
602,0.0621
603,0.0604
604,0.0617
605,0.0608
606,0.0603
607,0.0616
608,0.0619
609,0.0619
610,0.0635
611,0.0658
612,0.0667
613,0.0670
614,0.0678
615,0.0707
616,0.0705
617,0.0718
618,0.0754
619,0.0764
620,0.0765
621,0.0803
622,0.0817
623,0.0841
624,0.0840
625,0.0867
626,0.0868
627,0.0893
628,0.0910
629,0.0912
630,0.0909
631,0.0935
632,0.0922
633,0.0934
634,0.0932
635,0.0910
636,0.0935
637,0.0938
638,0.0918
639,0.0948
640,0.0944
641,0.0940
642,0.0924
643,0.0909
644,0.0912
645,0.0899
646,0.0895
647,0.0874
648,0.0862
649,0.0836
650,0.0834
651,0.0831
652,0.0810
653,0.0783
654,0.0769
655,0.0751
656,0.0736
657,0.0717
658,0.0720
659,0.0693
660,0.0681
661,0.0663
662,0.0661
663,0.0636
664,0.0621
665,0.0616
666,0.0602
667,0.0596
668,0.0582
669,0.0580
670,0.0573
671,0.0569
672,0.0539
673,0.0546
674,0.0527
675,0.0533
676,0.0540
677,0.0528
678,0.0531
679,0.0520
680,0.0520
681,0.0523
682,0.0536
683,0.0539
684,0.0548
685,0.0548
686,0.0556
687,0.0557
688,0.0561
689,0.0587
690,0.0592
691,0.0610
692,0.0612
693,0.0624
694,0.0629
695,0.0649
696,0.0661
697,0.0677
698,0.0695
699,0.0700
700,0.0708
701,0.0711
702,0.0721
703,0.0738
704,0.0734
705,0.0752
706,0.0760
707,0.0774
708,0.0778
709,0.0794
710,0.0797
711,0.0805
712,0.0804
713,0.0813
714,0.0815
715,0.0821
716,0.0825
717,0.0810
718,0.0812
719,0.0814
720,0.0804
721,0.0779
722,0.0781
723,0.0795
724,0.0781
725,0.0771
726,0.0762
727,0.0769
728,0.0757
729,0.0744
730,0.0738
731,0.0744
732,0.0731
733,0.0719
734,0.0718
735,0.0711
736,0.0710
737,0.0701
738,0.0696
739,0.0690
740,0.0675
741,0.0678
742,0.0649
743,0.0623
744,0.0636
745,0.0619
746,0.0601
747,0.0613
748,0.0611
749,0.0596
750,0.0580
751,0.0574
752,0.0562
753,0.0552
754,0.0562
755,0.0560
756,0.0546
757,0.0544
758,0.0522
759,0.0522
760,0.0512
761,0.0504
762,0.0501
763,0.0489
764,0.0486
765,0.0477
766,0.0479
767,0.0460
768,0.0465
769,0.0457
770,0.0446
771,0.0444
772,0.0450
773,0.0449
774,0.0451
775,0.0449
776,0.0440
777,0.0441
778,0.0442
779,0.0459
780,0.0445
781,0.0455
782,0.0452
783,0.0456
784,0.0451
785,0.0474
786,0.0468
787,0.0487
788,0.0496
789,0.0498
790,0.0489
791,0.0491
792,0.0493
793,0.0504
794,0.0509
795,0.0523
796,0.0527
797,0.0539
798,0.0539
799,0.0570
800,0.0582
801,0.0582
802,0.0597
803,0.0609
804,0.0622
805,0.0627
806,0.0634
807,0.0662
808,0.0660
809,0.0678
810,0.0717
811,0.0702
812,0.0707
813,0.0747
814,0.0743
815,0.0725
816,0.0757
817,0.0768
818,0.0773
819,0.0781
820,0.0804
821,0.0792
822,0.0809
823,0.0785
824,0.0805
825,0.0818
826,0.0824
827,0.0814
828,0.0793
829,0.0788
830,0.0780
831,0.0773
832,0.0782
833,0.0747
834,0.0737
835,0.0760
836,0.0750
837,0.0728
838,0.0713
839,0.0721
840,0.0688
841,0.0687
842,0.0695
843,0.0666
844,0.0669
845,0.0660
846,0.0652
847,0.0657
848,0.0661
849,0.0636
850,0.0624
851,0.0613
852,0.0617
853,0.0606
854,0.0604
855,0.0588
856,0.0590
857,0.0604
858,0.0579
859,0.0576
860,0.0563
861,0.0541
862,0.0546
863,0.0554
864,0.0524
865,0.0529
866,0.0525
867,0.0517
868,0.0498
869,0.0477
870,0.0480
871,0.0460
872,0.0469
873,0.0436
874,0.0426
875,0.0417
876,0.0402
877,0.0434
878,0.0411
879,0.0432
880,0.0420
881,0.0417
882,0.0416
883,0.0407
884,0.0401
885,0.0398
886,0.0404
887,0.0419
888,0.0418
889,0.0432
890,0.0426
891,0.0422
892,0.0409
893,0.0441
894,0.0453
895,0.0439
896,0.0442
897,0.0437
898,0.0437
899,0.0432
900,0.0464
901,0.0473
902,0.0453
903,0.0469
904,0.0493
905,0.0472
906,0.0495
907,0.0484
908,0.0490
909,0.0497
910,0.0492
911,0.0475
912,0.0483
913,0.0476
914,0.0467
915,0.0475
916,0.0493
917,0.0451
918,0.0446
919,0.0457
920,0.0463
921,0.0424
922,0.0429
923,0.0421
924,0.0411
925,0.0418
926,0.0395
927,0.0400
928,0.0377
929,0.0395
930,0.0377
931,0.0353
932,0.0338
933,0.0344
934,0.0354
935,0.0310
936,0.0283
937,0.0248
938,0.0240
939,0.0202
940,0.0182
941,0.0167
942,0.0170
943,0.0143
944,0.0156
945,0.0146
946,0.0172
947,0.0191
