382,NaN
383,1.0000
384,1.0000
385,1.0000
386,0.0000
387,0.4142
388,0.2450
389,0.4246
390,0.1102
391,0.1235
392,0.2922
393,0.2492
394,0.1555
395,0.0249
396,0.4117
397,0.0702
398,0.2209
399,0.0675
400,0.1333
401,0.4105
402,0.0940
403,0.1874
404,0.1132
405,0.1121
406,0.1462
407,0.0327
408,0.1890
409,0.0579
410,0.2272
411,0.1652
412,0.2461
413,0.1475
414,0.0782
415,0.1512
416,0.1451
417,0.1639
418,0.1196
419,0.1795
420,0.2177
421,0.1140
422,0.1324
423,0.1815
424,0.1752
425,0.1310
426,0.1946
427,0.1384
428,0.1783
429,0.1488
430,0.1608
431,0.1512
432,0.1616
433,0.1200
434,0.1281
435,0.1693
436,0.1145
437,0.1309
438,0.1381
439,0.0956
440,0.1351
441,0.1307
442,0.1298
443,0.1459
444,0.1005
445,0.1275
446,0.1194
447,0.1284
448,0.1192
449,0.1237
450,0.1146
451,0.1081
452,0.1250
453,0.1484
454,0.1460
455,0.1550
456,0.1710
457,0.1753
458,0.1642
459,0.1629
460,0.1731
461,0.1788
462,0.1948
463,0.1956
464,0.1831
465,0.1828
466,0.1833
467,0.1873
468,0.2024
469,0.1992
470,0.1915
471,0.1804
472,0.1847
473,0.1852
474,0.1735
475,0.1763
476,0.1719
477,0.1698
478,0.1593
479,0.1653
480,0.1610
481,0.1473
482,0.1423
483,0.1413
484,0.1270
485,0.1390
486,0.1310
487,0.1413
488,0.1363
489,0.1270
490,0.1299
491,0.1303
492,0.1298
493,0.1434
494,0.1481
495,0.1537
496,0.1513
497,0.1520
498,0.1663
499,0.1664
500,0.1785
501,0.1803
502,0.1890
503,0.1750
504,0.1861
505,0.1881
506,0.1928
507,0.1958
508,0.1973
509,0.1920
510,0.1934
511,0.1864
512,0.1829
513,0.1767
514,0.1772
515,0.1714
516,0.1700
517,0.1547
518,0.1505
519,0.1476
520,0.1422
521,0.1313
522,0.1292
523,0.1193
524,0.1203
525,0.1095
526,0.1078
527,0.1001
528,0.0974
529,0.0915
530,0.0863
531,0.0791
532,0.0768
533,0.0703
534,0.0702
535,0.0630
536,0.0625
537,0.0600
538,0.0568
539,0.0559
540,0.0556
541,0.0535
542,0.0552
543,0.0548
544,0.0547
545,0.0535
546,0.0576
547,0.0587
548,0.0577
549,0.0611
550,0.0633
551,0.0643
552,0.0681
553,0.0690
554,0.0759
555,0.0760
556,0.0814
557,0.0838
558,0.0881
559,0.0889
560,0.0932
561,0.0961
562,0.1017
563,0.1005
564,0.1037
565,0.1065
566,0.1079
567,0.1114
568,0.1141
569,0.1142
570,0.1178
571,0.1172
572,0.1174
573,0.1184
574,0.1173
575,0.1171
576,0.1178
577,0.1148
578,0.1126
579,0.1119
580,0.1084
581,0.1077
582,0.1054
583,0.1006
584,0.0993
585,0.0947
586,0.0928
587,0.0871
588,0.0857
589,0.0812
590,0.0796
591,0.0762
592,0.0732
593,0.0698
594,0.0681
595,0.0630
596,0.0612
597,0.0591
598,0.0567
599,0.0540
600,0.0523
601,0.0499
602,0.0488
603,0.0472
604,0.0456
605,0.0444
606,0.0424
607,0.0439
608,0.0432
609,0.0420
610,0.0418
611,0.0426
612,0.0427
613,0.0449
614,0.0459
615,0.0476
616,0.0472
617,0.0488
618,0.0505
619,0.0527
620,0.0535
621,0.0568
622,0.0599
623,0.0617
624,0.0646
625,0.0658
626,0.0684
627,0.0702
628,0.0741
629,0.0770
630,0.0784
631,0.0820
632,0.0818
633,0.0846
634,0.0857
635,0.0870
636,0.0903
637,0.0915
638,0.0920
639,0.0949
640,0.0961
641,0.0985
642,0.0994
643,0.0996
644,0.1012
645,0.1016
646,0.1020
647,0.1017
648,0.1020
649,0.1000
650,0.1000
651,0.0998
652,0.0984
653,0.0980
654,0.0959
655,0.0952
656,0.0932
657,0.0916
658,0.0916
659,0.0895
660,0.0871
661,0.0860
662,0.0842
663,0.0813
664,0.0785
665,0.0773
666,0.0755
667,0.0740
668,0.0716
669,0.0701
670,0.0673
671,0.0657
672,0.0628
673,0.0609
674,0.0592
675,0.0570
676,0.0547
677,0.0522
678,0.0513
679,0.0491
680,0.0470
681,0.0459
682,0.0444
683,0.0431
684,0.0421
685,0.0398
686,0.0380
687,0.0372
688,0.0371
689,0.0373
690,0.0361
691,0.0348
692,0.0350
693,0.0347
694,0.0343
695,0.0345
696,0.0345
697,0.0353
698,0.0360
699,0.0360
700,0.0372
701,0.0371
702,0.0396
703,0.0382
704,0.0395
705,0.0403
706,0.0427
707,0.0432
708,0.0437
709,0.0456
710,0.0466
711,0.0493
712,0.0502
713,0.0528
714,0.0534
715,0.0540
716,0.0568
717,0.0579
718,0.0593
719,0.0600
720,0.0612
721,0.0611
722,0.0627
723,0.0651
724,0.0651
725,0.0658
726,0.0680
727,0.0699
728,0.0714
729,0.0720
730,0.0721
731,0.0733
732,0.0764
733,0.0753
734,0.0775
735,0.0782
736,0.0795
737,0.0801
738,0.0807
739,0.0811
740,0.0814
741,0.0825
742,0.0822
743,0.0824
744,0.0819
745,0.0835
746,0.0830
747,0.0817
748,0.0836
749,0.0837
750,0.0837
751,0.0845
752,0.0835
753,0.0819
754,0.0841
755,0.0833
756,0.0823
757,0.0821
758,0.0810
759,0.0809
760,0.0795
761,0.0779
762,0.0746
763,0.0749
764,0.0768
765,0.0732
766,0.0707
767,0.0701
768,0.0692
769,0.0668
770,0.0640
771,0.0627
772,0.0617
773,0.0603
774,0.0601
775,0.0577
776,0.0560
777,0.0547
778,0.0536
779,0.0522
780,0.0505
781,0.0494
782,0.0478
783,0.0458
784,0.0447
785,0.0431
786,0.0430
787,0.0411
788,0.0414
789,0.0385
790,0.0374
791,0.0352
792,0.0351
793,0.0340
794,0.0327
795,0.0326
796,0.0311
797,0.0308
798,0.0295
799,0.0290
800,0.0297
801,0.0295
802,0.0277
803,0.0288
804,0.0269
805,0.0277
806,0.0273
807,0.0282
808,0.0278
809,0.0280
810,0.0305
811,0.0278
812,0.0280
813,0.0289
814,0.0286
815,0.0307
816,0.0314
817,0.0318
818,0.0335
819,0.0339
820,0.0353
821,0.0349
822,0.0342
823,0.0358
824,0.0361
825,0.0374
826,0.0388
827,0.0371
828,0.0396
829,0.0405
830,0.0421
831,0.0431
832,0.0432
833,0.0431
834,0.0439
835,0.0455
836,0.0448
837,0.0471
838,0.0471
839,0.0472
840,0.0483
841,0.0499
842,0.0516
843,0.0490
844,0.0521
845,0.0518
846,0.0535
847,0.0535
848,0.0564
849,0.0566
850,0.0553
851,0.0606
852,0.0576
853,0.0601
854,0.0627
855,0.0602
856,0.0616
857,0.0621
858,0.0627
859,0.0637
860,0.0645
861,0.0641
862,0.0681
863,0.0665
864,0.0678
865,0.0688
866,0.0701
867,0.0695
868,0.0695
869,0.0663
870,0.0683
871,0.0696
872,0.0679
873,0.0680
874,0.0691
875,0.0660
876,0.0678
877,0.0694
878,0.0679
879,0.0684
880,0.0709
881,0.0682
882,0.0726
883,0.0738
884,0.0710
885,0.0715
886,0.0743
887,0.0759
888,0.0741
889,0.0755
890,0.0776
891,0.0780
892,0.0792
893,0.0826
894,0.0809
895,0.0811
896,0.0843
897,0.0808
898,0.0797
899,0.0817
900,0.0797
901,0.0820
902,0.0815
903,0.0823
904,0.0809
905,0.0813
906,0.0829
907,0.0826
908,0.0839
909,0.0786
910,0.0795
911,0.0715
912,0.0736
913,0.0684
914,0.0704
915,0.0688
916,0.0655
917,0.0618
918,0.0573
919,0.0560
920,0.0581
921,0.0514
922,0.0502
923,0.0466
924,0.0446
925,0.0444
926,0.0421
927,0.0389
928,0.0353
929,0.0373
930,0.0341
931,0.0296
932,0.0293
933,0.0262
934,0.0243
935,0.0215
936,0.0171
937,0.0138
938,0.0150
939,0.0118
940,0.0123
941,0.0108
942,0.0080
943,0.0060
944,0.0070
945,0.0078
946,0.0043
947,0.0122
