382,NaN
383,0.1294
384,1.0000
385,1.0000
386,1.0000
387,0.3590
388,0.2950
389,0.0713
390,0.2901
391,0.1335
392,0.5311
393,0.2018
394,0.2295
395,0.0365
396,0.2253
397,0.0000
398,0.1342
399,0.2413
400,0.2298
401,0.2863
402,0.1158
403,0.1227
404,0.1891
405,0.1621
406,0.1615
407,0.1383
408,0.1799
409,0.1335
410,0.1399
411,0.1811
412,0.1732
413,0.1410
414,0.1354
415,0.1305
416,0.1618
417,0.1500
418,0.0989
419,0.1006
420,0.1811
421,0.1055
422,0.1718
423,0.1295
424,0.2035
425,0.1797
426,0.2012
427,0.1623
428,0.1807
429,0.1955
430,0.1547
431,0.2131
432,0.1677
433,0.1707
434,0.1780
435,0.1820
436,0.1973
437,0.1442
438,0.1663
439,0.1646
440,0.1836
441,0.1663
442,0.1348
443,0.1455
444,0.1213
445,0.1299
446,0.0997
447,0.0997
448,0.0933
449,0.1036
450,0.0971
451,0.0838
452,0.0878
453,0.1105
454,0.1285
455,0.1264
456,0.1101
457,0.1129
458,0.1205
459,0.1248
460,0.1204
461,0.1395
462,0.1332
463,0.1559
464,0.1547
465,0.1347
466,0.1717
467,0.1633
468,0.1780
469,0.1899
470,0.1772
471,0.1789
472,0.2012
473,0.1883
474,0.1986
475,0.1963
476,0.2082
477,0.2170
478,0.2055
479,0.2231
480,0.2178
481,0.2043
482,0.2085
483,0.2119
484,0.2097
485,0.2120
486,0.2047
487,0.2057
488,0.1966
489,0.1904
490,0.1902
491,0.1820
492,0.1732
493,0.1781
494,0.1716
495,0.1601
496,0.1556
497,0.1431
498,0.1444
499,0.1351
500,0.1304
501,0.1260
502,0.1264
503,0.1194
504,0.1107
505,0.1116
506,0.1122
507,0.1108
508,0.1105
509,0.1101
510,0.1052
511,0.1008
512,0.1044
513,0.1003
514,0.1079
515,0.1056
516,0.1109
517,0.1045
518,0.1052
519,0.1084
520,0.1109
521,0.1089
522,0.1092
523,0.1065
524,0.1118
525,0.1135
526,0.1132
527,0.1167
528,0.1167
529,0.1175
530,0.1164
531,0.1172
532,0.1195
533,0.1171
534,0.1187
535,0.1157
536,0.1188
537,0.1174
538,0.1197
539,0.1152
540,0.1147
541,0.1140
542,0.1124
543,0.1134
544,0.1097
545,0.1096
546,0.1088
547,0.1075
548,0.1041
549,0.1007
550,0.1008
551,0.0971
552,0.0972
553,0.0943
554,0.0929
555,0.0896
556,0.0864
557,0.0833
558,0.0826
559,0.0795
560,0.0779
561,0.0751
562,0.0738
563,0.0718
564,0.0685
565,0.0673
566,0.0648
567,0.0644
568,0.0643
569,0.0614
570,0.0601
571,0.0596
572,0.0587
573,0.0566
574,0.0545
575,0.0547
576,0.0542
577,0.0526
578,0.0530
579,0.0536
580,0.0527
581,0.0519
582,0.0527
583,0.0521
584,0.0533
585,0.0541
586,0.0546
587,0.0563
588,0.0571
589,0.0570
590,0.0584
591,0.0605
592,0.0618
593,0.0625
594,0.0636
595,0.0650
596,0.0666
597,0.0678
598,0.0698
599,0.0724
600,0.0726
601,0.0751
602,0.0758
603,0.0767
604,0.0787
605,0.0796
606,0.0804
607,0.0830
608,0.0846
609,0.0859
610,0.0864
611,0.0874
612,0.0893
613,0.0908
614,0.0905
615,0.0924
616,0.0931
617,0.0933
618,0.0940
619,0.0957
620,0.0942
621,0.0964
622,0.0968
623,0.0973
624,0.0972
625,0.0969
626,0.0962
627,0.0975
628,0.0970
629,0.0952
630,0.0951
631,0.0954
632,0.0936
633,0.0927
634,0.0905
635,0.0909
636,0.0887
637,0.0897
638,0.0871
639,0.0860
640,0.0864
641,0.0848
642,0.0839
643,0.0827
644,0.0807
645,0.0799
646,0.0781
647,0.0761
648,0.0755
649,0.0725
650,0.0710
651,0.0701
652,0.0676
653,0.0656
654,0.0658
655,0.0653
656,0.0622
657,0.0603
658,0.0589
659,0.0584
660,0.0571
661,0.0556
662,0.0544
663,0.0544
664,0.0525
665,0.0516
666,0.0509
667,0.0507
668,0.0492
669,0.0493
670,0.0480
671,0.0481
672,0.0472
673,0.0466
674,0.0459
675,0.0446
676,0.0459
677,0.0463
678,0.0451
679,0.0438
680,0.0444
681,0.0446
682,0.0446
683,0.0458
684,0.0456
685,0.0450
686,0.0458
687,0.0447
688,0.0464
689,0.0476
690,0.0473
691,0.0481
692,0.0482
693,0.0489
694,0.0496
695,0.0500
696,0.0504
697,0.0522
698,0.0533
699,0.0528
700,0.0545
701,0.0546
702,0.0571
703,0.0561
704,0.0564
705,0.0567
706,0.0586
707,0.0590
708,0.0598
709,0.0614
710,0.0612
711,0.0629
712,0.0623
713,0.0630
714,0.0632
715,0.0644
716,0.0640
717,0.0651
718,0.0659
719,0.0645
720,0.0660
721,0.0645
722,0.0635
723,0.0647
724,0.0642
725,0.0643
726,0.0646
727,0.0663
728,0.0650
729,0.0661
730,0.0669
731,0.0658
732,0.0667
733,0.0668
734,0.0672
735,0.0675
736,0.0668
737,0.0690
738,0.0693
739,0.0675
740,0.0681
741,0.0688
742,0.0674
743,0.0672
744,0.0684
745,0.0683
746,0.0674
747,0.0681
748,0.0684
749,0.0673
750,0.0679
751,0.0693
752,0.0680
753,0.0680
754,0.0687
755,0.0695
756,0.0687
757,0.0681
758,0.0671
759,0.0685
760,0.0664
761,0.0658
762,0.0666
763,0.0659
764,0.0654
765,0.0647
766,0.0638
767,0.0630
768,0.0622
769,0.0612
770,0.0608
771,0.0616
772,0.0598
773,0.0583
774,0.0609
775,0.0587
776,0.0572
777,0.0576
778,0.0572
779,0.0581
780,0.0557
781,0.0550
782,0.0559
783,0.0537
784,0.0537
785,0.0539
786,0.0529
787,0.0526
788,0.0534
789,0.0521
790,0.0508
791,0.0500
792,0.0505
793,0.0494
794,0.0492
795,0.0482
796,0.0480
797,0.0482
798,0.0482
799,0.0481
800,0.0499
801,0.0477
802,0.0487
803,0.0501
804,0.0490
805,0.0480
806,0.0481
807,0.0495
808,0.0488
809,0.0502
810,0.0508
811,0.0496
812,0.0496
813,0.0505
814,0.0496
815,0.0502
816,0.0493
817,0.0509
818,0.0497
819,0.0507
820,0.0521
821,0.0500
822,0.0503
823,0.0504
824,0.0504
825,0.0502
826,0.0503
827,0.0483
828,0.0492
829,0.0495
830,0.0493
831,0.0499
832,0.0484
833,0.0465
834,0.0472
835,0.0475
836,0.0468
837,0.0475
838,0.0467
839,0.0465
840,0.0445
841,0.0453
842,0.0457
843,0.0444
844,0.0456
845,0.0452
846,0.0452
847,0.0452
848,0.0455
849,0.0455
850,0.0457
851,0.0442
852,0.0443
853,0.0456
854,0.0457
855,0.0471
856,0.0457
857,0.0475
858,0.0462
859,0.0452
860,0.0451
861,0.0468
862,0.0449
863,0.0481
864,0.0476
865,0.0454
866,0.0452
867,0.0455
868,0.0452
869,0.0461
870,0.0465
871,0.0444
872,0.0465
873,0.0451
874,0.0447
875,0.0464
876,0.0472
877,0.0473
878,0.0467
879,0.0469
880,0.0472
881,0.0470
882,0.0485
883,0.0471
884,0.0483
885,0.0506
886,0.0504
887,0.0503
888,0.0509
889,0.0503
890,0.0527
891,0.0542
892,0.0563
893,0.0588
894,0.0583
895,0.0602
896,0.0585
897,0.0602
898,0.0582
899,0.0614
900,0.0621
901,0.0631
902,0.0601
903,0.0618
904,0.0654
905,0.0661
906,0.0681
907,0.0690
908,0.0678
909,0.0655
910,0.0650
911,0.0633
912,0.0630
913,0.0638
914,0.0608
915,0.0581
916,0.0598
917,0.0556
918,0.0534
919,0.0527
920,0.0556
921,0.0484
922,0.0486
923,0.0488
924,0.0477
925,0.0479
926,0.0422
927,0.0438
928,0.0436
929,0.0430
930,0.0386
931,0.0376
932,0.0382
933,0.0343
934,0.0338
935,0.0300
936,0.0270
937,0.0221
938,0.0218
939,0.0186
940,0.0156
941,0.0163
942,0.0145
943,0.0084
944,0.0132
945,0.0130
946,0.0104
947,0.0179
