382,NaN
383,0.3048
384,0.6224
385,1.0000
386,0.3968
387,0.2287
388,0.3427
389,0.3826
390,0.3167
391,0.3746
392,0.3364
393,0.1982
394,0.2364
395,0.0000
396,0.4636
397,0.1133
398,0.1261
399,0.1265
400,0.2509
401,0.4244
402,0.0000
403,0.1612
404,0.1284
405,0.1416
406,0.0387
407,0.0954
408,0.1268
409,0.1173
410,0.1175
411,0.2219
412,0.1664
413,0.0897
414,0.1000
415,0.0921
416,0.0992
417,0.1303
418,0.1430
419,0.0932
420,0.1113
421,0.0753
422,0.0685
423,0.1282
424,0.0913
425,0.1248
426,0.1751
427,0.1359
428,0.1261
429,0.1643
430,0.1838
431,0.2134
432,0.1578
433,0.2170
434,0.1964
435,0.2018
436,0.2073
437,0.2319
438,0.1962
439,0.2096
440,0.2382
441,0.2431
442,0.2264
443,0.2352
444,0.1843
445,0.2099
446,0.1831
447,0.1885
448,0.1749
449,0.1859
450,0.1996
451,0.1485
452,0.1419
453,0.1597
454,0.1656
455,0.1424
456,0.1265
457,0.1149
458,0.1199
459,0.1125
460,0.1159
461,0.1190
462,0.1131
463,0.1076
464,0.0807
465,0.0839
466,0.0876
467,0.0691
468,0.0878
469,0.0870
470,0.0757
471,0.0828
472,0.0866
473,0.0770
474,0.0819
475,0.0940
476,0.0852
477,0.1045
478,0.1003
479,0.1143
480,0.1253
481,0.1169
482,0.1200
483,0.1490
484,0.1487
485,0.1635
486,0.1713
487,0.1896
488,0.1866
489,0.2040
490,0.2126
491,0.2092
492,0.2252
493,0.2361
494,0.2363
495,0.2487
496,0.2439
497,0.2421
498,0.2518
499,0.2384
500,0.2608
501,0.2524
502,0.2548
503,0.2330
504,0.2306
505,0.2353
506,0.2298
507,0.2216
508,0.2283
509,0.2141
510,0.2023
511,0.1914
512,0.1911
513,0.1803
514,0.1765
515,0.1682
516,0.1610
517,0.1526
518,0.1409
519,0.1379
520,0.1363
521,0.1252
522,0.1214
523,0.1117
524,0.1114
525,0.1051
526,0.1017
527,0.0923
528,0.0910
529,0.0869
530,0.0831
531,0.0754
532,0.0758
533,0.0694
534,0.0692
535,0.0624
536,0.0634
537,0.0593
538,0.0548
539,0.0534
540,0.0517
541,0.0492
542,0.0475
543,0.0463
544,0.0453
545,0.0442
546,0.0437
547,0.0431
548,0.0423
549,0.0427
550,0.0411
551,0.0430
552,0.0449
553,0.0447
554,0.0457
555,0.0461
556,0.0466
557,0.0498
558,0.0503
559,0.0530
560,0.0538
561,0.0567
562,0.0578
563,0.0595
564,0.0633
565,0.0644
566,0.0651
567,0.0682
568,0.0714
569,0.0751
570,0.0775
571,0.0801
572,0.0826
573,0.0843
574,0.0866
575,0.0889
576,0.0909
577,0.0949
578,0.0931
579,0.0986
580,0.0983
581,0.1004
582,0.1021
583,0.1016
584,0.1037
585,0.1049
586,0.1055
587,0.1060
588,0.1048
589,0.1067
590,0.1088
591,0.1079
592,0.1081
593,0.1087
594,0.1086
595,0.1073
596,0.1088
597,0.1087
598,0.1074
599,0.1072
600,0.1072
601,0.1060
602,0.1056
603,0.1038
604,0.1046
605,0.1020
606,0.1012
607,0.1012
608,0.1002
609,0.0985
610,0.0960
611,0.0959
612,0.0941
613,0.0921
614,0.0905
615,0.0907
616,0.0875
617,0.0862
618,0.0847
619,0.0823
620,0.0794
621,0.0801
622,0.0783
623,0.0760
624,0.0741
625,0.0722
626,0.0689
627,0.0680
628,0.0665
629,0.0652
630,0.0623
631,0.0613
632,0.0575
633,0.0555
634,0.0532
635,0.0521
636,0.0500
637,0.0498
638,0.0476
639,0.0463
640,0.0451
641,0.0453
642,0.0427
643,0.0423
644,0.0404
645,0.0394
646,0.0383
647,0.0376
648,0.0368
649,0.0346
650,0.0344
651,0.0340
652,0.0340
653,0.0337
654,0.0323
655,0.0333
656,0.0316
657,0.0318
658,0.0325
659,0.0315
660,0.0323
661,0.0330
662,0.0333
663,0.0335
664,0.0339
665,0.0345
666,0.0348
667,0.0352
668,0.0370
669,0.0381
670,0.0390
671,0.0397
672,0.0393
673,0.0409
674,0.0418
675,0.0436
676,0.0449
677,0.0445
678,0.0468
679,0.0472
680,0.0490
681,0.0504
682,0.0520
683,0.0537
684,0.0545
685,0.0557
686,0.0570
687,0.0576
688,0.0601
689,0.0622
690,0.0625
691,0.0643
692,0.0653
693,0.0665
694,0.0683
695,0.0702
696,0.0711
697,0.0737
698,0.0742
699,0.0758
700,0.0767
701,0.0783
702,0.0795
703,0.0797
704,0.0789
705,0.0809
706,0.0825
707,0.0836
708,0.0844
709,0.0850
710,0.0843
711,0.0878
712,0.0869
713,0.0871
714,0.0875
715,0.0881
716,0.0877
717,0.0876
718,0.0875
719,0.0880
720,0.0871
721,0.0851
722,0.0855
723,0.0857
724,0.0836
725,0.0843
726,0.0835
727,0.0833
728,0.0832
729,0.0828
730,0.0815
731,0.0816
732,0.0839
733,0.0813
734,0.0817
735,0.0829
736,0.0793
737,0.0801
738,0.0800
739,0.0787
740,0.0784
741,0.0779
742,0.0757
743,0.0749
744,0.0752
745,0.0764
746,0.0739
747,0.0737
748,0.0729
749,0.0726
750,0.0721
751,0.0712
752,0.0703
753,0.0706
754,0.0697
755,0.0705
756,0.0675
757,0.0673
758,0.0666
759,0.0647
760,0.0644
761,0.0631
762,0.0625
763,0.0611
764,0.0610
765,0.0597
766,0.0577
767,0.0569
768,0.0546
769,0.0534
770,0.0517
771,0.0511
772,0.0509
773,0.0490
774,0.0491
775,0.0472
776,0.0463
777,0.0454
778,0.0446
779,0.0445
780,0.0423
781,0.0418
782,0.0403
783,0.0391
784,0.0382
785,0.0386
786,0.0386
787,0.0356
788,0.0352
789,0.0348
790,0.0348
791,0.0327
792,0.0332
793,0.0311
794,0.0320
795,0.0310
796,0.0296
797,0.0301
798,0.0293
799,0.0287
800,0.0290
801,0.0278
802,0.0274
803,0.0273
804,0.0282
805,0.0267
806,0.0272
807,0.0275
808,0.0275
809,0.0269
810,0.0288
811,0.0276
812,0.0259
813,0.0272
814,0.0261
815,0.0262
816,0.0276
817,0.0262
818,0.0272
819,0.0284
820,0.0299
821,0.0277
822,0.0273
823,0.0277
824,0.0275
825,0.0286
826,0.0283
827,0.0280
828,0.0281
829,0.0278
830,0.0286
831,0.0289
832,0.0294
833,0.0282
834,0.0294
835,0.0308
836,0.0303
837,0.0298
838,0.0298
839,0.0294
840,0.0299
841,0.0298
842,0.0305
843,0.0296
844,0.0314
845,0.0320
846,0.0321
847,0.0318
848,0.0347
849,0.0340
850,0.0342
851,0.0365
852,0.0353
853,0.0355
854,0.0375
855,0.0373
856,0.0376
857,0.0386
858,0.0387
859,0.0392
860,0.0395
861,0.0422
862,0.0419
863,0.0418
864,0.0427
865,0.0409
866,0.0425
867,0.0443
868,0.0441
869,0.0441
870,0.0440
871,0.0452
872,0.0443
873,0.0475
874,0.0445
875,0.0478
876,0.0457
877,0.0479
878,0.0472
879,0.0496
880,0.0506
881,0.0494
882,0.0518
883,0.0539
884,0.0539
885,0.0578
886,0.0567
887,0.0604
888,0.0590
889,0.0630
890,0.0647
891,0.0621
892,0.0643
893,0.0685
894,0.0690
895,0.0697
896,0.0735
897,0.0748
898,0.0730
899,0.0731
900,0.0779
901,0.0766
902,0.0778
903,0.0783
904,0.0834
905,0.0866
906,0.0817
907,0.0885
908,0.0885
909,0.0871
910,0.0886
911,0.0825
912,0.0847
913,0.0820
914,0.0798
915,0.0848
916,0.0814
917,0.0750
918,0.0761
919,0.0721
920,0.0769
921,0.0698
922,0.0696
923,0.0652
924,0.0679
925,0.0642
926,0.0623
927,0.0590
928,0.0574
929,0.0591
930,0.0549
931,0.0515
932,0.0510
933,0.0498
934,0.0475
935,0.0433
936,0.0383
937,0.0348
938,0.0330
939,0.0245
940,0.0248
941,0.0223
942,0.0187
943,0.0171
944,0.0198
945,0.0194
946,0.0158
947,0.0191
