382,NaN
383,0.3351
384,0.6469
385,1.0000
386,0.0000
387,0.2296
388,0.3457
389,0.0301
390,0.0000
391,0.1317
392,0.3643
393,0.1896
394,0.0596
395,0.0086
396,0.3937
397,0.0153
398,0.0499
399,0.1220
400,0.1545
401,0.2806
402,0.0150
403,0.1313
404,0.1049
405,0.1661
406,0.1967
407,0.1650
408,0.1402
409,0.1029
410,0.2481
411,0.2198
412,0.2651
413,0.1837
414,0.2075
415,0.2472
416,0.1811
417,0.2918
418,0.1681
419,0.2586
420,0.2368
421,0.2002
422,0.2259
423,0.1869
424,0.1680
425,0.2293
426,0.2076
427,0.1453
428,0.2055
429,0.1686
430,0.2190
431,0.1831
432,0.1481
433,0.1231
434,0.1334
435,0.1284
436,0.1124
437,0.1495
438,0.1032
439,0.0785
440,0.1064
441,0.1126
442,0.0849
443,0.0996
444,0.0612
445,0.0686
446,0.0741
447,0.0736
448,0.0579
449,0.0778
450,0.0727
451,0.0461
452,0.0484
453,0.0952
454,0.0751
455,0.0860
456,0.0871
457,0.0742
458,0.0910
459,0.1058
460,0.1069
461,0.1321
462,0.1250
463,0.1388
464,0.1340
465,0.1307
466,0.1415
467,0.1452
468,0.1697
469,0.1882
470,0.1861
471,0.2003
472,0.2128
473,0.2138
474,0.2175
475,0.2338
476,0.2430
477,0.2558
478,0.2611
479,0.2921
480,0.2755
481,0.2633
482,0.2736
483,0.2874
484,0.2876
485,0.2843
486,0.2994
487,0.3016
488,0.2896
489,0.2815
490,0.2780
491,0.2698
492,0.2639
493,0.2753
494,0.2590
495,0.2542
496,0.2375
497,0.2137
498,0.2233
499,0.1953
500,0.1931
501,0.1734
502,0.1660
503,0.1480
504,0.1419
505,0.1335
506,0.1220
507,0.1174
508,0.1060
509,0.0968
510,0.0941
511,0.0786
512,0.0730
513,0.0684
514,0.0670
515,0.0596
516,0.0584
517,0.0569
518,0.0470
519,0.0498
520,0.0498
521,0.0427
522,0.0449
523,0.0437
524,0.0447
525,0.0452
526,0.0468
527,0.0467
528,0.0478
529,0.0486
530,0.0485
531,0.0544
532,0.0563
533,0.0557
534,0.0613
535,0.0615
536,0.0659
537,0.0692
538,0.0683
539,0.0731
540,0.0744
541,0.0781
542,0.0807
543,0.0839
544,0.0874
545,0.0896
546,0.0934
547,0.0954
548,0.0978
549,0.0979
550,0.1019
551,0.1036
552,0.1056
553,0.1099
554,0.1102
555,0.1130
556,0.1144
557,0.1180
558,0.1187
559,0.1204
560,0.1188
561,0.1197
562,0.1239
563,0.1219
564,0.1229
565,0.1245
566,0.1227
567,0.1233
568,0.1245
569,0.1247
570,0.1238
571,0.1228
572,0.1225
573,0.1199
574,0.1201
575,0.1176
576,0.1176
577,0.1138
578,0.1116
579,0.1127
580,0.1093
581,0.1079
582,0.1024
583,0.1014
584,0.1000
585,0.0970
586,0.0937
587,0.0928
588,0.0887
589,0.0854
590,0.0845
591,0.0808
592,0.0785
593,0.0753
594,0.0741
595,0.0714
596,0.0684
597,0.0668
598,0.0649
599,0.0622
600,0.0601
601,0.0580
602,0.0570
603,0.0543
604,0.0522
605,0.0507
606,0.0483
607,0.0484
608,0.0457
609,0.0439
610,0.0421
611,0.0418
612,0.0400
613,0.0388
614,0.0388
615,0.0368
616,0.0366
617,0.0358
618,0.0353
619,0.0346
620,0.0336
621,0.0335
622,0.0361
623,0.0346
624,0.0346
625,0.0351
626,0.0351
627,0.0348
628,0.0360
629,0.0374
630,0.0353
631,0.0366
632,0.0376
633,0.0384
634,0.0387
635,0.0385
636,0.0413
637,0.0424
638,0.0431
639,0.0438
640,0.0466
641,0.0477
642,0.0485
643,0.0500
644,0.0504
645,0.0530
646,0.0536
647,0.0553
648,0.0576
649,0.0575
650,0.0592
651,0.0607
652,0.0606
653,0.0638
654,0.0641
655,0.0654
656,0.0659
657,0.0682
658,0.0687
659,0.0696
660,0.0728
661,0.0736
662,0.0750
663,0.0760
664,0.0770
665,0.0790
666,0.0793
667,0.0809
668,0.0826
669,0.0840
670,0.0844
671,0.0852
672,0.0868
673,0.0859
674,0.0857
675,0.0879
676,0.0889
677,0.0893
678,0.0910
679,0.0902
680,0.0911
681,0.0916
682,0.0914
683,0.0914
684,0.0926
685,0.0927
686,0.0927
687,0.0926
688,0.0938
689,0.0939
690,0.0941
691,0.0950
692,0.0938
693,0.0917
694,0.0928
695,0.0934
696,0.0929
697,0.0945
698,0.0934
699,0.0929
700,0.0919
701,0.0920
702,0.0901
703,0.0900
704,0.0888
705,0.0882
706,0.0872
707,0.0858
708,0.0857
709,0.0847
710,0.0824
711,0.0824
712,0.0809
713,0.0812
714,0.0788
715,0.0772
716,0.0769
717,0.0752
718,0.0729
719,0.0715
720,0.0702
721,0.0684
722,0.0662
723,0.0650
724,0.0622
725,0.0619
726,0.0611
727,0.0599
728,0.0576
729,0.0561
730,0.0550
731,0.0536
732,0.0531
733,0.0515
734,0.0518
735,0.0507
736,0.0492
737,0.0473
738,0.0469
739,0.0451
740,0.0447
741,0.0435
742,0.0422
743,0.0412
744,0.0402
745,0.0395
746,0.0380
747,0.0379
748,0.0374
749,0.0349
750,0.0363
751,0.0350
752,0.0342
753,0.0339
754,0.0337
755,0.0333
756,0.0314
757,0.0312
758,0.0299
759,0.0304
760,0.0289
761,0.0285
762,0.0281
763,0.0287
764,0.0279
765,0.0269
766,0.0264
767,0.0270
768,0.0260
769,0.0247
770,0.0253
771,0.0258
772,0.0251
773,0.0253
774,0.0253
775,0.0252
776,0.0261
777,0.0250
778,0.0248
779,0.0259
780,0.0244
781,0.0259
782,0.0256
783,0.0257
784,0.0255
785,0.0266
786,0.0267
787,0.0269
788,0.0271
789,0.0275
790,0.0280
791,0.0270
792,0.0288
793,0.0287
794,0.0297
795,0.0290
796,0.0303
797,0.0330
798,0.0315
799,0.0325
800,0.0333
801,0.0352
802,0.0346
803,0.0367
804,0.0379
805,0.0387
806,0.0387
807,0.0407
808,0.0417
809,0.0428
810,0.0455
811,0.0437
812,0.0448
813,0.0459
814,0.0478
815,0.0487
816,0.0488
817,0.0498
818,0.0509
819,0.0529
820,0.0548
821,0.0567
822,0.0566
823,0.0565
824,0.0564
825,0.0598
826,0.0586
827,0.0576
828,0.0601
829,0.0598
830,0.0592
831,0.0613
832,0.0594
833,0.0602
834,0.0603
835,0.0622
836,0.0613
837,0.0610
838,0.0606
839,0.0610
840,0.0598
841,0.0603
842,0.0630
843,0.0617
844,0.0616
845,0.0601
846,0.0612
847,0.0636
848,0.0632
849,0.0625
850,0.0641
851,0.0655
852,0.0628
853,0.0642
854,0.0649
855,0.0649
856,0.0637
857,0.0660
858,0.0669
859,0.0659
860,0.0655
861,0.0675
862,0.0683
863,0.0669
864,0.0680
865,0.0660
866,0.0669
867,0.0678
868,0.0659
869,0.0673
870,0.0665
871,0.0663
872,0.0660
873,0.0642
874,0.0643
875,0.0644
876,0.0667
877,0.0656
878,0.0639
879,0.0646
880,0.0665
881,0.0654
882,0.0680
883,0.0677
884,0.0685
885,0.0678
886,0.0691
887,0.0717
888,0.0718
889,0.0747
890,0.0735
891,0.0744
892,0.0764
893,0.0767
894,0.0785
895,0.0779
896,0.0802
897,0.0795
898,0.0783
899,0.0792
900,0.0810
901,0.0818
902,0.0789
903,0.0835
904,0.0841
905,0.0870
906,0.0881
907,0.0878
908,0.0837
909,0.0829
910,0.0855
911,0.0787
912,0.0817
913,0.0751
914,0.0741
915,0.0742
916,0.0721
917,0.0696
918,0.0684
919,0.0665
920,0.0653
921,0.0597
922,0.0591
923,0.0562
924,0.0552
925,0.0521
926,0.0511
927,0.0477
928,0.0469
929,0.0471
930,0.0448
931,0.0435
932,0.0401
933,0.0384
934,0.0375
935,0.0333
936,0.0288
937,0.0242
938,0.0232
939,0.0190
940,0.0166
941,0.0160
942,0.0147
943,0.0129
944,0.0132
945,0.0129
946,0.0103
947,0.0161
