382,NaN
383,0.3100
384,1.0000
385,1.0000
386,0.0000
387,0.3576
388,0.3131
389,0.1527
390,0.0702
391,0.2208
392,0.2858
393,0.2518
394,0.0432
395,0.1072
396,0.1250
397,0.0008
398,0.1060
399,0.0065
400,0.1344
401,0.2877
402,0.0000
403,0.0656
404,0.1156
405,0.1323
406,0.0880
407,0.1795
408,0.1375
409,0.1572
410,0.0887
411,0.1441
412,0.0874
413,0.0654
414,0.0043
415,0.0296
416,0.1086
417,0.1277
418,0.0796
419,0.0960
420,0.0561
421,0.0953
422,0.0764
423,0.1209
424,0.0633
425,0.0472
426,0.1616
427,0.1111
428,0.1149
429,0.1486
430,0.1441
431,0.1373
432,0.1639
433,0.1640
434,0.1792
435,0.1652
436,0.1817
437,0.1834
438,0.1893
439,0.1530
440,0.1896
441,0.2002
442,0.1848
443,0.2374
444,0.1896
445,0.2002
446,0.1718
447,0.1928
448,0.1942
449,0.1851
450,0.1987
451,0.1852
452,0.1685
453,0.1943
454,0.1891
455,0.1814
456,0.1838
457,0.1847
458,0.1596
459,0.1746
460,0.1542
461,0.1680
462,0.1625
463,0.1775
464,0.1714
465,0.1490
466,0.1638
467,0.1408
468,0.1550
469,0.1611
470,0.1518
471,0.1344
472,0.1527
473,0.1393
474,0.1479
475,0.1370
476,0.1310
477,0.1431
478,0.1336
479,0.1424
480,0.1383
481,0.1315
482,0.1302
483,0.1299
484,0.1291
485,0.1381
486,0.1310
487,0.1322
488,0.1269
489,0.1144
490,0.1246
491,0.1291
492,0.1273
493,0.1277
494,0.1263
495,0.1267
496,0.1261
497,0.1183
498,0.1258
499,0.1158
500,0.1200
501,0.1204
502,0.1217
503,0.1105
504,0.1174
505,0.1169
506,0.1203
507,0.1220
508,0.1208
509,0.1163
510,0.1186
511,0.1117
512,0.1142
513,0.1116
514,0.1134
515,0.1117
516,0.1112
517,0.1105
518,0.1078
519,0.1066
520,0.1063
521,0.1030
522,0.1099
523,0.1047
524,0.1070
525,0.1067
526,0.1070
527,0.1082
528,0.1076
529,0.1105
530,0.1089
531,0.1064
532,0.1086
533,0.1077
534,0.1090
535,0.1075
536,0.1087
537,0.1099
538,0.1090
539,0.1087
540,0.1102
541,0.1106
542,0.1075
543,0.1069
544,0.1086
545,0.1082
546,0.1090
547,0.1094
548,0.1064
549,0.1085
550,0.1047
551,0.1043
552,0.1038
553,0.1066
554,0.1055
555,0.1038
556,0.1035
557,0.1020
558,0.1002
559,0.0999
560,0.0994
561,0.0978
562,0.0994
563,0.0972
564,0.0954
565,0.0949
566,0.0926
567,0.0924
568,0.0924
569,0.0921
570,0.0897
571,0.0893
572,0.0888
573,0.0865
574,0.0847
575,0.0835
576,0.0818
577,0.0803
578,0.0789
579,0.0798
580,0.0754
581,0.0744
582,0.0729
583,0.0709
584,0.0694
585,0.0672
586,0.0671
587,0.0659
588,0.0648
589,0.0626
590,0.0633
591,0.0594
592,0.0588
593,0.0584
594,0.0590
595,0.0570
596,0.0559
597,0.0553
598,0.0537
599,0.0535
600,0.0533
601,0.0529
602,0.0516
603,0.0512
604,0.0503
605,0.0497
606,0.0489
607,0.0486
608,0.0505
609,0.0490
610,0.0487
611,0.0482
612,0.0496
613,0.0498
614,0.0493
615,0.0497
616,0.0484
617,0.0482
618,0.0496
619,0.0497
620,0.0491
621,0.0497
622,0.0509
623,0.0507
624,0.0517
625,0.0507
626,0.0531
627,0.0532
628,0.0535
629,0.0543
630,0.0554
631,0.0551
632,0.0537
633,0.0560
634,0.0560
635,0.0563
636,0.0560
637,0.0579
638,0.0562
639,0.0589
640,0.0600
641,0.0598
642,0.0614
643,0.0603
644,0.0621
645,0.0623
646,0.0628
647,0.0636
648,0.0645
649,0.0638
650,0.0654
651,0.0647
652,0.0648
653,0.0661
654,0.0661
655,0.0661
656,0.0667
657,0.0676
658,0.0678
659,0.0674
660,0.0686
661,0.0682
662,0.0690
663,0.0710
664,0.0713
665,0.0712
666,0.0723
667,0.0731
668,0.0733
669,0.0730
670,0.0738
671,0.0752
672,0.0744
673,0.0748
674,0.0741
675,0.0752
676,0.0760
677,0.0759
678,0.0774
679,0.0750
680,0.0762
681,0.0769
682,0.0770
683,0.0770
684,0.0770
685,0.0783
686,0.0785
687,0.0768
688,0.0784
689,0.0796
690,0.0793
691,0.0811
692,0.0790
693,0.0793
694,0.0803
695,0.0798
696,0.0805
697,0.0803
698,0.0809
699,0.0812
700,0.0812
701,0.0801
702,0.0799
703,0.0791
704,0.0784
705,0.0786
706,0.0786
707,0.0783
708,0.0785
709,0.0786
710,0.0768
711,0.0784
712,0.0757
713,0.0767
714,0.0765
715,0.0750
716,0.0756
717,0.0742
718,0.0736
719,0.0732
720,0.0715
721,0.0696
722,0.0678
723,0.0692
724,0.0673
725,0.0660
726,0.0655
727,0.0662
728,0.0648
729,0.0630
730,0.0628
731,0.0636
732,0.0622
733,0.0626
734,0.0614
735,0.0606
736,0.0604
737,0.0593
738,0.0596
739,0.0590
740,0.0574
741,0.0569
742,0.0565
743,0.0543
744,0.0564
745,0.0547
746,0.0544
747,0.0533
748,0.0548
749,0.0542
750,0.0523
751,0.0529
752,0.0517
753,0.0528
754,0.0520
755,0.0524
756,0.0511
757,0.0516
758,0.0496
759,0.0503
760,0.0492
761,0.0475
762,0.0478
763,0.0474
764,0.0461
765,0.0469
766,0.0453
767,0.0442
768,0.0443
769,0.0431
770,0.0425
771,0.0434
772,0.0409
773,0.0416
774,0.0434
775,0.0419
776,0.0414
777,0.0395
778,0.0414
779,0.0397
780,0.0394
781,0.0391
782,0.0381
783,0.0370
784,0.0372
785,0.0365
786,0.0360
787,0.0369
788,0.0367
789,0.0370
790,0.0360
791,0.0350
792,0.0363
793,0.0342
794,0.0351
795,0.0337
796,0.0335
797,0.0351
798,0.0333
799,0.0348
800,0.0351
801,0.0333
802,0.0333
803,0.0346
804,0.0355
805,0.0352
806,0.0344
807,0.0362
808,0.0366
809,0.0363
810,0.0374
811,0.0378
812,0.0361
813,0.0359
814,0.0367
815,0.0362
816,0.0365
817,0.0372
818,0.0365
819,0.0381
820,0.0390
821,0.0392
822,0.0381
823,0.0381
824,0.0373
825,0.0381
826,0.0373
827,0.0375
828,0.0366
829,0.0376
830,0.0379
831,0.0374
832,0.0373
833,0.0373
834,0.0376
835,0.0370
836,0.0374
837,0.0367
838,0.0363
839,0.0360
840,0.0343
841,0.0357
842,0.0370
843,0.0340
844,0.0353
845,0.0355
846,0.0352
847,0.0349
848,0.0351
849,0.0354
850,0.0342
851,0.0373
852,0.0366
853,0.0374
854,0.0376
855,0.0365
856,0.0375
857,0.0385
858,0.0372
859,0.0368
860,0.0389
861,0.0382
862,0.0383
863,0.0401
864,0.0381
865,0.0384
866,0.0396
867,0.0424
868,0.0400
869,0.0396
870,0.0394
871,0.0410
872,0.0407
873,0.0394
874,0.0396
875,0.0397
876,0.0405
877,0.0417
878,0.0408
879,0.0411
880,0.0435
881,0.0430
882,0.0439
883,0.0443
884,0.0453
885,0.0466
886,0.0476
887,0.0478
888,0.0471
889,0.0492
890,0.0540
891,0.0533
892,0.0541
893,0.0551
894,0.0561
895,0.0568
896,0.0576
897,0.0577
898,0.0602
899,0.0608
900,0.0633
901,0.0624
902,0.0619
903,0.0639
904,0.0654
905,0.0675
906,0.0685
907,0.0710
908,0.0715
909,0.0683
910,0.0704
911,0.0668
912,0.0678
913,0.0652
914,0.0648
915,0.0657
916,0.0658
917,0.0625
918,0.0634
919,0.0632
920,0.0620
921,0.0592
922,0.0584
923,0.0543
924,0.0545
925,0.0529
926,0.0535
927,0.0524
928,0.0486
929,0.0475
930,0.0480
931,0.0452
932,0.0421
933,0.0407
934,0.0408
935,0.0392
936,0.0323
937,0.0289
938,0.0256
939,0.0233
940,0.0206
941,0.0183
942,0.0171
943,0.0146
944,0.0162
945,0.0172
946,0.0178
947,0.0220
