382,NaN
383,1.0000
384,1.0000
385,1.0000
386,1.0000
387,0.1632
388,0.4523
389,0.1709
390,0.1124
391,0.1293
392,0.3155
393,0.3275
394,0.1330
395,0.0056
396,0.1246
397,0.0000
398,0.1535
399,0.1669
400,0.2051
401,0.3641
402,0.0000
403,0.2830
404,0.1846
405,0.2271
406,0.1759
407,0.1534
408,0.1376
409,0.1693
410,0.1855
411,0.2104
412,0.2091
413,0.1761
414,0.1403
415,0.1627
416,0.1268
417,0.1716
418,0.1379
419,0.1113
420,0.1606
421,0.0758
422,0.1339
423,0.1338
424,0.1200
425,0.1119
426,0.1743
427,0.1099
428,0.1381
429,0.1508
430,0.1443
431,0.1616
432,0.1392
433,0.1265
434,0.1492
435,0.1749
436,0.1771
437,0.1861
438,0.1637
439,0.1390
440,0.1773
441,0.1724
442,0.1674
443,0.1555
444,0.1701
445,0.1742
446,0.1474
447,0.1567
448,0.1205
449,0.1566
450,0.1524
451,0.1304
452,0.1214
453,0.1673
454,0.1458
455,0.1529
456,0.1391
457,0.1555
458,0.1293
459,0.1278
460,0.1212
461,0.1333
462,0.1495
463,0.1574
464,0.1282
465,0.1220
466,0.1253
467,0.1278
468,0.1295
469,0.1500
470,0.1347
471,0.1277
472,0.1470
473,0.1444
474,0.1449
475,0.1575
476,0.1567
477,0.1638
478,0.1630
479,0.1699
480,0.1687
481,0.1563
482,0.1679
483,0.1761
484,0.1710
485,0.1775
486,0.1765
487,0.1853
488,0.1826
489,0.1770
490,0.1890
491,0.1798
492,0.1797
493,0.1886
494,0.1781
495,0.1845
496,0.1774
497,0.1726
498,0.1808
499,0.1723
500,0.1763
501,0.1730
502,0.1708
503,0.1589
504,0.1535
505,0.1527
506,0.1548
507,0.1565
508,0.1496
509,0.1470
510,0.1409
511,0.1300
512,0.1276
513,0.1283
514,0.1284
515,0.1242
516,0.1208
517,0.1188
518,0.1119
519,0.1133
520,0.1118
521,0.1052
522,0.1076
523,0.1029
524,0.1047
525,0.1015
526,0.1002
527,0.1006
528,0.0979
529,0.0972
530,0.0977
531,0.0959
532,0.0930
533,0.0950
534,0.0965
535,0.0934
536,0.0931
537,0.0927
538,0.0941
539,0.0935
540,0.0905
541,0.0916
542,0.0881
543,0.0871
544,0.0869
545,0.0874
546,0.0887
547,0.0882
548,0.0871
549,0.0850
550,0.0858
551,0.0854
552,0.0848
553,0.0852
554,0.0853
555,0.0826
556,0.0828
557,0.0836
558,0.0814
559,0.0813
560,0.0824
561,0.0817
562,0.0822
563,0.0808
564,0.0788
565,0.0796
566,0.0778
567,0.0792
568,0.0783
569,0.0794
570,0.0785
571,0.0794
572,0.0781
573,0.0780
574,0.0766
575,0.0748
576,0.0757
577,0.0754
578,0.0737
579,0.0746
580,0.0735
581,0.0721
582,0.0722
583,0.0721
584,0.0714
585,0.0717
586,0.0706
587,0.0693
588,0.0694
589,0.0683
590,0.0696
591,0.0668
592,0.0689
593,0.0679
594,0.0671
595,0.0676
596,0.0667
597,0.0671
598,0.0671
599,0.0675
600,0.0669
601,0.0663
602,0.0671
603,0.0659
604,0.0657
605,0.0663
606,0.0658
607,0.0666
608,0.0669
609,0.0657
610,0.0666
611,0.0670
612,0.0686
613,0.0669
614,0.0673
615,0.0678
616,0.0678
617,0.0672
618,0.0692
619,0.0692
620,0.0688
621,0.0675
622,0.0695
623,0.0687
624,0.0700
625,0.0689
626,0.0698
627,0.0704
628,0.0715
629,0.0721
630,0.0700
631,0.0709
632,0.0698
633,0.0698
634,0.0705
635,0.0708
636,0.0706
637,0.0705
638,0.0695
639,0.0717
640,0.0710
641,0.0718
642,0.0708
643,0.0720
644,0.0730
645,0.0720
646,0.0711
647,0.0707
648,0.0721
649,0.0707
650,0.0702
651,0.0710
652,0.0705
653,0.0704
654,0.0690
655,0.0702
656,0.0689
657,0.0700
658,0.0683
659,0.0688
660,0.0695
661,0.0695
662,0.0691
663,0.0689
664,0.0678
665,0.0691
666,0.0671
667,0.0686
668,0.0690
669,0.0689
670,0.0683
671,0.0690
672,0.0676
673,0.0679
674,0.0670
675,0.0670
676,0.0669
677,0.0672
678,0.0668
679,0.0649
680,0.0670
681,0.0670
682,0.0661
683,0.0669
684,0.0652
685,0.0656
686,0.0661
687,0.0635
688,0.0662
689,0.0659
690,0.0658
691,0.0649
692,0.0660
693,0.0631
694,0.0653
695,0.0643
696,0.0646
697,0.0648
698,0.0654
699,0.0648
700,0.0633
701,0.0627
702,0.0627
703,0.0621
704,0.0619
705,0.0620
706,0.0617
707,0.0611
708,0.0610
709,0.0610
710,0.0599
711,0.0611
712,0.0597
713,0.0589
714,0.0580
715,0.0589
716,0.0575
717,0.0578
718,0.0560
719,0.0565
720,0.0552
721,0.0530
722,0.0522
723,0.0538
724,0.0518
725,0.0507
726,0.0516
727,0.0520
728,0.0499
729,0.0494
730,0.0504
731,0.0494
732,0.0502
733,0.0487
734,0.0477
735,0.0491
736,0.0477
737,0.0473
738,0.0479
739,0.0470
740,0.0469
741,0.0474
742,0.0463
743,0.0460
744,0.0464
745,0.0465
746,0.0454
747,0.0456
748,0.0463
749,0.0459
750,0.0455
751,0.0453
752,0.0450
753,0.0470
754,0.0465
755,0.0451
756,0.0454
757,0.0468
758,0.0461
759,0.0453
760,0.0460
761,0.0451
762,0.0455
763,0.0448
764,0.0453
765,0.0448
766,0.0439
767,0.0450
768,0.0442
769,0.0439
770,0.0434
771,0.0436
772,0.0429
773,0.0426
774,0.0430
775,0.0430
776,0.0436
777,0.0436
778,0.0428
779,0.0435
780,0.0431
781,0.0438
782,0.0441
783,0.0442
784,0.0435
785,0.0436
786,0.0445
787,0.0427
788,0.0454
789,0.0428
790,0.0430
791,0.0421
792,0.0436
793,0.0421
794,0.0432
795,0.0425
796,0.0427
797,0.0442
798,0.0436
799,0.0457
800,0.0463
801,0.0450
802,0.0462
803,0.0476
804,0.0471
805,0.0477
806,0.0476
807,0.0477
808,0.0502
809,0.0506
810,0.0505
811,0.0510
812,0.0507
813,0.0503
814,0.0522
815,0.0520
816,0.0532
817,0.0527
818,0.0529
819,0.0543
820,0.0548
821,0.0539
822,0.0557
823,0.0547
824,0.0548
825,0.0557
826,0.0554
827,0.0536
828,0.0536
829,0.0544
830,0.0561
831,0.0542
832,0.0540
833,0.0532
834,0.0517
835,0.0535
836,0.0524
837,0.0544
838,0.0524
839,0.0511
840,0.0507
841,0.0514
842,0.0521
843,0.0494
844,0.0499
845,0.0513
846,0.0514
847,0.0501
848,0.0515
849,0.0495
850,0.0499
851,0.0529
852,0.0504
853,0.0500
854,0.0519
855,0.0515
856,0.0511
857,0.0524
858,0.0507
859,0.0503
860,0.0519
861,0.0512
862,0.0528
863,0.0525
864,0.0525
865,0.0522
866,0.0516
867,0.0525
868,0.0501
869,0.0514
870,0.0496
871,0.0507
872,0.0497
873,0.0497
874,0.0500
875,0.0492
876,0.0507
877,0.0512
878,0.0500
879,0.0530
880,0.0527
881,0.0490
882,0.0519
883,0.0542
884,0.0519
885,0.0542
886,0.0571
887,0.0599
888,0.0589
889,0.0588
890,0.0594
891,0.0600
892,0.0616
893,0.0642
894,0.0635
895,0.0653
896,0.0661
897,0.0644
898,0.0642
899,0.0660
900,0.0667
901,0.0701
902,0.0663
903,0.0704
904,0.0730
905,0.0712
906,0.0722
907,0.0753
908,0.0755
909,0.0751
910,0.0753
911,0.0705
912,0.0712
913,0.0700
914,0.0675
915,0.0662
916,0.0687
917,0.0643
918,0.0624
919,0.0614
920,0.0641
921,0.0576
922,0.0576
923,0.0564
924,0.0548
925,0.0538
926,0.0515
927,0.0513
928,0.0459
929,0.0475
930,0.0449
931,0.0430
932,0.0426
933,0.0417
934,0.0387
935,0.0340
936,0.0307
937,0.0267
938,0.0243
939,0.0201
940,0.0196
941,0.0202
942,0.0162
943,0.0146
944,0.0142
945,0.0172
946,0.0135
947,0.0206
