382,NaN
383,0.2537
384,0.8024
385,1.0000
386,0.2893
387,0.2185
388,0.0812
389,0.1589
390,0.0754
391,0.0746
392,0.2237
393,0.2889
394,0.1060
395,0.0092
396,0.1567
397,0.0000
398,0.0998
399,0.1692
400,0.2112
401,0.3440
402,0.0000
403,0.1870
404,0.1694
405,0.1782
406,0.1325
407,0.2252
408,0.1708
409,0.0552
410,0.1852
411,0.2586
412,0.1797
413,0.1762
414,0.1472
415,0.1978
416,0.1389
417,0.1161
418,0.0505
419,0.0952
420,0.1232
421,0.1669
422,0.1377
423,0.1401
424,0.1518
425,0.1676
426,0.1515
427,0.1306
428,0.1694
429,0.1476
430,0.1898
431,0.1762
432,0.1746
433,0.1699
434,0.1637
435,0.1827
436,0.1893
437,0.1765
438,0.2181
439,0.1827
440,0.2041
441,0.1750
442,0.1959
443,0.2005
444,0.1868
445,0.2010
446,0.1820
447,0.1560
448,0.1703
449,0.1778
450,0.1710
451,0.1842
452,0.1436
453,0.1831
454,0.1853
455,0.1813
456,0.1777
457,0.1623
458,0.1793
459,0.1541
460,0.1525
461,0.1596
462,0.1709
463,0.1679
464,0.1720
465,0.1466
466,0.1552
467,0.1495
468,0.1711
469,0.1750
470,0.1531
471,0.1501
472,0.1808
473,0.1593
474,0.1705
475,0.1702
476,0.1722
477,0.1813
478,0.1679
479,0.1843
480,0.1766
481,0.1689
482,0.1845
483,0.1863
484,0.1843
485,0.1897
486,0.1846
487,0.1983
488,0.1851
489,0.1788
490,0.1742
491,0.1784
492,0.1728
493,0.1790
494,0.1752
495,0.1665
496,0.1684
497,0.1590
498,0.1656
499,0.1535
500,0.1578
501,0.1481
502,0.1467
503,0.1335
504,0.1332
505,0.1246
506,0.1253
507,0.1211
508,0.1221
509,0.1152
510,0.1091
511,0.1037
512,0.1002
513,0.0978
514,0.0966
515,0.0946
516,0.0920
517,0.0882
518,0.0860
519,0.0805
520,0.0824
521,0.0767
522,0.0758
523,0.0730
524,0.0722
525,0.0699
526,0.0720
527,0.0704
528,0.0708
529,0.0692
530,0.0700
531,0.0679
532,0.0679
533,0.0674
534,0.0688
535,0.0664
536,0.0672
537,0.0662
538,0.0671
539,0.0670
540,0.0663
541,0.0653
542,0.0644
543,0.0641
544,0.0649
545,0.0642
546,0.0674
547,0.0659
548,0.0661
549,0.0662
550,0.0681
551,0.0668
552,0.0682
553,0.0672
554,0.0665
555,0.0661
556,0.0683
557,0.0671
558,0.0687
559,0.0678
560,0.0689
561,0.0696
562,0.0705
563,0.0703
564,0.0706
565,0.0715
566,0.0681
567,0.0709
568,0.0728
569,0.0738
570,0.0738
571,0.0749
572,0.0750
573,0.0743
574,0.0744
575,0.0746
576,0.0757
577,0.0749
578,0.0750
579,0.0766
580,0.0755
581,0.0757
582,0.0746
583,0.0744
584,0.0756
585,0.0773
586,0.0761
587,0.0750
588,0.0769
589,0.0736
590,0.0766
591,0.0752
592,0.0766
593,0.0751
594,0.0765
595,0.0776
596,0.0772
597,0.0785
598,0.0769
599,0.0779
600,0.0771
601,0.0773
602,0.0782
603,0.0777
604,0.0779
605,0.0785
606,0.0774
607,0.0785
608,0.0794
609,0.0799
610,0.0790
611,0.0809
612,0.0808
613,0.0811
614,0.0809
615,0.0821
616,0.0814
617,0.0812
618,0.0830
619,0.0833
620,0.0839
621,0.0835
622,0.0843
623,0.0850
624,0.0839
625,0.0852
626,0.0847
627,0.0854
628,0.0844
629,0.0845
630,0.0857
631,0.0861
632,0.0849
633,0.0853
634,0.0827
635,0.0835
636,0.0832
637,0.0844
638,0.0823
639,0.0848
640,0.0848
641,0.0855
642,0.0839
643,0.0841
644,0.0837
645,0.0835
646,0.0836
647,0.0840
648,0.0839
649,0.0821
650,0.0820
651,0.0811
652,0.0805
653,0.0816
654,0.0802
655,0.0800
656,0.0806
657,0.0799
658,0.0801
659,0.0794
660,0.0779
661,0.0778
662,0.0784
663,0.0781
664,0.0781
665,0.0772
666,0.0771
667,0.0771
668,0.0775
669,0.0769
670,0.0773
671,0.0783
672,0.0750
673,0.0758
674,0.0750
675,0.0756
676,0.0758
677,0.0746
678,0.0745
679,0.0734
680,0.0742
681,0.0734
682,0.0733
683,0.0727
684,0.0736
685,0.0732
686,0.0728
687,0.0710
688,0.0723
689,0.0711
690,0.0715
691,0.0721
692,0.0723
693,0.0699
694,0.0707
695,0.0695
696,0.0716
697,0.0709
698,0.0706
699,0.0691
700,0.0688
701,0.0685
702,0.0683
703,0.0681
704,0.0662
705,0.0659
706,0.0665
707,0.0658
708,0.0657
709,0.0647
710,0.0646
711,0.0639
712,0.0641
713,0.0634
714,0.0623
715,0.0615
716,0.0625
717,0.0610
718,0.0609
719,0.0594
720,0.0582
721,0.0561
722,0.0551
723,0.0553
724,0.0544
725,0.0543
726,0.0533
727,0.0533
728,0.0521
729,0.0518
730,0.0514
731,0.0508
732,0.0511
733,0.0489
734,0.0506
735,0.0501
736,0.0489
737,0.0484
738,0.0483
739,0.0478
740,0.0463
741,0.0466
742,0.0465
743,0.0458
744,0.0460
745,0.0457
746,0.0450
747,0.0444
748,0.0452
749,0.0454
750,0.0438
751,0.0433
752,0.0432
753,0.0442
754,0.0438
755,0.0445
756,0.0430
757,0.0441
758,0.0424
759,0.0428
760,0.0424
761,0.0411
762,0.0411
763,0.0418
764,0.0406
765,0.0396
766,0.0396
767,0.0388
768,0.0392
769,0.0373
770,0.0382
771,0.0377
772,0.0379
773,0.0372
774,0.0372
775,0.0364
776,0.0376
777,0.0363
778,0.0362
779,0.0361
780,0.0358
781,0.0361
782,0.0355
783,0.0348
784,0.0348
785,0.0354
786,0.0346
787,0.0343
788,0.0357
789,0.0338
790,0.0327
791,0.0325
792,0.0337
793,0.0323
794,0.0324
795,0.0316
796,0.0325
797,0.0330
798,0.0322
799,0.0327
800,0.0323
801,0.0325
802,0.0328
803,0.0333
804,0.0340
805,0.0326
806,0.0330
807,0.0333
808,0.0343
809,0.0335
810,0.0361
811,0.0348
812,0.0340
813,0.0348
814,0.0344
815,0.0350
816,0.0344
817,0.0354
818,0.0344
819,0.0357
820,0.0366
821,0.0336
822,0.0362
823,0.0340
824,0.0353
825,0.0348
826,0.0359
827,0.0342
828,0.0333
829,0.0334
830,0.0335
831,0.0333
832,0.0337
833,0.0322
834,0.0316
835,0.0329
836,0.0320
837,0.0328
838,0.0310
839,0.0308
840,0.0299
841,0.0308
842,0.0313
843,0.0306
844,0.0313
845,0.0306
846,0.0288
847,0.0293
848,0.0298
849,0.0295
850,0.0309
851,0.0308
852,0.0298
853,0.0310
854,0.0306
855,0.0306
856,0.0291
857,0.0306
858,0.0308
859,0.0291
860,0.0314
861,0.0311
862,0.0305
863,0.0320
864,0.0311
865,0.0302
866,0.0305
867,0.0298
868,0.0288
869,0.0308
870,0.0301
871,0.0314
872,0.0317
873,0.0308
874,0.0296
875,0.0297
876,0.0315
877,0.0326
878,0.0312
879,0.0337
880,0.0327
881,0.0296
882,0.0324
883,0.0327
884,0.0328
885,0.0344
886,0.0337
887,0.0377
888,0.0354
889,0.0353
890,0.0392
891,0.0394
892,0.0410
893,0.0410
894,0.0432
895,0.0393
896,0.0423
897,0.0425
898,0.0438
899,0.0435
900,0.0478
901,0.0459
902,0.0449
903,0.0445
904,0.0450
905,0.0476
906,0.0464
907,0.0515
908,0.0508
909,0.0506
910,0.0526
911,0.0474
912,0.0507
913,0.0478
914,0.0455
915,0.0472
916,0.0468
917,0.0457
918,0.0455
919,0.0437
920,0.0461
921,0.0427
922,0.0413
923,0.0371
924,0.0385
925,0.0401
926,0.0362
927,0.0318
928,0.0350
929,0.0352
930,0.0329
931,0.0329
932,0.0319
933,0.0294
934,0.0305
935,0.0261
936,0.0235
937,0.0199
938,0.0180
939,0.0170
940,0.0144
941,0.0130
942,0.0127
943,0.0112
944,0.0129
945,0.0121
946,0.0103
947,0.0128
