382,NaN
383,1.0000
384,0.0000
385,1.0000
386,0.0000
387,0.2682
388,0.2197
389,0.2871
390,0.0196
391,0.1372
392,0.1868
393,0.2359
394,0.0000
395,0.0603
396,0.2111
397,0.0316
398,0.0054
399,0.1285
400,0.1998
401,0.3570
402,0.0102
403,0.1232
404,0.1957
405,0.1794
406,0.2149
407,0.1564
408,0.1060
409,0.0980
410,0.1418
411,0.1308
412,0.0869
413,0.1697
414,0.1863
415,0.0973
416,0.1306
417,0.1386
418,0.0705
419,0.1193
420,0.1745
421,0.0829
422,0.0699
423,0.1166
424,0.0818
425,0.0891
426,0.1458
427,0.0881
428,0.1150
429,0.1148
430,0.1736
431,0.1461
432,0.1609
433,0.1161
434,0.1223
435,0.1512
436,0.1299
437,0.1370
438,0.1806
439,0.1542
440,0.1703
441,0.1706
442,0.1486
443,0.1958
444,0.1809
445,0.1553
446,0.1519
447,0.1733
448,0.1432
449,0.1722
450,0.1742
451,0.1347
452,0.1581
453,0.1825
454,0.1803
455,0.1782
456,0.1836
457,0.1782
458,0.1842
459,0.1662
460,0.1903
461,0.1838
462,0.1872
463,0.1896
464,0.1802
465,0.1747
466,0.1885
467,0.1702
468,0.2047
469,0.1982
470,0.1847
471,0.2008
472,0.2094
473,0.1976
474,0.2120
475,0.2159
476,0.2131
477,0.2261
478,0.2226
479,0.2381
480,0.2258
481,0.2249
482,0.2300
483,0.2417
484,0.2248
485,0.2339
486,0.2362
487,0.2434
488,0.2416
489,0.2420
490,0.2408
491,0.2335
492,0.2279
493,0.2335
494,0.2284
495,0.2214
496,0.2143
497,0.2040
498,0.2040
499,0.1893
500,0.1936
501,0.1775
502,0.1815
503,0.1622
504,0.1530
505,0.1486
506,0.1533
507,0.1466
508,0.1390
509,0.1326
510,0.1228
511,0.1183
512,0.1147
513,0.1054
514,0.1077
515,0.1005
516,0.0937
517,0.0921
518,0.0849
519,0.0864
520,0.0804
521,0.0758
522,0.0755
523,0.0713
524,0.0723
525,0.0680
526,0.0653
527,0.0650
528,0.0633
529,0.0614
530,0.0608
531,0.0572
532,0.0606
533,0.0566
534,0.0578
535,0.0544
536,0.0539
537,0.0536
538,0.0526
539,0.0506
540,0.0506
541,0.0506
542,0.0509
543,0.0495
544,0.0496
545,0.0509
546,0.0517
547,0.0491
548,0.0495
549,0.0496
550,0.0504
551,0.0494
552,0.0502
553,0.0512
554,0.0502
555,0.0484
556,0.0518
557,0.0499
558,0.0517
559,0.0512
560,0.0519
561,0.0537
562,0.0533
563,0.0545
564,0.0538
565,0.0557
566,0.0531
567,0.0556
568,0.0571
569,0.0593
570,0.0588
571,0.0598
572,0.0596
573,0.0604
574,0.0631
575,0.0603
576,0.0631
577,0.0645
578,0.0631
579,0.0645
580,0.0656
581,0.0657
582,0.0656
583,0.0667
584,0.0665
585,0.0683
586,0.0675
587,0.0698
588,0.0695
589,0.0679
590,0.0696
591,0.0708
592,0.0725
593,0.0709
594,0.0747
595,0.0749
596,0.0735
597,0.0754
598,0.0748
599,0.0770
600,0.0767
601,0.0779
602,0.0772
603,0.0789
604,0.0791
605,0.0808
606,0.0793
607,0.0826
608,0.0824
609,0.0828
610,0.0850
611,0.0858
612,0.0868
613,0.0864
614,0.0862
615,0.0877
616,0.0885
617,0.0891
618,0.0894
619,0.0896
620,0.0912
621,0.0907
622,0.0918
623,0.0937
624,0.0941
625,0.0953
626,0.0937
627,0.0953
628,0.0961
629,0.0959
630,0.0965
631,0.0950
632,0.0936
633,0.0947
634,0.0947
635,0.0962
636,0.0955
637,0.0964
638,0.0933
639,0.0958
640,0.0955
641,0.0965
642,0.0967
643,0.0963
644,0.0955
645,0.0952
646,0.0960
647,0.0958
648,0.0967
649,0.0937
650,0.0942
651,0.0933
652,0.0938
653,0.0928
654,0.0929
655,0.0914
656,0.0913
657,0.0906
658,0.0905
659,0.0895
660,0.0897
661,0.0883
662,0.0884
663,0.0888
664,0.0884
665,0.0880
666,0.0880
667,0.0881
668,0.0887
669,0.0862
670,0.0851
671,0.0863
672,0.0860
673,0.0847
674,0.0838
675,0.0857
676,0.0845
677,0.0824
678,0.0834
679,0.0813
680,0.0819
681,0.0810
682,0.0802
683,0.0819
684,0.0791
685,0.0794
686,0.0797
687,0.0774
688,0.0798
689,0.0779
690,0.0781
691,0.0776
692,0.0768
693,0.0761
694,0.0771
695,0.0757
696,0.0759
697,0.0747
698,0.0743
699,0.0739
700,0.0736
701,0.0721
702,0.0720
703,0.0701
704,0.0703
705,0.0697
706,0.0690
707,0.0686
708,0.0676
709,0.0673
710,0.0664
711,0.0665
712,0.0651
713,0.0647
714,0.0633
715,0.0638
716,0.0618
717,0.0621
718,0.0601
719,0.0595
720,0.0574
721,0.0563
722,0.0554
723,0.0555
724,0.0550
725,0.0530
726,0.0522
727,0.0519
728,0.0504
729,0.0489
730,0.0491
731,0.0489
732,0.0488
733,0.0481
734,0.0470
735,0.0475
736,0.0466
737,0.0464
738,0.0453
739,0.0448
740,0.0433
741,0.0437
742,0.0432
743,0.0410
744,0.0426
745,0.0421
746,0.0402
747,0.0401
748,0.0408
749,0.0394
750,0.0404
751,0.0396
752,0.0383
753,0.0392
754,0.0385
755,0.0389
756,0.0378
757,0.0382
758,0.0370
759,0.0372
760,0.0359
761,0.0363
762,0.0354
763,0.0356
764,0.0345
765,0.0339
766,0.0327
767,0.0340
768,0.0325
769,0.0323
770,0.0318
771,0.0315
772,0.0301
773,0.0301
774,0.0310
775,0.0304
776,0.0308
777,0.0287
778,0.0293
779,0.0302
780,0.0291
781,0.0283
782,0.0282
783,0.0280
784,0.0276
785,0.0281
786,0.0277
787,0.0276
788,0.0273
789,0.0269
790,0.0268
791,0.0249
792,0.0265
793,0.0253
794,0.0254
795,0.0263
796,0.0242
797,0.0267
798,0.0254
799,0.0254
800,0.0263
801,0.0252
802,0.0246
803,0.0265
804,0.0253
805,0.0247
806,0.0248
807,0.0267
808,0.0267
809,0.0272
810,0.0285
811,0.0264
812,0.0267
813,0.0270
814,0.0277
815,0.0272
816,0.0274
817,0.0278
818,0.0280
819,0.0281
820,0.0280
821,0.0312
822,0.0290
823,0.0279
824,0.0265
825,0.0284
826,0.0283
827,0.0273
828,0.0274
829,0.0269
830,0.0277
831,0.0275
832,0.0267
833,0.0267
834,0.0266
835,0.0270
836,0.0260
837,0.0272
838,0.0266
839,0.0261
840,0.0247
841,0.0257
842,0.0272
843,0.0262
844,0.0266
845,0.0270
846,0.0245
847,0.0259
848,0.0258
849,0.0259
850,0.0261
851,0.0259
852,0.0273
853,0.0272
854,0.0276
855,0.0272
856,0.0268
857,0.0283
858,0.0282
859,0.0276
860,0.0261
861,0.0294
862,0.0301
863,0.0289
864,0.0296
865,0.0279
866,0.0287
867,0.0294
868,0.0288
869,0.0290
870,0.0290
871,0.0293
872,0.0287
873,0.0287
874,0.0280
875,0.0289
876,0.0295
877,0.0312
878,0.0299
879,0.0310
880,0.0315
881,0.0309
882,0.0319
883,0.0338
884,0.0320
885,0.0339
886,0.0353
887,0.0362
888,0.0367
889,0.0351
890,0.0390
891,0.0388
892,0.0388
893,0.0409
894,0.0424
895,0.0427
896,0.0444
897,0.0453
898,0.0436
899,0.0422
900,0.0444
901,0.0487
902,0.0448
903,0.0471
904,0.0503
905,0.0501
906,0.0488
907,0.0547
908,0.0527
909,0.0545
910,0.0528
911,0.0513
912,0.0519
913,0.0512
914,0.0522
915,0.0489
916,0.0505
917,0.0486
918,0.0483
919,0.0471
920,0.0488
921,0.0442
922,0.0436
923,0.0413
924,0.0414
925,0.0443
926,0.0396
927,0.0404
928,0.0385
929,0.0380
930,0.0373
931,0.0364
932,0.0363
933,0.0341
934,0.0328
935,0.0292
936,0.0272
937,0.0236
938,0.0211
939,0.0192
940,0.0148
941,0.0150
942,0.0131
943,0.0135
944,0.0132
945,0.0151
946,0.0131
947,0.0203
