382,NaN
383,0.6316
384,0.7984
385,0.0000
386,0.0000
387,0.0546
388,0.3036
389,0.1351
390,0.0000
391,0.2562
392,0.2266
393,0.0407
394,0.0208
395,0.0226
396,0.0677
397,0.0000
398,0.0981
399,0.0682
400,0.0304
401,0.2179
402,0.0000
403,0.1124
404,0.0424
405,0.0397
406,0.0906
407,0.1315
408,0.1827
409,0.0593
410,0.1836
411,0.1050
412,0.0967
413,0.1746
414,0.1530
415,0.0690
416,0.1788
417,0.1825
418,0.1883
419,0.1366
420,0.1858
421,0.1677
422,0.1709
423,0.1418
424,0.2283
425,0.1628
426,0.2160
427,0.1859
428,0.1789
429,0.1895
430,0.2577
431,0.2159
432,0.2017
433,0.1923
434,0.2374
435,0.2402
436,0.2477
437,0.2585
438,0.2435
439,0.2350
440,0.2884
441,0.2598
442,0.2520
443,0.2938
444,0.2650
445,0.2346
446,0.2365
447,0.2635
448,0.2296
449,0.2417
450,0.2580
451,0.2110
452,0.2046
453,0.2378
454,0.2257
455,0.2362
456,0.2169
457,0.2038
458,0.2219
459,0.1970
460,0.2016
461,0.2147
462,0.2041
463,0.1960
464,0.1932
465,0.1833
466,0.1816
467,0.1902
468,0.1962
469,0.1932
470,0.1641
471,0.1748
472,0.1844
473,0.1681
474,0.1708
475,0.1693
476,0.1795
477,0.1733
478,0.1660
479,0.1743
480,0.1692
481,0.1496
482,0.1581
483,0.1501
484,0.1433
485,0.1453
486,0.1412
487,0.1534
488,0.1333
489,0.1213
490,0.1256
491,0.1264
492,0.1110
493,0.1128
494,0.1051
495,0.1036
496,0.0985
497,0.0854
498,0.0881
499,0.0810
500,0.0787
501,0.0756
502,0.0734
503,0.0633
504,0.0600
505,0.0560
506,0.0576
507,0.0568
508,0.0508
509,0.0483
510,0.0473
511,0.0400
512,0.0433
513,0.0391
514,0.0371
515,0.0356
516,0.0354
517,0.0374
518,0.0335
519,0.0334
520,0.0353
521,0.0325
522,0.0334
523,0.0334
524,0.0349
525,0.0349
526,0.0359
527,0.0368
528,0.0372
529,0.0370
530,0.0384
531,0.0380
532,0.0410
533,0.0390
534,0.0419
535,0.0390
536,0.0446
537,0.0461
538,0.0463
539,0.0463
540,0.0504
541,0.0501
542,0.0515
543,0.0545
544,0.0549
545,0.0567
546,0.0608
547,0.0608
548,0.0594
549,0.0625
550,0.0636
551,0.0649
552,0.0668
553,0.0688
554,0.0711
555,0.0701
556,0.0729
557,0.0772
558,0.0760
559,0.0771
560,0.0797
561,0.0799
562,0.0843
563,0.0841
564,0.0859
565,0.0867
566,0.0880
567,0.0906
568,0.0920
569,0.0949
570,0.0954
571,0.0948
572,0.0993
573,0.0995
574,0.1011
575,0.1007
576,0.1036
577,0.1057
578,0.1048
579,0.1058
580,0.1054
581,0.1061
582,0.1068
583,0.1065
584,0.1102
585,0.1089
586,0.1101
587,0.1089
588,0.1092
589,0.1094
590,0.1108
591,0.1092
592,0.1100
593,0.1113
594,0.1113
595,0.1104
596,0.1126
597,0.1135
598,0.1120
599,0.1132
600,0.1120
601,0.1133
602,0.1125
603,0.1129
604,0.1140
605,0.1131
606,0.1137
607,0.1137
608,0.1130
609,0.1151
610,0.1144
611,0.1153
612,0.1146
613,0.1144
614,0.1142
615,0.1148
616,0.1146
617,0.1146
618,0.1151
619,0.1176
620,0.1146
621,0.1158
622,0.1152
623,0.1154
624,0.1155
625,0.1163
626,0.1145
627,0.1141
628,0.1138
629,0.1122
630,0.1124
631,0.1131
632,0.1101
633,0.1093
634,0.1089
635,0.1078
636,0.1079
637,0.1069
638,0.1048
639,0.1065
640,0.1060
641,0.1059
642,0.1047
643,0.1019
644,0.1019
645,0.1014
646,0.0989
647,0.1000
648,0.0986
649,0.0961
650,0.0951
651,0.0943
652,0.0941
653,0.0926
654,0.0901
655,0.0905
656,0.0894
657,0.0881
658,0.0861
659,0.0838
660,0.0845
661,0.0834
662,0.0819
663,0.0817
664,0.0804
665,0.0795
666,0.0776
667,0.0788
668,0.0773
669,0.0769
670,0.0756
671,0.0749
672,0.0732
673,0.0723
674,0.0706
675,0.0713
676,0.0694
677,0.0678
678,0.0679
679,0.0669
680,0.0655
681,0.0651
682,0.0644
683,0.0643
684,0.0631
685,0.0626
686,0.0610
687,0.0580
688,0.0607
689,0.0591
690,0.0577
691,0.0579
692,0.0565
693,0.0561
694,0.0550
695,0.0537
696,0.0545
697,0.0549
698,0.0519
699,0.0519
700,0.0504
701,0.0506
702,0.0496
703,0.0490
704,0.0473
705,0.0462
706,0.0458
707,0.0440
708,0.0441
709,0.0436
710,0.0427
711,0.0420
712,0.0410
713,0.0405
714,0.0392
715,0.0389
716,0.0379
717,0.0371
718,0.0373
719,0.0355
720,0.0341
721,0.0331
722,0.0316
723,0.0326
724,0.0315
725,0.0317
726,0.0295
727,0.0302
728,0.0284
729,0.0282
730,0.0276
731,0.0270
732,0.0273
733,0.0261
734,0.0254
735,0.0252
736,0.0254
737,0.0248
738,0.0243
739,0.0234
740,0.0237
741,0.0234
742,0.0226
743,0.0223
744,0.0221
745,0.0220
746,0.0219
747,0.0217
748,0.0226
749,0.0206
750,0.0202
751,0.0208
752,0.0206
753,0.0208
754,0.0207
755,0.0210
756,0.0198
757,0.0203
758,0.0190
759,0.0205
760,0.0197
761,0.0194
762,0.0188
763,0.0195
764,0.0198
765,0.0194
766,0.0193
767,0.0193
768,0.0191
769,0.0191
770,0.0181
771,0.0193
772,0.0183
773,0.0185
774,0.0189
775,0.0190
776,0.0191
777,0.0185
778,0.0187
779,0.0202
780,0.0187
781,0.0193
782,0.0189
783,0.0190
784,0.0192
785,0.0191
786,0.0195
787,0.0207
788,0.0202
789,0.0208
790,0.0204
791,0.0199
792,0.0218
793,0.0196
794,0.0206
795,0.0215
796,0.0204
797,0.0222
798,0.0212
799,0.0224
800,0.0229
801,0.0218
802,0.0225
803,0.0241
804,0.0242
805,0.0246
806,0.0250
807,0.0255
808,0.0273
809,0.0262
810,0.0288
811,0.0286
812,0.0269
813,0.0281
814,0.0283
815,0.0292
816,0.0301
817,0.0293
818,0.0303
819,0.0318
820,0.0323
821,0.0324
822,0.0333
823,0.0330
824,0.0330
825,0.0350
826,0.0345
827,0.0317
828,0.0338
829,0.0341
830,0.0351
831,0.0351
832,0.0352
833,0.0340
834,0.0352
835,0.0354
836,0.0351
837,0.0358
838,0.0348
839,0.0343
840,0.0333
841,0.0355
842,0.0366
843,0.0355
844,0.0361
845,0.0360
846,0.0354
847,0.0357
848,0.0362
849,0.0369
850,0.0371
851,0.0382
852,0.0372
853,0.0377
854,0.0385
855,0.0379
856,0.0388
857,0.0395
858,0.0394
859,0.0369
860,0.0402
861,0.0399
862,0.0404
863,0.0426
864,0.0413
865,0.0405
866,0.0427
867,0.0416
868,0.0421
869,0.0416
870,0.0414
871,0.0407
872,0.0436
873,0.0397
874,0.0425
875,0.0423
876,0.0415
877,0.0441
878,0.0444
879,0.0451
880,0.0465
881,0.0428
882,0.0466
883,0.0471
884,0.0473
885,0.0493
886,0.0509
887,0.0522
888,0.0491
889,0.0505
890,0.0549
891,0.0547
892,0.0557
893,0.0598
894,0.0600
895,0.0609
896,0.0590
897,0.0625
898,0.0643
899,0.0635
900,0.0669
901,0.0684
902,0.0664
903,0.0685
904,0.0714
905,0.0736
906,0.0742
907,0.0766
908,0.0735
909,0.0737
910,0.0761
911,0.0733
912,0.0734
913,0.0691
914,0.0717
915,0.0710
916,0.0710
917,0.0659
918,0.0644
919,0.0658
920,0.0662
921,0.0616
922,0.0583
923,0.0575
924,0.0590
925,0.0567
926,0.0568
927,0.0536
928,0.0516
929,0.0507
930,0.0520
931,0.0483
932,0.0484
933,0.0459
934,0.0437
935,0.0393
936,0.0355
937,0.0327
938,0.0285
939,0.0255
940,0.0204
941,0.0213
942,0.0184
943,0.0175
944,0.0181
945,0.0175
946,0.0154
947,0.0248
