382,NaN
383,0.0165
384,0.0000
385,1.0000
386,0.8018
387,0.3620
388,0.2391
389,0.3669
390,0.0483
391,0.2421
392,0.2708
393,0.2215
394,0.1824
395,0.0000
396,0.1810
397,0.1037
398,0.0830
399,0.0783
400,0.1309
401,0.3476
402,0.0313
403,0.2039
404,0.1077
405,0.1495
406,0.1188
407,0.1593
408,0.0884
409,0.1218
410,0.0785
411,0.1744
412,0.1626
413,0.1492
414,0.1266
415,0.1337
416,0.0913
417,0.1515
418,0.1216
419,0.1713
420,0.1102
421,0.0785
422,0.1220
423,0.1018
424,0.0804
425,0.0930
426,0.1514
427,0.1245
428,0.1484
429,0.0933
430,0.1510
431,0.1409
432,0.1604
433,0.1466
434,0.1271
435,0.1606
436,0.1644
437,0.1509
438,0.1546
439,0.1257
440,0.1665
441,0.1724
442,0.1717
443,0.1375
444,0.1588
445,0.1824
446,0.1483
447,0.1747
448,0.1683
449,0.1445
450,0.1742
451,0.1659
452,0.1635
453,0.1677
454,0.1573
455,0.1718
456,0.1647
457,0.1575
458,0.1787
459,0.1734
460,0.1693
461,0.1810
462,0.1727
463,0.1798
464,0.1810
465,0.1634
466,0.1825
467,0.1723
468,0.2039
469,0.2079
470,0.1765
471,0.1862
472,0.2005
473,0.1857
474,0.2082
475,0.2033
476,0.2150
477,0.2228
478,0.2111
479,0.2349
480,0.2339
481,0.2315
482,0.2390
483,0.2480
484,0.2329
485,0.2477
486,0.2455
487,0.2587
488,0.2565
489,0.2494
490,0.2483
491,0.2416
492,0.2472
493,0.2493
494,0.2446
495,0.2398
496,0.2339
497,0.2197
498,0.2296
499,0.2183
500,0.2150
501,0.2095
502,0.2111
503,0.1934
504,0.1885
505,0.1867
506,0.1773
507,0.1780
508,0.1686
509,0.1602
510,0.1556
511,0.1462
512,0.1408
513,0.1386
514,0.1377
515,0.1274
516,0.1256
517,0.1192
518,0.1127
519,0.1104
520,0.1087
521,0.1043
522,0.1015
523,0.0986
524,0.0985
525,0.0960
526,0.0943
527,0.0921
528,0.0882
529,0.0869
530,0.0844
531,0.0818
532,0.0839
533,0.0803
534,0.0797
535,0.0775
536,0.0766
537,0.0753
538,0.0759
539,0.0722
540,0.0731
541,0.0720
542,0.0697
543,0.0688
544,0.0700
545,0.0684
546,0.0700
547,0.0669
548,0.0656
549,0.0648
550,0.0633
551,0.0622
552,0.0631
553,0.0622
554,0.0616
555,0.0614
556,0.0602
557,0.0584
558,0.0596
559,0.0586
560,0.0573
561,0.0575
562,0.0577
563,0.0574
564,0.0562
565,0.0566
566,0.0523
567,0.0544
568,0.0538
569,0.0553
570,0.0546
571,0.0549
572,0.0528
573,0.0528
574,0.0532
575,0.0512
576,0.0502
577,0.0499
578,0.0490
579,0.0504
580,0.0497
581,0.0486
582,0.0483
583,0.0468
584,0.0489
585,0.0469
586,0.0475
587,0.0463
588,0.0463
589,0.0465
590,0.0452
591,0.0451
592,0.0453
593,0.0454
594,0.0439
595,0.0458
596,0.0440
597,0.0454
598,0.0445
599,0.0455
600,0.0449
601,0.0444
602,0.0455
603,0.0451
604,0.0454
605,0.0461
606,0.0447
607,0.0449
608,0.0462
609,0.0453
610,0.0448
611,0.0461
612,0.0464
613,0.0463
614,0.0460
615,0.0473
616,0.0470
617,0.0474
618,0.0468
619,0.0483
620,0.0477
621,0.0491
622,0.0495
623,0.0492
624,0.0492
625,0.0495
626,0.0503
627,0.0507
628,0.0515
629,0.0521
630,0.0520
631,0.0525
632,0.0525
633,0.0519
634,0.0523
635,0.0519
636,0.0528
637,0.0531
638,0.0530
639,0.0542
640,0.0552
641,0.0552
642,0.0558
643,0.0556
644,0.0555
645,0.0563
646,0.0554
647,0.0564
648,0.0567
649,0.0563
650,0.0573
651,0.0578
652,0.0573
653,0.0572
654,0.0584
655,0.0584
656,0.0577
657,0.0573
658,0.0586
659,0.0580
660,0.0592
661,0.0590
662,0.0602
663,0.0606
664,0.0600
665,0.0620
666,0.0616
667,0.0626
668,0.0630
669,0.0632
670,0.0638
671,0.0634
672,0.0623
673,0.0636
674,0.0637
675,0.0648
676,0.0661
677,0.0640
678,0.0650
679,0.0646
680,0.0663
681,0.0655
682,0.0669
683,0.0670
684,0.0680
685,0.0683
686,0.0693
687,0.0677
688,0.0702
689,0.0707
690,0.0690
691,0.0713
692,0.0720
693,0.0714
694,0.0724
695,0.0720
696,0.0725
697,0.0739
698,0.0748
699,0.0744
700,0.0753
701,0.0757
702,0.0753
703,0.0755
704,0.0746
705,0.0766
706,0.0763
707,0.0758
708,0.0756
709,0.0765
710,0.0756
711,0.0776
712,0.0779
713,0.0781
714,0.0779
715,0.0776
716,0.0780
717,0.0779
718,0.0771
719,0.0776
720,0.0771
721,0.0747
722,0.0741
723,0.0757
724,0.0735
725,0.0747
726,0.0740
727,0.0740
728,0.0738
729,0.0739
730,0.0740
731,0.0740
732,0.0758
733,0.0734
734,0.0750
735,0.0757
736,0.0746
737,0.0759
738,0.0748
739,0.0751
740,0.0754
741,0.0759
742,0.0744
743,0.0764
744,0.0763
745,0.0756
746,0.0745
747,0.0751
748,0.0760
749,0.0745
750,0.0756
751,0.0773
752,0.0775
753,0.0783
754,0.0789
755,0.0782
756,0.0782
757,0.0789
758,0.0774
759,0.0786
760,0.0791
761,0.0781
762,0.0769
763,0.0787
764,0.0777
765,0.0783
766,0.0770
767,0.0766
768,0.0765
769,0.0764
770,0.0753
771,0.0764
772,0.0762
773,0.0763
774,0.0760
775,0.0764
776,0.0767
777,0.0749
778,0.0751
779,0.0751
780,0.0739
781,0.0764
782,0.0748
783,0.0745
784,0.0747
785,0.0749
786,0.0748
787,0.0747
788,0.0760
789,0.0747
790,0.0733
791,0.0737
792,0.0736
793,0.0725
794,0.0722
795,0.0738
796,0.0731
797,0.0747
798,0.0719
799,0.0734
800,0.0753
801,0.0757
802,0.0750
803,0.0754
804,0.0772
805,0.0761
806,0.0763
807,0.0766
808,0.0779
809,0.0791
810,0.0797
811,0.0789
812,0.0787
813,0.0797
814,0.0775
815,0.0785
816,0.0803
817,0.0796
818,0.0806
819,0.0796
820,0.0815
821,0.0804
822,0.0814
823,0.0782
824,0.0795
825,0.0805
826,0.0784
827,0.0749
828,0.0745
829,0.0754
830,0.0752
831,0.0750
832,0.0727
833,0.0719
834,0.0723
835,0.0713
836,0.0711
837,0.0702
838,0.0687
839,0.0683
840,0.0660
841,0.0658
842,0.0667
843,0.0638
844,0.0629
845,0.0632
846,0.0631
847,0.0615
848,0.0624
849,0.0624
850,0.0617
851,0.0609
852,0.0607
853,0.0604
854,0.0603
855,0.0590
856,0.0588
857,0.0605
858,0.0590
859,0.0572
860,0.0581
861,0.0588
862,0.0571
863,0.0574
864,0.0574
865,0.0558
866,0.0559
867,0.0554
868,0.0551
869,0.0531
870,0.0538
871,0.0535
872,0.0551
873,0.0522
874,0.0523
875,0.0521
876,0.0508
877,0.0517
878,0.0498
879,0.0530
880,0.0509
881,0.0487
882,0.0530
883,0.0536
884,0.0513
885,0.0532
886,0.0535
887,0.0548
888,0.0535
889,0.0532
890,0.0557
891,0.0567
892,0.0554
893,0.0597
894,0.0604
895,0.0593
896,0.0607
897,0.0569
898,0.0586
899,0.0584
900,0.0592
901,0.0602
902,0.0574
903,0.0593
904,0.0619
905,0.0633
906,0.0629
907,0.0666
908,0.0621
909,0.0623
910,0.0613
911,0.0589
912,0.0612
913,0.0546
914,0.0556
915,0.0561
916,0.0558
917,0.0543
918,0.0505
919,0.0482
920,0.0505
921,0.0468
922,0.0466
923,0.0429
924,0.0433
925,0.0440
926,0.0417
927,0.0391
928,0.0373
929,0.0360
930,0.0345
931,0.0343
932,0.0340
933,0.0298
934,0.0280
935,0.0263
936,0.0227
937,0.0223
938,0.0178
939,0.0138
940,0.0142
941,0.0120
942,0.0139
943,0.0113
944,0.0106
945,0.0092
946,0.0106
947,0.0175
