382,NaN
383,1.0000
384,0.1609
385,1.0000
386,0.0000
387,0.3635
388,0.1371
389,0.0000
390,0.0000
391,0.2167
392,0.3573
393,0.1997
394,0.0000
395,0.0600
396,0.3102
397,0.0000
398,0.2034
399,0.0666
400,0.1133
401,0.2726
402,0.0109
403,0.2452
404,0.2028
405,0.2155
406,0.1201
407,0.1922
408,0.2200
409,0.1522
410,0.1955
411,0.1884
412,0.2701
413,0.1826
414,0.1615
415,0.1903
416,0.1857
417,0.2277
418,0.2114
419,0.1654
420,0.1730
421,0.1732
422,0.1451
423,0.2374
424,0.1589
425,0.1864
426,0.2411
427,0.2399
428,0.2158
429,0.1758
430,0.2054
431,0.2602
432,0.2413
433,0.1982
434,0.2073
435,0.2187
436,0.2255
437,0.2588
438,0.2246
439,0.1928
440,0.2267
441,0.2423
442,0.2125
443,0.2483
444,0.1966
445,0.2236
446,0.2149
447,0.2183
448,0.2044
449,0.1906
450,0.2277
451,0.1698
452,0.1867
453,0.2135
454,0.2039
455,0.2067
456,0.1897
457,0.2006
458,0.1810
459,0.1709
460,0.1947
461,0.2016
462,0.1866
463,0.1944
464,0.1904
465,0.1748
466,0.1935
467,0.1923
468,0.1907
469,0.2025
470,0.1640
471,0.1775
472,0.1883
473,0.1872
474,0.1890
475,0.1890
476,0.1889
477,0.1943
478,0.1846
479,0.2024
480,0.1973
481,0.1821
482,0.1969
483,0.1950
484,0.1832
485,0.1959
486,0.1929
487,0.2032
488,0.1910
489,0.1869
490,0.1844
491,0.1791
492,0.1733
493,0.1794
494,0.1786
495,0.1677
496,0.1625
497,0.1520
498,0.1518
499,0.1426
500,0.1466
501,0.1359
502,0.1340
503,0.1279
504,0.1198
505,0.1141
506,0.1122
507,0.1127
508,0.1040
509,0.1002
510,0.0951
511,0.0866
512,0.0800
513,0.0807
514,0.0773
515,0.0730
516,0.0721
517,0.0672
518,0.0621
519,0.0620
520,0.0626
521,0.0595
522,0.0562
523,0.0524
524,0.0540
525,0.0516
526,0.0512
527,0.0500
528,0.0484
529,0.0475
530,0.0460
531,0.0448
532,0.0450
533,0.0437
534,0.0439
535,0.0424
536,0.0439
537,0.0423
538,0.0410
539,0.0416
540,0.0405
541,0.0406
542,0.0408
543,0.0415
544,0.0403
545,0.0389
546,0.0419
547,0.0399
548,0.0397
549,0.0396
550,0.0394
551,0.0387
552,0.0400
553,0.0387
554,0.0392
555,0.0378
556,0.0403
557,0.0407
558,0.0395
559,0.0402
560,0.0410
561,0.0393
562,0.0413
563,0.0410
564,0.0422
565,0.0419
566,0.0403
567,0.0427
568,0.0429
569,0.0439
570,0.0438
571,0.0448
572,0.0452
573,0.0455
574,0.0463
575,0.0456
576,0.0469
577,0.0466
578,0.0465
579,0.0480
580,0.0475
581,0.0471
582,0.0480
583,0.0497
584,0.0485
585,0.0500
586,0.0498
587,0.0506
588,0.0506
589,0.0511
590,0.0510
591,0.0507
592,0.0518
593,0.0522
594,0.0535
595,0.0539
596,0.0539
597,0.0537
598,0.0549
599,0.0558
600,0.0559
601,0.0563
602,0.0568
603,0.0569
604,0.0574
605,0.0576
606,0.0589
607,0.0612
608,0.0610
609,0.0616
610,0.0614
611,0.0625
612,0.0635
613,0.0634
614,0.0649
615,0.0647
616,0.0654
617,0.0655
618,0.0659
619,0.0667
620,0.0686
621,0.0696
622,0.0711
623,0.0704
624,0.0712
625,0.0726
626,0.0720
627,0.0734
628,0.0750
629,0.0760
630,0.0770
631,0.0758
632,0.0755
633,0.0773
634,0.0751
635,0.0757
636,0.0766
637,0.0781
638,0.0771
639,0.0785
640,0.0803
641,0.0798
642,0.0804
643,0.0802
644,0.0815
645,0.0809
646,0.0811
647,0.0809
648,0.0823
649,0.0828
650,0.0821
651,0.0832
652,0.0826
653,0.0832
654,0.0816
655,0.0834
656,0.0829
657,0.0831
658,0.0830
659,0.0841
660,0.0835
661,0.0842
662,0.0847
663,0.0846
664,0.0853
665,0.0852
666,0.0851
667,0.0867
668,0.0864
669,0.0865
670,0.0878
671,0.0879
672,0.0861
673,0.0863
674,0.0869
675,0.0888
676,0.0880
677,0.0881
678,0.0884
679,0.0882
680,0.0881
681,0.0895
682,0.0885
683,0.0893
684,0.0903
685,0.0898
686,0.0899
687,0.0888
688,0.0918
689,0.0921
690,0.0914
691,0.0930
692,0.0924
693,0.0914
694,0.0925
695,0.0929
696,0.0933
697,0.0941
698,0.0948
699,0.0945
700,0.0944
701,0.0954
702,0.0947
703,0.0938
704,0.0930
705,0.0942
706,0.0943
707,0.0929
708,0.0953
709,0.0944
710,0.0948
711,0.0944
712,0.0952
713,0.0939
714,0.0952
715,0.0938
716,0.0941
717,0.0919
718,0.0921
719,0.0926
720,0.0908
721,0.0881
722,0.0880
723,0.0891
724,0.0863
725,0.0868
726,0.0860
727,0.0858
728,0.0859
729,0.0853
730,0.0847
731,0.0849
732,0.0852
733,0.0851
734,0.0851
735,0.0855
736,0.0847
737,0.0848
738,0.0845
739,0.0835
740,0.0843
741,0.0840
742,0.0841
743,0.0829
744,0.0834
745,0.0841
746,0.0829
747,0.0834
748,0.0823
749,0.0827
750,0.0818
751,0.0837
752,0.0830
753,0.0846
754,0.0844
755,0.0837
756,0.0834
757,0.0846
758,0.0843
759,0.0832
760,0.0838
761,0.0816
762,0.0805
763,0.0819
764,0.0816
765,0.0817
766,0.0806
767,0.0810
768,0.0800
769,0.0801
770,0.0770
771,0.0788
772,0.0785
773,0.0773
774,0.0783
775,0.0772
776,0.0769
777,0.0752
778,0.0772
779,0.0768
780,0.0764
781,0.0761
782,0.0757
783,0.0760
784,0.0751
785,0.0748
786,0.0736
787,0.0740
788,0.0741
789,0.0728
790,0.0731
791,0.0715
792,0.0712
793,0.0713
794,0.0710
795,0.0707
796,0.0705
797,0.0717
798,0.0711
799,0.0705
800,0.0724
801,0.0716
802,0.0716
803,0.0727
804,0.0720
805,0.0721
806,0.0713
807,0.0732
808,0.0732
809,0.0730
810,0.0750
811,0.0728
812,0.0735
813,0.0735
814,0.0725
815,0.0715
816,0.0729
817,0.0721
818,0.0729
819,0.0738
820,0.0737
821,0.0733
822,0.0725
823,0.0727
824,0.0697
825,0.0718
826,0.0709
827,0.0694
828,0.0696
829,0.0689
830,0.0680
831,0.0688
832,0.0662
833,0.0622
834,0.0653
835,0.0629
836,0.0629
837,0.0610
838,0.0609
839,0.0599
840,0.0569
841,0.0576
842,0.0593
843,0.0562
844,0.0550
845,0.0555
846,0.0545
847,0.0532
848,0.0530
849,0.0538
850,0.0535
851,0.0522
852,0.0516
853,0.0494
854,0.0520
855,0.0502
856,0.0503
857,0.0504
858,0.0499
859,0.0494
860,0.0477
861,0.0487
862,0.0498
863,0.0488
864,0.0474
865,0.0460
866,0.0457
867,0.0453
868,0.0465
869,0.0441
870,0.0448
871,0.0439
872,0.0443
873,0.0419
874,0.0417
875,0.0424
876,0.0414
877,0.0413
878,0.0416
879,0.0409
880,0.0429
881,0.0420
882,0.0412
883,0.0441
884,0.0413
885,0.0422
886,0.0427
887,0.0430
888,0.0435
889,0.0434
890,0.0457
891,0.0434
892,0.0444
893,0.0475
894,0.0472
895,0.0449
896,0.0457
897,0.0464
898,0.0462
899,0.0458
900,0.0468
901,0.0477
902,0.0456
903,0.0464
904,0.0496
905,0.0493
906,0.0485
907,0.0516
908,0.0480
909,0.0466
910,0.0496
911,0.0443
912,0.0459
913,0.0428
914,0.0438
915,0.0429
916,0.0417
917,0.0399
918,0.0386
919,0.0356
920,0.0379
921,0.0324
922,0.0344
923,0.0319
924,0.0318
925,0.0313
926,0.0292
927,0.0289
928,0.0278
929,0.0275
930,0.0252
931,0.0239
932,0.0247
933,0.0199
934,0.0226
935,0.0197
936,0.0172
937,0.0157
938,0.0129
939,0.0118
940,0.0082
941,0.0109
942,0.0085
943,0.0081
944,0.0076
945,0.0083
946,0.0082
947,0.0098
