382,NaN
383,1.0000
384,0.0000
385,1.0000
386,0.0000
387,0.1092
388,0.0872
389,0.0000
390,0.0000
391,0.1368
392,0.2618
393,0.1732
394,0.0000
395,0.0748
396,0.3432
397,0.0917
398,0.1502
399,0.0301
400,0.1278
401,0.3641
402,0.0000
403,0.2575
404,0.2009
405,0.0993
406,0.1448
407,0.2285
408,0.1613
409,0.1722
410,0.1447
411,0.2209
412,0.2230
413,0.1908
414,0.1554
415,0.1346
416,0.1158
417,0.2026
418,0.1241
419,0.1602
420,0.1677
421,0.1494
422,0.1590
423,0.1892
424,0.1904
425,0.1752
426,0.2401
427,0.1693
428,0.1691
429,0.2010
430,0.2222
431,0.2065
432,0.1987
433,0.1948
434,0.2153
435,0.2351
436,0.2095
437,0.2504
438,0.2253
439,0.2162
440,0.2320
441,0.2333
442,0.2196
443,0.2583
444,0.2209
445,0.1997
446,0.2100
447,0.2214
448,0.1895
449,0.2148
450,0.2182
451,0.1950
452,0.1927
453,0.2252
454,0.2082
455,0.2271
456,0.2095
457,0.1929
458,0.1962
459,0.1959
460,0.2108
461,0.2046
462,0.1979
463,0.2011
464,0.1986
465,0.1730
466,0.1971
467,0.1984
468,0.1929
469,0.2147
470,0.1989
471,0.1939
472,0.2017
473,0.1914
474,0.2065
475,0.1988
476,0.2099
477,0.2065
478,0.2090
479,0.2270
480,0.2108
481,0.2040
482,0.2131
483,0.2276
484,0.2055
485,0.2202
486,0.2152
487,0.2187
488,0.2107
489,0.2157
490,0.2180
491,0.2021
492,0.1953
493,0.2085
494,0.2005
495,0.1958
496,0.1863
497,0.1744
498,0.1823
499,0.1667
500,0.1684
501,0.1594
502,0.1614
503,0.1470
504,0.1410
505,0.1329
506,0.1334
507,0.1297
508,0.1247
509,0.1159
510,0.1126
511,0.1002
512,0.1008
513,0.0977
514,0.0938
515,0.0885
516,0.0853
517,0.0821
518,0.0748
519,0.0760
520,0.0752
521,0.0706
522,0.0667
523,0.0652
524,0.0654
525,0.0615
526,0.0628
527,0.0613
528,0.0590
529,0.0566
530,0.0558
531,0.0557
532,0.0539
533,0.0523
534,0.0528
535,0.0516
536,0.0517
537,0.0515
538,0.0509
539,0.0502
540,0.0494
541,0.0478
542,0.0470
543,0.0471
544,0.0475
545,0.0464
546,0.0465
547,0.0448
548,0.0447
549,0.0455
550,0.0467
551,0.0443
552,0.0467
553,0.0443
554,0.0453
555,0.0433
556,0.0457
557,0.0454
558,0.0445
559,0.0448
560,0.0448
561,0.0447
562,0.0459
563,0.0471
564,0.0457
565,0.0466
566,0.0443
567,0.0477
568,0.0476
569,0.0475
570,0.0488
571,0.0484
572,0.0478
573,0.0494
574,0.0500
575,0.0481
576,0.0493
577,0.0507
578,0.0486
579,0.0503
580,0.0508
581,0.0491
582,0.0507
583,0.0505
584,0.0518
585,0.0513
586,0.0513
587,0.0513
588,0.0511
589,0.0524
590,0.0516
591,0.0523
592,0.0542
593,0.0527
594,0.0544
595,0.0526
596,0.0546
597,0.0538
598,0.0540
599,0.0545
600,0.0548
601,0.0562
602,0.0561
603,0.0566
604,0.0565
605,0.0578
606,0.0583
607,0.0592
608,0.0602
609,0.0601
610,0.0610
611,0.0614
612,0.0625
613,0.0621
614,0.0623
615,0.0638
616,0.0637
617,0.0637
618,0.0664
619,0.0655
620,0.0661
621,0.0676
622,0.0691
623,0.0698
624,0.0695
625,0.0696
626,0.0694
627,0.0715
628,0.0721
629,0.0727
630,0.0731
631,0.0739
632,0.0720
633,0.0730
634,0.0727
635,0.0733
636,0.0741
637,0.0743
638,0.0747
639,0.0758
640,0.0754
641,0.0764
642,0.0768
643,0.0776
644,0.0769
645,0.0774
646,0.0771
647,0.0775
648,0.0785
649,0.0787
650,0.0783
651,0.0777
652,0.0787
653,0.0790
654,0.0788
655,0.0785
656,0.0793
657,0.0786
658,0.0787
659,0.0798
660,0.0792
661,0.0788
662,0.0805
663,0.0809
664,0.0794
665,0.0804
666,0.0810
667,0.0802
668,0.0821
669,0.0810
670,0.0832
671,0.0835
672,0.0808
673,0.0806
674,0.0824
675,0.0834
676,0.0824
677,0.0824
678,0.0819
679,0.0813
680,0.0832
681,0.0825
682,0.0835
683,0.0842
684,0.0837
685,0.0849
686,0.0844
687,0.0829
688,0.0860
689,0.0864
690,0.0870
691,0.0868
692,0.0858
693,0.0856
694,0.0863
695,0.0864
696,0.0868
697,0.0880
698,0.0880
699,0.0882
700,0.0887
701,0.0899
702,0.0881
703,0.0881
704,0.0868
705,0.0878
706,0.0878
707,0.0885
708,0.0880
709,0.0878
710,0.0862
711,0.0884
712,0.0881
713,0.0873
714,0.0870
715,0.0880
716,0.0867
717,0.0863
718,0.0849
719,0.0849
720,0.0842
721,0.0829
722,0.0817
723,0.0834
724,0.0811
725,0.0808
726,0.0812
727,0.0799
728,0.0801
729,0.0796
730,0.0785
731,0.0792
732,0.0808
733,0.0786
734,0.0790
735,0.0781
736,0.0797
737,0.0788
738,0.0785
739,0.0769
740,0.0785
741,0.0789
742,0.0774
743,0.0770
744,0.0777
745,0.0773
746,0.0769
747,0.0769
748,0.0774
749,0.0756
750,0.0769
751,0.0771
752,0.0771
753,0.0785
754,0.0787
755,0.0780
756,0.0765
757,0.0786
758,0.0771
759,0.0775
760,0.0779
761,0.0779
762,0.0750
763,0.0749
764,0.0756
765,0.0748
766,0.0740
767,0.0741
768,0.0738
769,0.0728
770,0.0722
771,0.0738
772,0.0718
773,0.0718
774,0.0731
775,0.0727
776,0.0708
777,0.0713
778,0.0705
779,0.0704
780,0.0701
781,0.0716
782,0.0690
783,0.0692
784,0.0679
785,0.0703
786,0.0689
787,0.0667
788,0.0681
789,0.0686
790,0.0667
791,0.0655
792,0.0657
793,0.0658
794,0.0643
795,0.0650
796,0.0640
797,0.0652
798,0.0647
799,0.0661
800,0.0675
801,0.0650
802,0.0662
803,0.0680
804,0.0667
805,0.0686
806,0.0668
807,0.0698
808,0.0685
809,0.0676
810,0.0700
811,0.0689
812,0.0684
813,0.0687
814,0.0681
815,0.0683
816,0.0677
817,0.0680
818,0.0667
819,0.0694
820,0.0682
821,0.0691
822,0.0691
823,0.0682
824,0.0659
825,0.0677
826,0.0659
827,0.0650
828,0.0639
829,0.0642
830,0.0637
831,0.0642
832,0.0624
833,0.0600
834,0.0594
835,0.0599
836,0.0571
837,0.0570
838,0.0574
839,0.0537
840,0.0535
841,0.0535
842,0.0538
843,0.0511
844,0.0514
845,0.0530
846,0.0512
847,0.0508
848,0.0515
849,0.0478
850,0.0496
851,0.0501
852,0.0485
853,0.0477
854,0.0471
855,0.0477
856,0.0468
857,0.0481
858,0.0450
859,0.0463
860,0.0474
861,0.0454
862,0.0465
863,0.0468
864,0.0433
865,0.0419
866,0.0442
867,0.0459
868,0.0425
869,0.0406
870,0.0420
871,0.0416
872,0.0410
873,0.0401
874,0.0403
875,0.0399
876,0.0392
877,0.0407
878,0.0388
879,0.0406
880,0.0393
881,0.0367
882,0.0401
883,0.0389
884,0.0396
885,0.0398
886,0.0408
887,0.0412
888,0.0413
889,0.0426
890,0.0427
891,0.0411
892,0.0425
893,0.0445
894,0.0423
895,0.0434
896,0.0453
897,0.0449
898,0.0442
899,0.0447
900,0.0462
901,0.0462
902,0.0448
903,0.0440
904,0.0466
905,0.0463
906,0.0471
907,0.0471
908,0.0454
909,0.0443
910,0.0450
911,0.0418
912,0.0431
913,0.0410
914,0.0423
915,0.0397
916,0.0407
917,0.0373
918,0.0359
919,0.0352
920,0.0362
921,0.0326
922,0.0324
923,0.0308
924,0.0300
925,0.0301
926,0.0285
927,0.0262
928,0.0272
929,0.0272
930,0.0253
931,0.0252
932,0.0228
933,0.0206
934,0.0222
935,0.0203
936,0.0143
937,0.0138
938,0.0140
939,0.0111
940,0.0090
941,0.0077
942,0.0100
943,0.0063
944,0.0079
945,0.0082
946,0.0071
947,0.0128
