382,NaN
383,0.8271
384,1.0000
385,1.0000
386,1.0000
387,0.1920
388,0.2615
389,0.2419
390,0.0775
391,0.1013
392,0.1972
393,0.0765
394,0.0000
395,0.0000
396,0.1175
397,0.0000
398,0.0271
399,0.1129
400,0.2205
401,0.3076
402,0.0041
403,0.1916
404,0.1738
405,0.0000
406,0.1519
407,0.1591
408,0.1061
409,0.0625
410,0.1788
411,0.1880
412,0.1431
413,0.0907
414,0.0858
415,0.1219
416,0.0859
417,0.0892
418,0.0056
419,0.0889
420,0.0854
421,0.0517
422,0.0942
423,0.0553
424,0.0220
425,0.0818
426,0.1044
427,0.0950
428,0.0974
429,0.0858
430,0.1206
431,0.1032
432,0.1291
433,0.0855
434,0.1123
435,0.1131
436,0.1322
437,0.1034
438,0.0991
439,0.1136
440,0.1145
441,0.1289
442,0.1239
443,0.1392
444,0.1092
445,0.1260
446,0.1272
447,0.1009
448,0.1139
449,0.1285
450,0.1279
451,0.1137
452,0.1024
453,0.1494
454,0.1442
455,0.1450
456,0.1292
457,0.1520
458,0.1427
459,0.1336
460,0.1389
461,0.1475
462,0.1520
463,0.1455
464,0.1445
465,0.1385
466,0.1581
467,0.1565
468,0.1649
469,0.1763
470,0.1631
471,0.1650
472,0.1761
473,0.1701
474,0.1883
475,0.1895
476,0.2021
477,0.2096
478,0.2066
479,0.2197
480,0.2294
481,0.2175
482,0.2235
483,0.2391
484,0.2378
485,0.2572
486,0.2489
487,0.2574
488,0.2689
489,0.2602
490,0.2615
491,0.2647
492,0.2565
493,0.2694
494,0.2725
495,0.2727
496,0.2651
497,0.2534
498,0.2546
499,0.2459
500,0.2612
501,0.2432
502,0.2460
503,0.2327
504,0.2253
505,0.2249
506,0.2198
507,0.2178
508,0.2122
509,0.2052
510,0.1987
511,0.1897
512,0.1820
513,0.1800
514,0.1770
515,0.1717
516,0.1728
517,0.1661
518,0.1559
519,0.1542
520,0.1539
521,0.1472
522,0.1479
523,0.1407
524,0.1450
525,0.1392
526,0.1421
527,0.1365
528,0.1351
529,0.1334
530,0.1324
531,0.1294
532,0.1311
533,0.1270
534,0.1288
535,0.1265
536,0.1255
537,0.1222
538,0.1251
539,0.1211
540,0.1202
541,0.1219
542,0.1205
543,0.1198
544,0.1186
545,0.1189
546,0.1179
547,0.1183
548,0.1187
549,0.1142
550,0.1153
551,0.1146
552,0.1146
553,0.1175
554,0.1157
555,0.1138
556,0.1129
557,0.1113
558,0.1127
559,0.1096
560,0.1118
561,0.1117
562,0.1106
563,0.1094
564,0.1090
565,0.1083
566,0.1063
567,0.1076
568,0.1099
569,0.1084
570,0.1081
571,0.1072
572,0.1072
573,0.1056
574,0.1051
575,0.1031
576,0.1041
577,0.1019
578,0.0991
579,0.1013
580,0.1000
581,0.0983
582,0.0969
583,0.0949
584,0.0947
585,0.0933
586,0.0940
587,0.0929
588,0.0900
589,0.0907
590,0.0914
591,0.0874
592,0.0870
593,0.0870
594,0.0866
595,0.0847
596,0.0841
597,0.0836
598,0.0838
599,0.0817
600,0.0826
601,0.0819
602,0.0819
603,0.0805
604,0.0800
605,0.0791
606,0.0782
607,0.0782
608,0.0781
609,0.0769
610,0.0756
611,0.0760
612,0.0761
613,0.0755
614,0.0751
615,0.0742
616,0.0731
617,0.0732
618,0.0730
619,0.0734
620,0.0717
621,0.0723
622,0.0713
623,0.0726
624,0.0709
625,0.0695
626,0.0694
627,0.0684
628,0.0680
629,0.0684
630,0.0670
631,0.0680
632,0.0659
633,0.0645
634,0.0641
635,0.0631
636,0.0624
637,0.0633
638,0.0628
639,0.0620
640,0.0616
641,0.0615
642,0.0612
643,0.0608
644,0.0599
645,0.0588
646,0.0582
647,0.0575
648,0.0582
649,0.0569
650,0.0552
651,0.0546
652,0.0549
653,0.0545
654,0.0535
655,0.0521
656,0.0521
657,0.0519
658,0.0517
659,0.0517
660,0.0503
661,0.0505
662,0.0492
663,0.0487
664,0.0474
665,0.0487
666,0.0476
667,0.0475
668,0.0475
669,0.0475
670,0.0460
671,0.0462
672,0.0455
673,0.0462
674,0.0451
675,0.0439
676,0.0439
677,0.0439
678,0.0437
679,0.0425
680,0.0432
681,0.0435
682,0.0425
683,0.0421
684,0.0417
685,0.0415
686,0.0423
687,0.0397
688,0.0407
689,0.0412
690,0.0398
691,0.0404
692,0.0408
693,0.0387
694,0.0393
695,0.0386
696,0.0399
697,0.0397
698,0.0386
699,0.0393
700,0.0390
701,0.0379
702,0.0374
703,0.0379
704,0.0370
705,0.0369
706,0.0370
707,0.0361
708,0.0358
709,0.0366
710,0.0362
711,0.0370
712,0.0357
713,0.0347
714,0.0343
715,0.0355
716,0.0341
717,0.0343
718,0.0343
719,0.0333
720,0.0333
721,0.0312
722,0.0313
723,0.0309
724,0.0309
725,0.0309
726,0.0315
727,0.0305
728,0.0289
729,0.0292
730,0.0292
731,0.0301
732,0.0293
733,0.0283
734,0.0299
735,0.0285
736,0.0281
737,0.0288
738,0.0290
739,0.0278
740,0.0278
741,0.0280
742,0.0283
743,0.0274
744,0.0273
745,0.0275
746,0.0282
747,0.0267
748,0.0279
749,0.0264
750,0.0270
751,0.0270
752,0.0276
753,0.0273
754,0.0269
755,0.0286
756,0.0273
757,0.0277
758,0.0272
759,0.0279
760,0.0279
761,0.0275
762,0.0269
763,0.0275
764,0.0270
765,0.0278
766,0.0267
767,0.0265
768,0.0263
769,0.0267
770,0.0253
771,0.0273
772,0.0257
773,0.0251
774,0.0259
775,0.0274
776,0.0264
777,0.0254
778,0.0257
779,0.0264
780,0.0258
781,0.0248
782,0.0257
783,0.0258
784,0.0244
785,0.0261
786,0.0257
787,0.0262
788,0.0258
789,0.0252
790,0.0259
791,0.0249
792,0.0250
793,0.0247
794,0.0261
795,0.0254
796,0.0249
797,0.0260
798,0.0261
799,0.0259
800,0.0263
801,0.0258
802,0.0268
803,0.0270
804,0.0261
805,0.0274
806,0.0269
807,0.0287
808,0.0286
809,0.0278
810,0.0304
811,0.0283
812,0.0281
813,0.0280
814,0.0282
815,0.0283
816,0.0294
817,0.0300
818,0.0283
819,0.0310
820,0.0310
821,0.0298
822,0.0306
823,0.0301
824,0.0291
825,0.0309
826,0.0299
827,0.0286
828,0.0285
829,0.0299
830,0.0303
831,0.0295
832,0.0295
833,0.0281
834,0.0286
835,0.0294
836,0.0285
837,0.0293
838,0.0290
839,0.0274
840,0.0267
841,0.0273
842,0.0283
843,0.0265
844,0.0264
845,0.0280
846,0.0259
847,0.0264
848,0.0266
849,0.0264
850,0.0269
851,0.0273
852,0.0274
853,0.0266
854,0.0284
855,0.0269
856,0.0262
857,0.0287
858,0.0268
859,0.0258
860,0.0272
861,0.0279
862,0.0278
863,0.0282
864,0.0277
865,0.0255
866,0.0276
867,0.0277
868,0.0276
869,0.0275
870,0.0274
871,0.0279
872,0.0279
873,0.0258
874,0.0264
875,0.0248
876,0.0266
877,0.0290
878,0.0264
879,0.0295
880,0.0288
881,0.0265
882,0.0284
883,0.0293
884,0.0274
885,0.0289
886,0.0297
887,0.0320
888,0.0306
889,0.0302
890,0.0335
891,0.0329
892,0.0317
893,0.0353
894,0.0358
895,0.0333
896,0.0340
897,0.0360
898,0.0375
899,0.0366
900,0.0411
901,0.0382
902,0.0368
903,0.0375
904,0.0400
905,0.0398
906,0.0382
907,0.0432
908,0.0409
909,0.0419
910,0.0426
911,0.0378
912,0.0418
913,0.0388
914,0.0388
915,0.0389
916,0.0401
917,0.0354
918,0.0370
919,0.0358
920,0.0367
921,0.0327
922,0.0312
923,0.0307
924,0.0309
925,0.0300
926,0.0299
927,0.0299
928,0.0270
929,0.0298
930,0.0287
931,0.0270
932,0.0246
933,0.0245
934,0.0223
935,0.0209
936,0.0176
937,0.0174
938,0.0147
939,0.0122
940,0.0122
941,0.0097
942,0.0089
943,0.0074
944,0.0101
945,0.0092
946,0.0067
947,0.0139
