382,NaN
383,1.0000
384,0.0000
385,1.0000
386,0.0000
387,0.3635
388,0.3201
389,0.1679
390,0.0000
391,0.1035
392,0.2173
393,0.2102
394,0.0000
395,0.0000
396,0.0301
397,0.0000
398,0.0288
399,0.0687
400,0.1202
401,0.2340
402,0.0000
403,0.0619
404,0.0000
405,0.0637
406,0.0633
407,0.1659
408,0.0000
409,0.0711
410,0.0461
411,0.1063
412,0.0980
413,0.0754
414,0.0555
415,0.0660
416,0.0656
417,0.0314
418,0.0172
419,0.0289
420,0.0806
421,0.0451
422,0.0180
423,0.0580
424,0.0261
425,0.0546
426,0.0984
427,0.0416
428,0.0508
429,0.0693
430,0.0568
431,0.0702
432,0.0325
433,0.0635
434,0.0294
435,0.0589
436,0.0729
437,0.0701
438,0.0713
439,0.0522
440,0.0592
441,0.0732
442,0.0698
443,0.0769
444,0.0733
445,0.0767
446,0.0498
447,0.0543
448,0.0515
449,0.0603
450,0.0443
451,0.0300
452,0.0478
453,0.0819
454,0.0668
455,0.0631
456,0.0452
457,0.0548
458,0.0601
459,0.0449
460,0.0571
461,0.0613
462,0.0457
463,0.0580
464,0.0586
465,0.0423
466,0.0492
467,0.0577
468,0.0584
469,0.0706
470,0.0629
471,0.0591
472,0.0661
473,0.0616
474,0.0650
475,0.0680
476,0.0741
477,0.0802
478,0.0695
479,0.0763
480,0.0827
481,0.0682
482,0.0673
483,0.0758
484,0.0742
485,0.0841
486,0.0695
487,0.0838
488,0.0755
489,0.0754
490,0.0800
491,0.0746
492,0.0775
493,0.0832
494,0.0790
495,0.0850
496,0.0771
497,0.0763
498,0.0816
499,0.0750
500,0.0738
501,0.0688
502,0.0711
503,0.0660
504,0.0684
505,0.0682
506,0.0661
507,0.0681
508,0.0602
509,0.0590
510,0.0628
511,0.0518
512,0.0582
513,0.0548
514,0.0539
515,0.0512
516,0.0512
517,0.0535
518,0.0471
519,0.0480
520,0.0466
521,0.0443
522,0.0457
523,0.0434
524,0.0443
525,0.0413
526,0.0419
527,0.0439
528,0.0435
529,0.0416
530,0.0417
531,0.0397
532,0.0418
533,0.0417
534,0.0400
535,0.0409
536,0.0408
537,0.0406
538,0.0400
539,0.0387
540,0.0418
541,0.0392
542,0.0394
543,0.0393
544,0.0395
545,0.0394
546,0.0403
547,0.0414
548,0.0395
549,0.0386
550,0.0393
551,0.0374
552,0.0407
553,0.0398
554,0.0399
555,0.0376
556,0.0394
557,0.0400
558,0.0397
559,0.0387
560,0.0391
561,0.0386
562,0.0394
563,0.0387
564,0.0398
565,0.0393
566,0.0378
567,0.0391
568,0.0400
569,0.0402
570,0.0411
571,0.0395
572,0.0400
573,0.0406
574,0.0407
575,0.0391
576,0.0383
577,0.0403
578,0.0384
579,0.0394
580,0.0390
581,0.0380
582,0.0377
583,0.0383
584,0.0384
585,0.0384
586,0.0373
587,0.0369
588,0.0370
589,0.0377
590,0.0380
591,0.0378
592,0.0382
593,0.0366
594,0.0375
595,0.0370
596,0.0354
597,0.0363
598,0.0363
599,0.0365
600,0.0358
601,0.0369
602,0.0365
603,0.0362
604,0.0357
605,0.0355
606,0.0355
607,0.0363
608,0.0357
609,0.0357
610,0.0360
611,0.0355
612,0.0366
613,0.0369
614,0.0367
615,0.0367
616,0.0366
617,0.0354
618,0.0359
619,0.0358
620,0.0362
621,0.0358
622,0.0373
623,0.0368
624,0.0369
625,0.0360
626,0.0361
627,0.0362
628,0.0364
629,0.0376
630,0.0364
631,0.0363
632,0.0357
633,0.0372
634,0.0358
635,0.0350
636,0.0361
637,0.0353
638,0.0350
639,0.0352
640,0.0368
641,0.0363
642,0.0350
643,0.0350
644,0.0351
645,0.0355
646,0.0354
647,0.0352
648,0.0350
649,0.0342
650,0.0343
651,0.0346
652,0.0336
653,0.0337
654,0.0331
655,0.0331
656,0.0325
657,0.0324
658,0.0323
659,0.0332
660,0.0336
661,0.0324
662,0.0322
663,0.0335
664,0.0322
665,0.0322
666,0.0327
667,0.0327
668,0.0319
669,0.0328
670,0.0328
671,0.0332
672,0.0322
673,0.0329
674,0.0317
675,0.0325
676,0.0328
677,0.0317
678,0.0315
679,0.0313
680,0.0325
681,0.0320
682,0.0316
683,0.0326
684,0.0327
685,0.0317
686,0.0322
687,0.0320
688,0.0322
689,0.0326
690,0.0327
691,0.0323
692,0.0319
693,0.0326
694,0.0326
695,0.0325
696,0.0327
697,0.0318
698,0.0318
699,0.0323
700,0.0317
701,0.0326
702,0.0335
703,0.0321
704,0.0307
705,0.0311
706,0.0318
707,0.0316
708,0.0323
709,0.0317
710,0.0312
711,0.0323
712,0.0316
713,0.0313
714,0.0310
715,0.0324
716,0.0306
717,0.0312
718,0.0304
719,0.0308
720,0.0303
721,0.0296
722,0.0290
723,0.0292
724,0.0289
725,0.0288
726,0.0275
727,0.0280
728,0.0267
729,0.0277
730,0.0277
731,0.0284
732,0.0278
733,0.0276
734,0.0269
735,0.0270
736,0.0272
737,0.0280
738,0.0262
739,0.0269
740,0.0264
741,0.0263
742,0.0264
743,0.0270
744,0.0276
745,0.0267
746,0.0274
747,0.0268
748,0.0276
749,0.0262
750,0.0262
751,0.0265
752,0.0272
753,0.0277
754,0.0279
755,0.0280
756,0.0278
757,0.0274
758,0.0267
759,0.0274
760,0.0271
761,0.0281
762,0.0276
763,0.0276
764,0.0278
765,0.0274
766,0.0265
767,0.0273
768,0.0267
769,0.0276
770,0.0262
771,0.0279
772,0.0255
773,0.0260
774,0.0279
775,0.0267
776,0.0270
777,0.0261
778,0.0267
779,0.0279
780,0.0258
781,0.0275
782,0.0266
783,0.0264
784,0.0264
785,0.0261
786,0.0267
787,0.0272
788,0.0278
789,0.0250
790,0.0267
791,0.0255
792,0.0255
793,0.0256
794,0.0265
795,0.0267
796,0.0256
797,0.0262
798,0.0256
799,0.0264
800,0.0272
801,0.0259
802,0.0264
803,0.0278
804,0.0274
805,0.0274
806,0.0278
807,0.0286
808,0.0276
809,0.0279
810,0.0296
811,0.0286
812,0.0274
813,0.0285
814,0.0284
815,0.0284
816,0.0298
817,0.0281
818,0.0286
819,0.0307
820,0.0305
821,0.0293
822,0.0296
823,0.0298
824,0.0297
825,0.0299
826,0.0288
827,0.0290
828,0.0266
829,0.0282
830,0.0262
831,0.0281
832,0.0263
833,0.0262
834,0.0261
835,0.0274
836,0.0267
837,0.0255
838,0.0247
839,0.0255
840,0.0236
841,0.0240
842,0.0240
843,0.0240
844,0.0248
845,0.0243
846,0.0244
847,0.0229
848,0.0239
849,0.0232
850,0.0231
851,0.0235
852,0.0240
853,0.0235
854,0.0238
855,0.0231
856,0.0232
857,0.0229
858,0.0219
859,0.0221
860,0.0224
861,0.0226
862,0.0241
863,0.0240
864,0.0217
865,0.0222
866,0.0235
867,0.0249
868,0.0220
869,0.0218
870,0.0216
871,0.0229
872,0.0214
873,0.0210
874,0.0215
875,0.0191
876,0.0207
877,0.0219
878,0.0209
879,0.0229
880,0.0216
881,0.0218
882,0.0226
883,0.0229
884,0.0207
885,0.0228
886,0.0228
887,0.0236
888,0.0230
889,0.0245
890,0.0249
891,0.0241
892,0.0256
893,0.0269
894,0.0266
895,0.0262
896,0.0257
897,0.0260
898,0.0278
899,0.0252
900,0.0278
901,0.0283
902,0.0259
903,0.0266
904,0.0306
905,0.0284
906,0.0283
907,0.0313
908,0.0306
909,0.0301
910,0.0295
911,0.0278
912,0.0303
913,0.0261
914,0.0280
915,0.0263
916,0.0260
917,0.0257
918,0.0244
919,0.0223
920,0.0231
921,0.0208
922,0.0207
923,0.0210
924,0.0219
925,0.0197
926,0.0160
927,0.0183
928,0.0183
929,0.0178
930,0.0172
931,0.0145
932,0.0151
933,0.0106
934,0.0151
935,0.0109
936,0.0106
937,0.0097
938,0.0089
939,0.0078
940,0.0054
941,0.0060
942,0.0035
943,0.0040
944,0.0055
945,0.0041
946,0.0052
947,0.0104
