382,NaN
383,0.7527
384,1.0000
385,1.0000
386,0.0000
387,0.1384
388,0.0000
389,0.0000
390,0.0418
391,0.0279
392,0.1976
393,0.0719
394,0.0156
395,0.0034
396,0.1945
397,0.0000
398,0.0000
399,0.0332
400,0.0051
401,0.2364
402,0.0000
403,0.1574
404,0.0000
405,0.1059
406,0.1686
407,0.0000
408,0.0000
409,0.0797
410,0.0802
411,0.1343
412,0.0993
413,0.1086
414,0.0309
415,0.0000
416,0.0747
417,0.1254
418,0.0486
419,0.0780
420,0.1015
421,0.0605
422,0.0539
423,0.0629
424,0.0547
425,0.0241
426,0.0899
427,0.0697
428,0.0670
429,0.0464
430,0.0764
431,0.0827
432,0.0685
433,0.0490
434,0.0484
435,0.0732
436,0.0565
437,0.0678
438,0.0821
439,0.0611
440,0.0873
441,0.0809
442,0.0743
443,0.0654
444,0.0545
445,0.0493
446,0.0485
447,0.0622
448,0.0458
449,0.0634
450,0.0743
451,0.0480
452,0.0454
453,0.0829
454,0.0640
455,0.0392
456,0.0555
457,0.0565
458,0.0645
459,0.0468
460,0.0576
461,0.0660
462,0.0604
463,0.0740
464,0.0493
465,0.0379
466,0.0528
467,0.0542
468,0.0674
469,0.0624
470,0.0508
471,0.0599
472,0.0733
473,0.0720
474,0.0653
475,0.0645
476,0.0750
477,0.0798
478,0.0687
479,0.0806
480,0.0805
481,0.0652
482,0.0679
483,0.0811
484,0.0747
485,0.0778
486,0.0706
487,0.0897
488,0.0790
489,0.0780
490,0.0821
491,0.0729
492,0.0767
493,0.0822
494,0.0751
495,0.0856
496,0.0789
497,0.0743
498,0.0777
499,0.0746
500,0.0799
501,0.0759
502,0.0717
503,0.0686
504,0.0649
505,0.0656
506,0.0667
507,0.0691
508,0.0636
509,0.0588
510,0.0642
511,0.0588
512,0.0541
513,0.0549
514,0.0539
515,0.0533
516,0.0492
517,0.0503
518,0.0487
519,0.0469
520,0.0484
521,0.0442
522,0.0455
523,0.0454
524,0.0447
525,0.0422
526,0.0438
527,0.0434
528,0.0420
529,0.0424
530,0.0418
531,0.0403
532,0.0420
533,0.0383
534,0.0413
535,0.0399
536,0.0406
537,0.0407
538,0.0407
539,0.0392
540,0.0404
541,0.0400
542,0.0388
543,0.0395
544,0.0390
545,0.0395
546,0.0410
547,0.0408
548,0.0400
549,0.0389
550,0.0411
551,0.0391
552,0.0396
553,0.0387
554,0.0389
555,0.0401
556,0.0404
557,0.0404
558,0.0398
559,0.0394
560,0.0376
561,0.0385
562,0.0392
563,0.0397
564,0.0393
565,0.0388
566,0.0390
567,0.0391
568,0.0399
569,0.0412
570,0.0401
571,0.0408
572,0.0395
573,0.0407
574,0.0397
575,0.0395
576,0.0400
577,0.0402
578,0.0389
579,0.0393
580,0.0394
581,0.0383
582,0.0376
583,0.0381
584,0.0387
585,0.0385
586,0.0385
587,0.0384
588,0.0378
589,0.0370
590,0.0373
591,0.0368
592,0.0374
593,0.0380
594,0.0376
595,0.0368
596,0.0367
597,0.0364
598,0.0360
599,0.0352
600,0.0357
601,0.0357
602,0.0363
603,0.0351
604,0.0370
605,0.0363
606,0.0349
607,0.0360
608,0.0365
609,0.0358
610,0.0354
611,0.0368
612,0.0365
613,0.0367
614,0.0355
615,0.0362
616,0.0361
617,0.0357
618,0.0361
619,0.0369
620,0.0359
621,0.0357
622,0.0368
623,0.0365
624,0.0366
625,0.0363
626,0.0356
627,0.0368
628,0.0364
629,0.0364
630,0.0366
631,0.0371
632,0.0349
633,0.0353
634,0.0358
635,0.0349
636,0.0353
637,0.0352
638,0.0351
639,0.0352
640,0.0362
641,0.0358
642,0.0360
643,0.0351
644,0.0359
645,0.0353
646,0.0357
647,0.0345
648,0.0350
649,0.0340
650,0.0344
651,0.0341
652,0.0343
653,0.0343
654,0.0332
655,0.0339
656,0.0330
657,0.0334
658,0.0332
659,0.0332
660,0.0341
661,0.0327
662,0.0337
663,0.0335
664,0.0324
665,0.0320
666,0.0314
667,0.0328
668,0.0328
669,0.0328
670,0.0330
671,0.0333
672,0.0330
673,0.0325
674,0.0310
675,0.0326
676,0.0324
677,0.0321
678,0.0324
679,0.0318
680,0.0313
681,0.0326
682,0.0317
683,0.0318
684,0.0322
685,0.0321
686,0.0327
687,0.0317
688,0.0322
689,0.0322
690,0.0312
691,0.0324
692,0.0322
693,0.0323
694,0.0321
695,0.0314
696,0.0318
697,0.0327
698,0.0317
699,0.0326
700,0.0331
701,0.0317
702,0.0321
703,0.0325
704,0.0303
705,0.0314
706,0.0314
707,0.0314
708,0.0319
709,0.0320
710,0.0312
711,0.0325
712,0.0312
713,0.0320
714,0.0320
715,0.0321
716,0.0312
717,0.0314
718,0.0315
719,0.0304
720,0.0300
721,0.0285
722,0.0283
723,0.0291
724,0.0290
725,0.0285
726,0.0290
727,0.0283
728,0.0278
729,0.0272
730,0.0281
731,0.0273
732,0.0279
733,0.0275
734,0.0273
735,0.0286
736,0.0284
737,0.0272
738,0.0275
739,0.0272
740,0.0263
741,0.0268
742,0.0270
743,0.0266
744,0.0277
745,0.0275
746,0.0271
747,0.0276
748,0.0285
749,0.0269
750,0.0263
751,0.0272
752,0.0269
753,0.0276
754,0.0281
755,0.0285
756,0.0273
757,0.0282
758,0.0276
759,0.0275
760,0.0273
761,0.0274
762,0.0271
763,0.0286
764,0.0274
765,0.0273
766,0.0272
767,0.0265
768,0.0271
769,0.0272
770,0.0265
771,0.0278
772,0.0266
773,0.0261
774,0.0267
775,0.0266
776,0.0264
777,0.0262
778,0.0272
779,0.0271
780,0.0263
781,0.0262
782,0.0267
783,0.0262
784,0.0264
785,0.0267
786,0.0261
787,0.0259
788,0.0266
789,0.0263
790,0.0246
791,0.0248
792,0.0270
793,0.0256
794,0.0258
795,0.0266
796,0.0258
797,0.0264
798,0.0260
799,0.0259
800,0.0254
801,0.0266
802,0.0270
803,0.0265
804,0.0270
805,0.0272
806,0.0253
807,0.0289
808,0.0290
809,0.0276
810,0.0295
811,0.0284
812,0.0279
813,0.0283
814,0.0292
815,0.0272
816,0.0296
817,0.0279
818,0.0291
819,0.0295
820,0.0298
821,0.0306
822,0.0294
823,0.0289
824,0.0280
825,0.0291
826,0.0289
827,0.0273
828,0.0272
829,0.0268
830,0.0276
831,0.0281
832,0.0272
833,0.0261
834,0.0271
835,0.0264
836,0.0269
837,0.0260
838,0.0253
839,0.0243
840,0.0253
841,0.0242
842,0.0253
843,0.0240
844,0.0237
845,0.0233
846,0.0225
847,0.0237
848,0.0229
849,0.0241
850,0.0227
851,0.0242
852,0.0237
853,0.0229
854,0.0238
855,0.0234
856,0.0219
857,0.0240
858,0.0233
859,0.0213
860,0.0234
861,0.0229
862,0.0234
863,0.0229
864,0.0227
865,0.0220
866,0.0223
867,0.0242
868,0.0208
869,0.0229
870,0.0215
871,0.0229
872,0.0223
873,0.0216
874,0.0211
875,0.0197
876,0.0206
877,0.0220
878,0.0185
879,0.0226
880,0.0227
881,0.0216
882,0.0210
883,0.0223
884,0.0208
885,0.0237
886,0.0232
887,0.0242
888,0.0229
889,0.0239
890,0.0238
891,0.0260
892,0.0252
893,0.0279
894,0.0271
895,0.0259
896,0.0261
897,0.0262
898,0.0237
899,0.0260
900,0.0311
901,0.0288
902,0.0279
903,0.0269
904,0.0299
905,0.0290
906,0.0289
907,0.0313
908,0.0301
909,0.0278
910,0.0293
911,0.0294
912,0.0285
913,0.0251
914,0.0249
915,0.0258
916,0.0271
917,0.0249
918,0.0229
919,0.0217
920,0.0246
921,0.0216
922,0.0241
923,0.0184
924,0.0206
925,0.0215
926,0.0216
927,0.0201
928,0.0178
929,0.0177
930,0.0183
931,0.0173
932,0.0153
933,0.0142
934,0.0128
935,0.0128
936,0.0108
937,0.0103
938,0.0084
939,0.0079
940,0.0068
941,0.0050
942,0.0037
943,0.0049
944,0.0054
945,0.0057
946,0.0038
947,0.0116
