382,NaN
383,1.0000
384,0.3096
385,1.0000
386,0.0000
387,0.2120
388,0.3058
389,0.0830
390,0.0891
391,0.0852
392,0.2844
393,0.1369
394,0.0000
395,0.0853
396,0.2198
397,0.0000
398,0.0000
399,0.0116
400,0.0000
401,0.2428
402,0.0000
403,0.0321
404,0.1392
405,0.1786
406,0.0219
407,0.0000
408,0.0525
409,0.0430
410,0.1330
411,0.1146
412,0.1014
413,0.0201
414,0.0701
415,0.0506
416,0.0312
417,0.0736
418,0.0000
419,0.0892
420,0.0839
421,0.0713
422,0.0380
423,0.0741
424,0.0712
425,0.0178
426,0.0656
427,0.0527
428,0.0435
429,0.0328
430,0.0963
431,0.0833
432,0.0444
433,0.0315
434,0.0471
435,0.0564
436,0.1045
437,0.0756
438,0.0900
439,0.0127
440,0.0675
441,0.0829
442,0.0656
443,0.0937
444,0.0493
445,0.0713
446,0.0493
447,0.0796
448,0.0594
449,0.0730
450,0.0450
451,0.0429
452,0.0408
453,0.0767
454,0.0806
455,0.0531
456,0.0599
457,0.0570
458,0.0598
459,0.0680
460,0.0525
461,0.0672
462,0.0491
463,0.0673
464,0.0511
465,0.0462
466,0.0569
467,0.0503
468,0.0758
469,0.0749
470,0.0545
471,0.0426
472,0.0706
473,0.0787
474,0.0578
475,0.0708
476,0.0678
477,0.0750
478,0.0732
479,0.0812
480,0.0811
481,0.0768
482,0.0711
483,0.0751
484,0.0697
485,0.0854
486,0.0684
487,0.0800
488,0.0772
489,0.0783
490,0.0893
491,0.0858
492,0.0726
493,0.0886
494,0.0841
495,0.0874
496,0.0835
497,0.0774
498,0.0837
499,0.0759
500,0.0805
501,0.0752
502,0.0708
503,0.0737
504,0.0654
505,0.0673
506,0.0682
507,0.0663
508,0.0635
509,0.0627
510,0.0634
511,0.0538
512,0.0569
513,0.0554
514,0.0550
515,0.0551
516,0.0515
517,0.0508
518,0.0470
519,0.0476
520,0.0496
521,0.0436
522,0.0443
523,0.0439
524,0.0454
525,0.0439
526,0.0436
527,0.0444
528,0.0427
529,0.0429
530,0.0414
531,0.0424
532,0.0441
533,0.0412
534,0.0420
535,0.0407
536,0.0405
537,0.0421
538,0.0395
539,0.0400
540,0.0420
541,0.0397
542,0.0404
543,0.0400
544,0.0397
545,0.0394
546,0.0410
547,0.0398
548,0.0395
549,0.0393
550,0.0397
551,0.0389
552,0.0392
553,0.0405
554,0.0405
555,0.0384
556,0.0404
557,0.0404
558,0.0399
559,0.0390
560,0.0386
561,0.0401
562,0.0412
563,0.0401
564,0.0399
565,0.0394
566,0.0376
567,0.0395
568,0.0390
569,0.0397
570,0.0421
571,0.0417
572,0.0408
573,0.0410
574,0.0405
575,0.0399
576,0.0403
577,0.0408
578,0.0393
579,0.0408
580,0.0414
581,0.0397
582,0.0386
583,0.0402
584,0.0392
585,0.0389
586,0.0382
587,0.0387
588,0.0379
589,0.0374
590,0.0380
591,0.0378
592,0.0368
593,0.0373
594,0.0371
595,0.0375
596,0.0358
597,0.0354
598,0.0362
599,0.0364
600,0.0367
601,0.0368
602,0.0365
603,0.0368
604,0.0363
605,0.0357
606,0.0356
607,0.0368
608,0.0372
609,0.0368
610,0.0351
611,0.0358
612,0.0365
613,0.0362
614,0.0359
615,0.0361
616,0.0361
617,0.0360
618,0.0367
619,0.0366
620,0.0364
621,0.0356
622,0.0373
623,0.0373
624,0.0368
625,0.0369
626,0.0364
627,0.0366
628,0.0372
629,0.0365
630,0.0374
631,0.0380
632,0.0359
633,0.0355
634,0.0358
635,0.0354
636,0.0349
637,0.0357
638,0.0348
639,0.0359
640,0.0364
641,0.0361
642,0.0352
643,0.0356
644,0.0356
645,0.0349
646,0.0351
647,0.0347
648,0.0357
649,0.0353
650,0.0340
651,0.0345
652,0.0351
653,0.0352
654,0.0342
655,0.0344
656,0.0334
657,0.0329
658,0.0336
659,0.0330
660,0.0332
661,0.0326
662,0.0332
663,0.0339
664,0.0328
665,0.0334
666,0.0326
667,0.0327
668,0.0332
669,0.0328
670,0.0333
671,0.0334
672,0.0332
673,0.0331
674,0.0315
675,0.0329
676,0.0326
677,0.0326
678,0.0325
679,0.0320
680,0.0310
681,0.0321
682,0.0312
683,0.0324
684,0.0326
685,0.0316
686,0.0324
687,0.0319
688,0.0324
689,0.0323
690,0.0322
691,0.0333
692,0.0323
693,0.0324
694,0.0330
695,0.0322
696,0.0321
697,0.0331
698,0.0315
699,0.0329
700,0.0331
701,0.0329
702,0.0323
703,0.0320
704,0.0317
705,0.0315
706,0.0316
707,0.0329
708,0.0320
709,0.0325
710,0.0315
711,0.0323
712,0.0314
713,0.0313
714,0.0321
715,0.0314
716,0.0317
717,0.0311
718,0.0308
719,0.0311
720,0.0293
721,0.0293
722,0.0281
723,0.0298
724,0.0288
725,0.0288
726,0.0287
727,0.0288
728,0.0280
729,0.0280
730,0.0282
731,0.0275
732,0.0281
733,0.0273
734,0.0276
735,0.0278
736,0.0277
737,0.0275
738,0.0282
739,0.0274
740,0.0266
741,0.0268
742,0.0267
743,0.0273
744,0.0270
745,0.0277
746,0.0275
747,0.0269
748,0.0280
749,0.0265
750,0.0265
751,0.0270
752,0.0274
753,0.0285
754,0.0281
755,0.0278
756,0.0277
757,0.0275
758,0.0273
759,0.0273
760,0.0275
761,0.0280
762,0.0273
763,0.0275
764,0.0278
765,0.0270
766,0.0264
767,0.0271
768,0.0278
769,0.0270
770,0.0270
771,0.0272
772,0.0267
773,0.0264
774,0.0266
775,0.0273
776,0.0276
777,0.0265
778,0.0281
779,0.0271
780,0.0266
781,0.0273
782,0.0267
783,0.0267
784,0.0265
785,0.0267
786,0.0263
787,0.0265
788,0.0260
789,0.0263
790,0.0272
791,0.0254
792,0.0262
793,0.0249
794,0.0261
795,0.0266
796,0.0265
797,0.0274
798,0.0255
799,0.0264
800,0.0269
801,0.0273
802,0.0277
803,0.0276
804,0.0266
805,0.0271
806,0.0284
807,0.0286
808,0.0279
809,0.0288
810,0.0303
811,0.0288
812,0.0275
813,0.0293
814,0.0275
815,0.0283
816,0.0296
817,0.0287
818,0.0292
819,0.0301
820,0.0293
821,0.0290
822,0.0309
823,0.0286
824,0.0289
825,0.0303
826,0.0286
827,0.0285
828,0.0291
829,0.0280
830,0.0294
831,0.0277
832,0.0265
833,0.0260
834,0.0257
835,0.0267
836,0.0274
837,0.0268
838,0.0260
839,0.0244
840,0.0248
841,0.0243
842,0.0259
843,0.0235
844,0.0247
845,0.0242
846,0.0237
847,0.0232
848,0.0229
849,0.0235
850,0.0233
851,0.0244
852,0.0239
853,0.0235
854,0.0244
855,0.0236
856,0.0216
857,0.0256
858,0.0225
859,0.0232
860,0.0219
861,0.0236
862,0.0235
863,0.0238
864,0.0214
865,0.0213
866,0.0222
867,0.0227
868,0.0230
869,0.0208
870,0.0216
871,0.0232
872,0.0230
873,0.0216
874,0.0210
875,0.0216
876,0.0230
877,0.0218
878,0.0203
879,0.0212
880,0.0234
881,0.0190
882,0.0221
883,0.0224
884,0.0223
885,0.0232
886,0.0232
887,0.0249
888,0.0230
889,0.0252
890,0.0266
891,0.0241
892,0.0239
893,0.0269
894,0.0275
895,0.0248
896,0.0254
897,0.0258
898,0.0270
899,0.0255
900,0.0299
901,0.0295
902,0.0282
903,0.0288
904,0.0292
905,0.0277
906,0.0270
907,0.0297
908,0.0276
909,0.0276
910,0.0313
911,0.0289
912,0.0287
913,0.0277
914,0.0268
915,0.0265
916,0.0282
917,0.0261
918,0.0236
919,0.0219
920,0.0233
921,0.0217
922,0.0218
923,0.0199
924,0.0223
925,0.0204
926,0.0194
927,0.0168
928,0.0167
929,0.0181
930,0.0171
931,0.0152
932,0.0157
933,0.0133
934,0.0148
935,0.0128
936,0.0108
937,0.0092
938,0.0107
939,0.0066
940,0.0063
941,0.0063
942,0.0043
943,0.0054
944,0.0053
945,0.0051
946,0.0042
947,0.0157
