382,NaN
383,1.0000
384,0.0000
385,0.8311
386,0.0000
387,0.1359
388,0.1251
389,0.0885
390,0.0000
391,0.0165
392,0.1712
393,0.1328
394,0.0157
395,0.0909
396,0.1689
397,0.1134
398,0.0231
399,0.0182
400,0.0023
401,0.2801
402,0.0000
403,0.1765
404,0.0486
405,0.0992
406,0.0887
407,0.0813
408,0.0914
409,0.1419
410,0.1582
411,0.0922
412,0.0764
413,0.1103
414,0.0406
415,0.1008
416,0.0554
417,0.0805
418,0.0031
419,0.0542
420,0.0426
421,0.0205
422,0.0127
423,0.0508
424,0.0393
425,0.0163
426,0.0916
427,0.0375
428,0.0706
429,0.0589
430,0.0895
431,0.0983
432,0.0419
433,0.0618
434,0.0765
435,0.0955
436,0.0613
437,0.0818
438,0.0769
439,0.0427
440,0.0449
441,0.0702
442,0.0584
443,0.0878
444,0.0532
445,0.0601
446,0.0512
447,0.0605
448,0.0461
449,0.0653
450,0.0609
451,0.0484
452,0.0424
453,0.0683
454,0.0725
455,0.0622
456,0.0590
457,0.0568
458,0.0713
459,0.0658
460,0.0491
461,0.0593
462,0.0481
463,0.0634
464,0.0546
465,0.0516
466,0.0553
467,0.0563
468,0.0685
469,0.0639
470,0.0500
471,0.0627
472,0.0665
473,0.0621
474,0.0584
475,0.0714
476,0.0645
477,0.0767
478,0.0756
479,0.0750
480,0.0689
481,0.0788
482,0.0743
483,0.0780
484,0.0755
485,0.0810
486,0.0733
487,0.0875
488,0.0828
489,0.0884
490,0.0867
491,0.0779
492,0.0772
493,0.0798
494,0.0871
495,0.0849
496,0.0828
497,0.0814
498,0.0826
499,0.0712
500,0.0761
501,0.0775
502,0.0771
503,0.0684
504,0.0683
505,0.0637
506,0.0672
507,0.0680
508,0.0663
509,0.0647
510,0.0649
511,0.0540
512,0.0560
513,0.0547
514,0.0541
515,0.0551
516,0.0527
517,0.0505
518,0.0478
519,0.0471
520,0.0505
521,0.0436
522,0.0462
523,0.0440
524,0.0436
525,0.0408
526,0.0452
527,0.0433
528,0.0414
529,0.0417
530,0.0410
531,0.0420
532,0.0404
533,0.0399
534,0.0412
535,0.0412
536,0.0417
537,0.0415
538,0.0389
539,0.0414
540,0.0417
541,0.0407
542,0.0391
543,0.0394
544,0.0390
545,0.0402
546,0.0406
547,0.0396
548,0.0396
549,0.0377
550,0.0392
551,0.0383
552,0.0390
553,0.0395
554,0.0403
555,0.0377
556,0.0408
557,0.0416
558,0.0405
559,0.0407
560,0.0400
561,0.0397
562,0.0410
563,0.0399
564,0.0397
565,0.0400
566,0.0395
567,0.0398
568,0.0403
569,0.0406
570,0.0413
571,0.0404
572,0.0403
573,0.0404
574,0.0406
575,0.0393
576,0.0399
577,0.0399
578,0.0394
579,0.0400
580,0.0393
581,0.0383
582,0.0392
583,0.0390
584,0.0386
585,0.0374
586,0.0388
587,0.0371
588,0.0377
589,0.0376
590,0.0370
591,0.0373
592,0.0375
593,0.0379
594,0.0370
595,0.0370
596,0.0362
597,0.0355
598,0.0362
599,0.0372
600,0.0370
601,0.0360
602,0.0369
603,0.0366
604,0.0359
605,0.0364
606,0.0351
607,0.0364
608,0.0358
609,0.0370
610,0.0359
611,0.0364
612,0.0363
613,0.0369
614,0.0364
615,0.0371
616,0.0363
617,0.0362
618,0.0363
619,0.0371
620,0.0363
621,0.0362
622,0.0373
623,0.0372
624,0.0372
625,0.0368
626,0.0365
627,0.0368
628,0.0371
629,0.0370
630,0.0369
631,0.0384
632,0.0361
633,0.0356
634,0.0360
635,0.0358
636,0.0353
637,0.0356
638,0.0353
639,0.0357
640,0.0361
641,0.0366
642,0.0356
643,0.0351
644,0.0341
645,0.0351
646,0.0359
647,0.0355
648,0.0356
649,0.0352
650,0.0354
651,0.0346
652,0.0345
653,0.0345
654,0.0324
655,0.0340
656,0.0339
657,0.0337
658,0.0329
659,0.0323
660,0.0321
661,0.0329
662,0.0333
663,0.0339
664,0.0328
665,0.0324
666,0.0320
667,0.0331
668,0.0332
669,0.0325
670,0.0322
671,0.0332
672,0.0327
673,0.0326
674,0.0317
675,0.0337
676,0.0324
677,0.0319
678,0.0320
679,0.0316
680,0.0321
681,0.0324
682,0.0320
683,0.0324
684,0.0330
685,0.0324
686,0.0325
687,0.0314
688,0.0327
689,0.0332
690,0.0323
691,0.0314
692,0.0332
693,0.0324
694,0.0329
695,0.0322
696,0.0325
697,0.0322
698,0.0327
699,0.0327
700,0.0326
701,0.0326
702,0.0326
703,0.0321
704,0.0311
705,0.0312
706,0.0317
707,0.0323
708,0.0326
709,0.0317
710,0.0312
711,0.0322
712,0.0312
713,0.0318
714,0.0312
715,0.0316
716,0.0325
717,0.0317
718,0.0309
719,0.0311
720,0.0300
721,0.0290
722,0.0295
723,0.0301
724,0.0289
725,0.0288
726,0.0283
727,0.0274
728,0.0278
729,0.0279
730,0.0276
731,0.0282
732,0.0288
733,0.0272
734,0.0275
735,0.0278
736,0.0275
737,0.0283
738,0.0278
739,0.0272
740,0.0260
741,0.0281
742,0.0270
743,0.0270
744,0.0275
745,0.0268
746,0.0269
747,0.0273
748,0.0275
749,0.0273
750,0.0260
751,0.0281
752,0.0271
753,0.0281
754,0.0282
755,0.0278
756,0.0262
757,0.0277
758,0.0275
759,0.0285
760,0.0275
761,0.0277
762,0.0270
763,0.0282
764,0.0281
765,0.0273
766,0.0274
767,0.0271
768,0.0276
769,0.0274
770,0.0268
771,0.0273
772,0.0263
773,0.0267
774,0.0272
775,0.0268
776,0.0277
777,0.0270
778,0.0259
779,0.0274
780,0.0258
781,0.0272
782,0.0265
783,0.0262
784,0.0262
785,0.0265
786,0.0269
787,0.0268
788,0.0277
789,0.0261
790,0.0262
791,0.0257
792,0.0270
793,0.0251
794,0.0276
795,0.0260
796,0.0258
797,0.0271
798,0.0260
799,0.0269
800,0.0272
801,0.0275
802,0.0270
803,0.0268
804,0.0279
805,0.0275
806,0.0278
807,0.0280
808,0.0287
809,0.0278
810,0.0294
811,0.0281
812,0.0283
813,0.0288
814,0.0292
815,0.0283
816,0.0300
817,0.0294
818,0.0295
819,0.0301
820,0.0308
821,0.0299
822,0.0296
823,0.0285
824,0.0281
825,0.0301
826,0.0296
827,0.0283
828,0.0276
829,0.0274
830,0.0284
831,0.0288
832,0.0286
833,0.0267
834,0.0266
835,0.0269
836,0.0271
837,0.0255
838,0.0251
839,0.0245
840,0.0246
841,0.0249
842,0.0245
843,0.0234
844,0.0238
845,0.0245
846,0.0241
847,0.0241
848,0.0254
849,0.0240
850,0.0230
851,0.0242
852,0.0238
853,0.0223
854,0.0236
855,0.0226
856,0.0232
857,0.0235
858,0.0235
859,0.0238
860,0.0218
861,0.0238
862,0.0235
863,0.0242
864,0.0229
865,0.0207
866,0.0228
867,0.0232
868,0.0235
869,0.0204
870,0.0207
871,0.0213
872,0.0230
873,0.0207
874,0.0221
875,0.0217
876,0.0216
877,0.0226
878,0.0208
879,0.0220
880,0.0220
881,0.0219
882,0.0211
883,0.0234
884,0.0215
885,0.0233
886,0.0224
887,0.0242
888,0.0233
889,0.0245
890,0.0264
891,0.0254
892,0.0249
893,0.0265
894,0.0263
895,0.0263
896,0.0266
897,0.0264
898,0.0278
899,0.0274
900,0.0296
901,0.0296
902,0.0276
903,0.0270
904,0.0290
905,0.0267
906,0.0292
907,0.0321
908,0.0306
909,0.0301
910,0.0304
911,0.0261
912,0.0294
913,0.0266
914,0.0269
915,0.0256
916,0.0285
917,0.0255
918,0.0262
919,0.0225
920,0.0261
921,0.0230
922,0.0214
923,0.0211
924,0.0210
925,0.0206
926,0.0178
927,0.0186
928,0.0199
929,0.0195
930,0.0182
931,0.0155
932,0.0158
933,0.0132
934,0.0141
935,0.0136
936,0.0110
937,0.0094
938,0.0092
939,0.0069
940,0.0072
941,0.0054
942,0.0036
943,0.0045
944,0.0053
945,0.0064
946,0.0035
947,0.0071
