382,NaN
383,1.0000
384,0.6815
385,1.0000
386,0.0000
387,0.2390
388,0.1625
389,0.1465
390,0.2308
391,0.3781
392,0.1860
393,0.1406
394,0.0000
395,0.0000
396,0.2466
397,0.0000
398,0.0365
399,0.0000
400,0.1346
401,0.2910
402,0.0000
403,0.0981
404,0.0000
405,0.0101
406,0.0405
407,0.0000
408,0.0549
409,0.0164
410,0.1233
411,0.1055
412,0.1012
413,0.0380
414,0.1092
415,0.0976
416,0.0284
417,0.0994
418,0.0353
419,0.0333
420,0.0876
421,0.0130
422,0.0823
423,0.0994
424,0.0810
425,0.0497
426,0.0694
427,0.0358
428,0.0484
429,0.0711
430,0.1196
431,0.0562
432,0.0515
433,0.0394
434,0.0516
435,0.0620
436,0.0730
437,0.0620
438,0.0440
439,0.0774
440,0.0686
441,0.0654
442,0.0370
443,0.0938
444,0.0823
445,0.0678
446,0.0572
447,0.0753
448,0.0577
449,0.0640
450,0.0785
451,0.0317
452,0.0388
453,0.0606
454,0.0661
455,0.0566
456,0.0573
457,0.0603
458,0.0678
459,0.0629
460,0.0593
461,0.0725
462,0.0586
463,0.0752
464,0.0472
465,0.0482
466,0.0571
467,0.0493
468,0.0746
469,0.0686
470,0.0538
471,0.0553
472,0.0656
473,0.0643
474,0.0542
475,0.0703
476,0.0653
477,0.0826
478,0.0665
479,0.0759
480,0.0773
481,0.0651
482,0.0730
483,0.0776
484,0.0667
485,0.0896
486,0.0699
487,0.0877
488,0.0679
489,0.0774
490,0.0783
491,0.0761
492,0.0714
493,0.0880
494,0.0809
495,0.0805
496,0.0782
497,0.0776
498,0.0854
499,0.0728
500,0.0783
501,0.0768
502,0.0725
503,0.0702
504,0.0671
505,0.0642
506,0.0648
507,0.0694
508,0.0626
509,0.0648
510,0.0617
511,0.0550
512,0.0559
513,0.0535
514,0.0544
515,0.0525
516,0.0523
517,0.0505
518,0.0482
519,0.0483
520,0.0478
521,0.0466
522,0.0461
523,0.0423
524,0.0437
525,0.0427
526,0.0434
527,0.0438
528,0.0430
529,0.0437
530,0.0416
531,0.0439
532,0.0422
533,0.0395
534,0.0425
535,0.0408
536,0.0418
537,0.0414
538,0.0400
539,0.0407
540,0.0400
541,0.0392
542,0.0393
543,0.0403
544,0.0402
545,0.0398
546,0.0424
547,0.0411
548,0.0394
549,0.0391
550,0.0393
551,0.0383
552,0.0408
553,0.0391
554,0.0400
555,0.0389
556,0.0411
557,0.0393
558,0.0405
559,0.0396
560,0.0399
561,0.0385
562,0.0395
563,0.0400
564,0.0398
565,0.0398
566,0.0391
567,0.0397
568,0.0396
569,0.0414
570,0.0410
571,0.0417
572,0.0393
573,0.0414
574,0.0408
575,0.0397
576,0.0398
577,0.0398
578,0.0394
579,0.0410
580,0.0392
581,0.0391
582,0.0381
583,0.0388
584,0.0381
585,0.0386
586,0.0392
587,0.0383
588,0.0383
589,0.0382
590,0.0384
591,0.0365
592,0.0370
593,0.0368
594,0.0366
595,0.0377
596,0.0380
597,0.0369
598,0.0368
599,0.0371
600,0.0372
601,0.0361
602,0.0368
603,0.0367
604,0.0362
605,0.0372
606,0.0358
607,0.0369
608,0.0365
609,0.0365
610,0.0364
611,0.0358
612,0.0374
613,0.0370
614,0.0370
615,0.0366
616,0.0357
617,0.0351
618,0.0363
619,0.0368
620,0.0365
621,0.0364
622,0.0362
623,0.0380
624,0.0369
625,0.0368
626,0.0364
627,0.0375
628,0.0361
629,0.0373
630,0.0369
631,0.0371
632,0.0361
633,0.0355
634,0.0357
635,0.0351
636,0.0356
637,0.0360
638,0.0354
639,0.0361
640,0.0367
641,0.0357
642,0.0364
643,0.0358
644,0.0354
645,0.0366
646,0.0354
647,0.0352
648,0.0359
649,0.0357
650,0.0345
651,0.0345
652,0.0348
653,0.0342
654,0.0334
655,0.0337
656,0.0342
657,0.0331
658,0.0333
659,0.0341
660,0.0323
661,0.0325
662,0.0339
663,0.0344
664,0.0330
665,0.0331
666,0.0326
667,0.0329
668,0.0329
669,0.0330
670,0.0336
671,0.0331
672,0.0327
673,0.0325
674,0.0322
675,0.0332
676,0.0330
677,0.0319
678,0.0323
679,0.0320
680,0.0324
681,0.0327
682,0.0320
683,0.0322
684,0.0320
685,0.0322
686,0.0328
687,0.0315
688,0.0321
689,0.0328
690,0.0321
691,0.0324
692,0.0327
693,0.0323
694,0.0329
695,0.0324
696,0.0330
697,0.0321
698,0.0326
699,0.0326
700,0.0342
701,0.0329
702,0.0315
703,0.0332
704,0.0316
705,0.0313
706,0.0306
707,0.0315
708,0.0325
709,0.0323
710,0.0319
711,0.0326
712,0.0314
713,0.0321
714,0.0312
715,0.0312
716,0.0311
717,0.0310
718,0.0307
719,0.0309
720,0.0301
721,0.0290
722,0.0291
723,0.0294
724,0.0290
725,0.0288
726,0.0286
727,0.0286
728,0.0277
729,0.0280
730,0.0279
731,0.0273
732,0.0282
733,0.0272
734,0.0270
735,0.0279
736,0.0278
737,0.0278
738,0.0280
739,0.0275
740,0.0270
741,0.0274
742,0.0265
743,0.0277
744,0.0276
745,0.0277
746,0.0266
747,0.0265
748,0.0280
749,0.0270
750,0.0274
751,0.0270
752,0.0272
753,0.0270
754,0.0282
755,0.0275
756,0.0265
757,0.0282
758,0.0266
759,0.0284
760,0.0276
761,0.0269
762,0.0272
763,0.0282
764,0.0270
765,0.0275
766,0.0272
767,0.0273
768,0.0272
769,0.0267
770,0.0263
771,0.0277
772,0.0255
773,0.0268
774,0.0280
775,0.0273
776,0.0270
777,0.0268
778,0.0264
779,0.0274
780,0.0267
781,0.0268
782,0.0259
783,0.0270
784,0.0269
785,0.0277
786,0.0270
787,0.0264
788,0.0277
789,0.0264
790,0.0259
791,0.0254
792,0.0258
793,0.0246
794,0.0258
795,0.0261
796,0.0271
797,0.0268
798,0.0254
799,0.0262
800,0.0277
801,0.0267
802,0.0261
803,0.0278
804,0.0267
805,0.0265
806,0.0269
807,0.0290
808,0.0284
809,0.0288
810,0.0300
811,0.0285
812,0.0285
813,0.0289
814,0.0284
815,0.0284
816,0.0295
817,0.0290
818,0.0285
819,0.0309
820,0.0308
821,0.0298
822,0.0293
823,0.0304
824,0.0285
825,0.0297
826,0.0283
827,0.0281
828,0.0275
829,0.0288
830,0.0283
831,0.0272
832,0.0261
833,0.0258
834,0.0272
835,0.0268
836,0.0254
837,0.0261
838,0.0238
839,0.0263
840,0.0241
841,0.0239
842,0.0255
843,0.0246
844,0.0249
845,0.0243
846,0.0242
847,0.0236
848,0.0241
849,0.0244
850,0.0235
851,0.0239
852,0.0238
853,0.0231
854,0.0246
855,0.0238
856,0.0228
857,0.0233
858,0.0226
859,0.0226
860,0.0224
861,0.0224
862,0.0211
863,0.0245
864,0.0225
865,0.0212
866,0.0223
867,0.0222
868,0.0227
869,0.0214
870,0.0207
871,0.0213
872,0.0230
873,0.0221
874,0.0212
875,0.0215
876,0.0218
877,0.0219
878,0.0213
879,0.0221
880,0.0239
881,0.0217
882,0.0226
883,0.0233
884,0.0229
885,0.0220
886,0.0229
887,0.0241
888,0.0219
889,0.0256
890,0.0254
891,0.0245
892,0.0235
893,0.0269
894,0.0280
895,0.0266
896,0.0269
897,0.0274
898,0.0264
899,0.0264
900,0.0270
901,0.0290
902,0.0278
903,0.0277
904,0.0287
905,0.0293
906,0.0297
907,0.0299
908,0.0306
909,0.0297
910,0.0316
911,0.0277
912,0.0286
913,0.0244
914,0.0281
915,0.0254
916,0.0266
917,0.0249
918,0.0261
919,0.0236
920,0.0245
921,0.0219
922,0.0231
923,0.0189
924,0.0216
925,0.0213
926,0.0196
927,0.0198
928,0.0173
929,0.0182
930,0.0173
931,0.0164
932,0.0148
933,0.0114
934,0.0175
935,0.0109
936,0.0094
937,0.0097
938,0.0090
939,0.0084
940,0.0062
941,0.0065
942,0.0040
943,0.0045
944,0.0066
945,0.0048
946,0.0048
947,0.0128
