382,NaN
383,0.6690
384,0.2171
385,1.0000
386,0.0000
387,0.1387
388,0.1866
389,0.0000
390,0.0547
391,0.0371
392,0.1689
393,0.0341
394,0.0000
395,0.0293
396,0.2619
397,0.0466
398,0.1072
399,0.0490
400,0.0784
401,0.2966
402,0.0000
403,0.1277
404,0.0923
405,0.0122
406,0.1045
407,0.1529
408,0.0399
409,0.0554
410,0.1058
411,0.0722
412,0.0387
413,0.1312
414,0.0688
415,0.0457
416,0.0938
417,0.0413
418,0.0002
419,0.0443
420,0.0083
421,0.0643
422,0.0808
423,0.0636
424,0.0400
425,0.0570
426,0.0763
427,0.0528
428,0.0720
429,0.0464
430,0.0647
431,0.0429
432,0.0345
433,0.0133
434,0.0516
435,0.0569
436,0.0531
437,0.0915
438,0.0732
439,0.0910
440,0.0566
441,0.0523
442,0.0979
443,0.0886
444,0.0616
445,0.0629
446,0.0722
447,0.0541
448,0.0483
449,0.0643
450,0.0562
451,0.0530
452,0.0510
453,0.0616
454,0.0671
455,0.0528
456,0.0526
457,0.0543
458,0.0515
459,0.0525
460,0.0531
461,0.0710
462,0.0627
463,0.0634
464,0.0563
465,0.0450
466,0.0585
467,0.0596
468,0.0634
469,0.0702
470,0.0519
471,0.0576
472,0.0778
473,0.0645
474,0.0633
475,0.0762
476,0.0688
477,0.0794
478,0.0687
479,0.0750
480,0.0785
481,0.0735
482,0.0672
483,0.0754
484,0.0717
485,0.0804
486,0.0736
487,0.0837
488,0.0744
489,0.0803
490,0.0867
491,0.0809
492,0.0802
493,0.0830
494,0.0817
495,0.0786
496,0.0857
497,0.0796
498,0.0812
499,0.0793
500,0.0781
501,0.0730
502,0.0783
503,0.0653
504,0.0676
505,0.0638
506,0.0667
507,0.0677
508,0.0630
509,0.0622
510,0.0640
511,0.0586
512,0.0556
513,0.0551
514,0.0569
515,0.0514
516,0.0514
517,0.0483
518,0.0471
519,0.0495
520,0.0485
521,0.0451
522,0.0451
523,0.0447
524,0.0432
525,0.0422
526,0.0437
527,0.0439
528,0.0439
529,0.0422
530,0.0405
531,0.0415
532,0.0407
533,0.0406
534,0.0417
535,0.0408
536,0.0415
537,0.0396
538,0.0399
539,0.0399
540,0.0410
541,0.0396
542,0.0396
543,0.0411
544,0.0389
545,0.0408
546,0.0422
547,0.0405
548,0.0392
549,0.0398
550,0.0403
551,0.0393
552,0.0407
553,0.0391
554,0.0391
555,0.0383
556,0.0400
557,0.0391
558,0.0392
559,0.0405
560,0.0396
561,0.0394
562,0.0409
563,0.0398
564,0.0403
565,0.0402
566,0.0395
567,0.0393
568,0.0408
569,0.0404
570,0.0409
571,0.0409
572,0.0408
573,0.0412
574,0.0403
575,0.0393
576,0.0410
577,0.0409
578,0.0401
579,0.0404
580,0.0396
581,0.0390
582,0.0392
583,0.0394
584,0.0393
585,0.0385
586,0.0374
587,0.0376
588,0.0373
589,0.0382
590,0.0386
591,0.0372
592,0.0372
593,0.0376
594,0.0360
595,0.0373
596,0.0363
597,0.0358
598,0.0363
599,0.0371
600,0.0366
601,0.0371
602,0.0371
603,0.0360
604,0.0362
605,0.0359
606,0.0363
607,0.0362
608,0.0366
609,0.0366
610,0.0361
611,0.0354
612,0.0372
613,0.0360
614,0.0354
615,0.0361
616,0.0365
617,0.0358
618,0.0365
619,0.0370
620,0.0359
621,0.0370
622,0.0370
623,0.0366
624,0.0372
625,0.0365
626,0.0366
627,0.0371
628,0.0369
629,0.0373
630,0.0366
631,0.0369
632,0.0357
633,0.0364
634,0.0353
635,0.0360
636,0.0353
637,0.0363
638,0.0350
639,0.0359
640,0.0357
641,0.0359
642,0.0356
643,0.0353
644,0.0357
645,0.0354
646,0.0353
647,0.0357
648,0.0354
649,0.0349
650,0.0341
651,0.0349
652,0.0343
653,0.0348
654,0.0334
655,0.0341
656,0.0336
657,0.0344
658,0.0333
659,0.0329
660,0.0339
661,0.0334
662,0.0335
663,0.0335
664,0.0322
665,0.0325
666,0.0325
667,0.0332
668,0.0322
669,0.0323
670,0.0331
671,0.0336
672,0.0318
673,0.0318
674,0.0315
675,0.0327
676,0.0320
677,0.0321
678,0.0333
679,0.0313
680,0.0319
681,0.0321
682,0.0316
683,0.0322
684,0.0322
685,0.0315
686,0.0321
687,0.0318
688,0.0318
689,0.0332
690,0.0329
691,0.0322
692,0.0314
693,0.0321
694,0.0329
695,0.0324
696,0.0326
697,0.0328
698,0.0319
699,0.0328
700,0.0324
701,0.0321
702,0.0329
703,0.0325
704,0.0318
705,0.0315
706,0.0319
707,0.0316
708,0.0320
709,0.0324
710,0.0319
711,0.0318
712,0.0311
713,0.0322
714,0.0310
715,0.0319
716,0.0311
717,0.0318
718,0.0310
719,0.0299
720,0.0307
721,0.0300
722,0.0287
723,0.0298
724,0.0284
725,0.0292
726,0.0291
727,0.0288
728,0.0286
729,0.0295
730,0.0278
731,0.0276
732,0.0281
733,0.0279
734,0.0276
735,0.0286
736,0.0277
737,0.0275
738,0.0278
739,0.0273
740,0.0262
741,0.0274
742,0.0271
743,0.0264
744,0.0271
745,0.0278
746,0.0271
747,0.0276
748,0.0280
749,0.0263
750,0.0268
751,0.0270
752,0.0271
753,0.0281
754,0.0280
755,0.0281
756,0.0276
757,0.0277
758,0.0266
759,0.0283
760,0.0286
761,0.0269
762,0.0275
763,0.0276
764,0.0268
765,0.0282
766,0.0276
767,0.0262
768,0.0268
769,0.0264
770,0.0264
771,0.0261
772,0.0264
773,0.0269
774,0.0287
775,0.0268
776,0.0272
777,0.0278
778,0.0268
779,0.0274
780,0.0262
781,0.0266
782,0.0274
783,0.0268
784,0.0261
785,0.0269
786,0.0265
787,0.0259
788,0.0263
789,0.0267
790,0.0261
791,0.0256
792,0.0265
793,0.0257
794,0.0262
795,0.0267
796,0.0260
797,0.0268
798,0.0267
799,0.0264
800,0.0273
801,0.0265
802,0.0265
803,0.0281
804,0.0274
805,0.0276
806,0.0269
807,0.0278
808,0.0288
809,0.0287
810,0.0305
811,0.0288
812,0.0282
813,0.0280
814,0.0278
815,0.0286
816,0.0303
817,0.0290
818,0.0294
819,0.0302
820,0.0290
821,0.0289
822,0.0299
823,0.0291
824,0.0284
825,0.0287
826,0.0293
827,0.0274
828,0.0270
829,0.0270
830,0.0288
831,0.0286
832,0.0275
833,0.0259
834,0.0264
835,0.0258
836,0.0263
837,0.0260
838,0.0268
839,0.0257
840,0.0246
841,0.0240
842,0.0255
843,0.0237
844,0.0258
845,0.0240
846,0.0240
847,0.0232
848,0.0231
849,0.0244
850,0.0251
851,0.0238
852,0.0230
853,0.0236
854,0.0243
855,0.0228
856,0.0230
857,0.0246
858,0.0224
859,0.0227
860,0.0236
861,0.0222
862,0.0236
863,0.0241
864,0.0225
865,0.0224
866,0.0226
867,0.0227
868,0.0220
869,0.0224
870,0.0229
871,0.0226
872,0.0217
873,0.0225
874,0.0208
875,0.0213
876,0.0215
877,0.0236
878,0.0218
879,0.0229
880,0.0220
881,0.0213
882,0.0219
883,0.0224
884,0.0211
885,0.0236
886,0.0224
887,0.0241
888,0.0243
889,0.0231
890,0.0252
891,0.0232
892,0.0243
893,0.0260
894,0.0279
895,0.0255
896,0.0265
897,0.0268
898,0.0266
899,0.0256
900,0.0269
901,0.0280
902,0.0270
903,0.0264
904,0.0311
905,0.0273
906,0.0281
907,0.0308
908,0.0299
909,0.0293
910,0.0318
911,0.0257
912,0.0293
913,0.0259
914,0.0279
915,0.0272
916,0.0279
917,0.0253
918,0.0249
919,0.0244
920,0.0255
921,0.0219
922,0.0219
923,0.0197
924,0.0216
925,0.0191
926,0.0209
927,0.0181
928,0.0168
929,0.0172
930,0.0190
931,0.0155
932,0.0141
933,0.0126
934,0.0151
935,0.0125
936,0.0107
937,0.0091
938,0.0102
939,0.0063
940,0.0040
941,0.0048
942,0.0055
943,0.0066
944,0.0058
945,0.0036
946,0.0048
947,0.0128
