382,NaN
383,0.0635
384,1.0000
385,1.0000
386,0.0000
387,0.2462
388,0.2026
389,0.0326
390,0.0000
391,0.1621
392,0.2993
393,0.0341
394,0.0000
395,0.0000
396,0.1385
397,0.0000
398,0.0136
399,0.1012
400,0.0710
401,0.1674
402,0.0000
403,0.0654
404,0.0752
405,0.0563
406,0.0946
407,0.1610
408,0.0569
409,0.0126
410,0.1818
411,0.1243
412,0.0583
413,0.1557
414,0.0782
415,0.0419
416,0.0819
417,0.0912
418,0.0332
419,0.0271
420,0.1361
421,0.0786
422,0.0178
423,0.0327
424,0.0364
425,0.0438
426,0.0673
427,0.0300
428,0.0554
429,0.0311
430,0.1010
431,0.0443
432,0.0444
433,0.0387
434,0.0610
435,0.0454
436,0.0836
437,0.0771
438,0.0567
439,0.0504
440,0.0722
441,0.0826
442,0.0511
443,0.0975
444,0.0840
445,0.0760
446,0.0464
447,0.0614
448,0.0511
449,0.0485
450,0.0579
451,0.0477
452,0.0429
453,0.0771
454,0.0634
455,0.0672
456,0.0461
457,0.0444
458,0.0678
459,0.0514
460,0.0612
461,0.0647
462,0.0543
463,0.0606
464,0.0568
465,0.0459
466,0.0531
467,0.0525
468,0.0606
469,0.0767
470,0.0583
471,0.0453
472,0.0664
473,0.0587
474,0.0601
475,0.0700
476,0.0672
477,0.0732
478,0.0673
479,0.0772
480,0.0721
481,0.0754
482,0.0701
483,0.0756
484,0.0710
485,0.0777
486,0.0830
487,0.0932
488,0.0722
489,0.0790
490,0.0811
491,0.0766
492,0.0753
493,0.0803
494,0.0795
495,0.0788
496,0.0750
497,0.0804
498,0.0750
499,0.0691
500,0.0761
501,0.0732
502,0.0743
503,0.0680
504,0.0700
505,0.0653
506,0.0671
507,0.0721
508,0.0628
509,0.0640
510,0.0613
511,0.0565
512,0.0574
513,0.0531
514,0.0530
515,0.0539
516,0.0520
517,0.0503
518,0.0466
519,0.0474
520,0.0494
521,0.0443
522,0.0461
523,0.0423
524,0.0424
525,0.0429
526,0.0458
527,0.0457
528,0.0404
529,0.0423
530,0.0413
531,0.0416
532,0.0421
533,0.0396
534,0.0422
535,0.0396
536,0.0411
537,0.0406
538,0.0408
539,0.0386
540,0.0417
541,0.0406
542,0.0379
543,0.0407
544,0.0398
545,0.0391
546,0.0411
547,0.0411
548,0.0392
549,0.0384
550,0.0411
551,0.0387
552,0.0391
553,0.0401
554,0.0392
555,0.0388
556,0.0414
557,0.0397
558,0.0397
559,0.0396
560,0.0402
561,0.0388
562,0.0394
563,0.0399
564,0.0397
565,0.0404
566,0.0388
567,0.0403
568,0.0402
569,0.0413
570,0.0406
571,0.0420
572,0.0404
573,0.0407
574,0.0405
575,0.0400
576,0.0407
577,0.0401
578,0.0393
579,0.0402
580,0.0392
581,0.0389
582,0.0390
583,0.0379
584,0.0386
585,0.0379
586,0.0386
587,0.0379
588,0.0387
589,0.0373
590,0.0379
591,0.0370
592,0.0376
593,0.0369
594,0.0380
595,0.0370
596,0.0365
597,0.0369
598,0.0368
599,0.0375
600,0.0365
601,0.0360
602,0.0372
603,0.0359
604,0.0364
605,0.0373
606,0.0354
607,0.0366
608,0.0362
609,0.0363
610,0.0361
611,0.0369
612,0.0362
613,0.0358
614,0.0362
615,0.0368
616,0.0361
617,0.0363
618,0.0360
619,0.0366
620,0.0371
621,0.0357
622,0.0370
623,0.0379
624,0.0372
625,0.0366
626,0.0369
627,0.0366
628,0.0371
629,0.0375
630,0.0360
631,0.0359
632,0.0358
633,0.0359
634,0.0355
635,0.0357
636,0.0362
637,0.0359
638,0.0349
639,0.0352
640,0.0372
641,0.0359
642,0.0357
643,0.0352
644,0.0358
645,0.0349
646,0.0352
647,0.0348
648,0.0354
649,0.0347
650,0.0356
651,0.0344
652,0.0350
653,0.0344
654,0.0334
655,0.0339
656,0.0333
657,0.0328
658,0.0335
659,0.0334
660,0.0334
661,0.0325
662,0.0326
663,0.0337
664,0.0325
665,0.0336
666,0.0324
667,0.0329
668,0.0330
669,0.0333
670,0.0324
671,0.0337
672,0.0330
673,0.0329
674,0.0317
675,0.0325
676,0.0327
677,0.0318
678,0.0326
679,0.0309
680,0.0318
681,0.0323
682,0.0320
683,0.0327
684,0.0324
685,0.0316
686,0.0323
687,0.0314
688,0.0320
689,0.0332
690,0.0316
691,0.0327
692,0.0323
693,0.0328
694,0.0317
695,0.0325
696,0.0319
697,0.0323
698,0.0326
699,0.0326
700,0.0332
701,0.0324
702,0.0319
703,0.0319
704,0.0322
705,0.0318
706,0.0316
707,0.0309
708,0.0316
709,0.0321
710,0.0320
711,0.0327
712,0.0312
713,0.0317
714,0.0308
715,0.0318
716,0.0308
717,0.0315
718,0.0312
719,0.0304
720,0.0309
721,0.0299
722,0.0292
723,0.0296
724,0.0286
725,0.0286
726,0.0287
727,0.0281
728,0.0281
729,0.0277
730,0.0283
731,0.0278
732,0.0278
733,0.0272
734,0.0271
735,0.0286
736,0.0277
737,0.0280
738,0.0282
739,0.0266
740,0.0265
741,0.0269
742,0.0270
743,0.0274
744,0.0268
745,0.0274
746,0.0264
747,0.0269
748,0.0274
749,0.0269
750,0.0256
751,0.0273
752,0.0274
753,0.0274
754,0.0282
755,0.0279
756,0.0272
757,0.0278
758,0.0266
759,0.0272
760,0.0283
761,0.0274
762,0.0271
763,0.0274
764,0.0284
765,0.0271
766,0.0272
767,0.0275
768,0.0281
769,0.0272
770,0.0269
771,0.0279
772,0.0262
773,0.0274
774,0.0276
775,0.0272
776,0.0261
777,0.0268
778,0.0274
779,0.0274
780,0.0257
781,0.0266
782,0.0268
783,0.0267
784,0.0261
785,0.0265
786,0.0263
787,0.0269
788,0.0265
789,0.0268
790,0.0262
791,0.0247
792,0.0257
793,0.0261
794,0.0259
795,0.0268
796,0.0262
797,0.0271
798,0.0256
799,0.0262
800,0.0266
801,0.0266
802,0.0264
803,0.0268
804,0.0270
805,0.0276
806,0.0269
807,0.0293
808,0.0283
809,0.0282
810,0.0290
811,0.0295
812,0.0283
813,0.0288
814,0.0284
815,0.0286
816,0.0281
817,0.0289
818,0.0293
819,0.0294
820,0.0307
821,0.0300
822,0.0311
823,0.0293
824,0.0282
825,0.0288
826,0.0288
827,0.0298
828,0.0281
829,0.0286
830,0.0286
831,0.0277
832,0.0279
833,0.0261
834,0.0269
835,0.0264
836,0.0259
837,0.0249
838,0.0255
839,0.0249
840,0.0244
841,0.0241
842,0.0249
843,0.0236
844,0.0249
845,0.0246
846,0.0241
847,0.0241
848,0.0236
849,0.0238
850,0.0236
851,0.0239
852,0.0231
853,0.0221
854,0.0238
855,0.0249
856,0.0235
857,0.0247
858,0.0228
859,0.0215
860,0.0229
861,0.0240
862,0.0223
863,0.0225
864,0.0233
865,0.0218
866,0.0226
867,0.0245
868,0.0219
869,0.0217
870,0.0214
871,0.0216
872,0.0221
873,0.0199
874,0.0214
875,0.0205
876,0.0219
877,0.0204
878,0.0199
879,0.0212
880,0.0225
881,0.0202
882,0.0220
883,0.0221
884,0.0230
885,0.0213
886,0.0225
887,0.0246
888,0.0235
889,0.0234
890,0.0252
891,0.0249
892,0.0252
893,0.0264
894,0.0255
895,0.0281
896,0.0274
897,0.0266
898,0.0284
899,0.0262
900,0.0276
901,0.0297
902,0.0270
903,0.0271
904,0.0298
905,0.0290
906,0.0290
907,0.0309
908,0.0310
909,0.0319
910,0.0297
911,0.0273
912,0.0274
913,0.0290
914,0.0268
915,0.0270
916,0.0282
917,0.0268
918,0.0250
919,0.0250
920,0.0258
921,0.0224
922,0.0201
923,0.0215
924,0.0235
925,0.0217
926,0.0195
927,0.0178
928,0.0171
929,0.0189
930,0.0184
931,0.0152
932,0.0147
933,0.0134
934,0.0153
935,0.0110
936,0.0102
937,0.0101
938,0.0095
939,0.0078
940,0.0064
941,0.0067
942,0.0051
943,0.0027
944,0.0046
945,0.0066
946,0.0046
947,0.0126
