382,NaN
383,0.9487
384,0.9444
385,0.0000
386,0.0000
387,0.1650
388,0.0559
389,0.0000
390,0.0516
391,0.0598
392,0.0870
393,0.1664
394,0.0285
395,0.0000
396,0.2228
397,0.0422
398,0.0014
399,0.1481
400,0.0000
401,0.1805
402,0.0104
403,0.1536
404,0.0000
405,0.0615
406,0.0684
407,0.0205
408,0.0433
409,0.1165
410,0.1020
411,0.0945
412,0.1286
413,0.0020
414,0.0516
415,0.0442
416,0.1235
417,0.0913
418,0.0292
419,0.0692
420,0.1206
421,0.0683
422,0.0344
423,0.0534
424,0.0000
425,0.0958
426,0.0826
427,0.0121
428,0.0492
429,0.0347
430,0.0881
431,0.0543
432,0.0577
433,0.0467
434,0.0440
435,0.0758
436,0.0854
437,0.0968
438,0.0689
439,0.0452
440,0.0840
441,0.0788
442,0.0635
443,0.0864
444,0.0492
445,0.0577
446,0.0566
447,0.0661
448,0.0508
449,0.0606
450,0.0718
451,0.0603
452,0.0376
453,0.0669
454,0.0574
455,0.0644
456,0.0560
457,0.0578
458,0.0550
459,0.0588
460,0.0643
461,0.0622
462,0.0548
463,0.0600
464,0.0425
465,0.0451
466,0.0507
467,0.0569
468,0.0768
469,0.0729
470,0.0654
471,0.0459
472,0.0728
473,0.0667
474,0.0592
475,0.0673
476,0.0724
477,0.0806
478,0.0740
479,0.0784
480,0.0836
481,0.0768
482,0.0766
483,0.0802
484,0.0762
485,0.0799
486,0.0818
487,0.0910
488,0.0812
489,0.0753
490,0.0811
491,0.0816
492,0.0788
493,0.0807
494,0.0779
495,0.0840
496,0.0837
497,0.0751
498,0.0810
499,0.0766
500,0.0744
501,0.0685
502,0.0760
503,0.0677
504,0.0703
505,0.0648
506,0.0671
507,0.0667
508,0.0642
509,0.0627
510,0.0613
511,0.0569
512,0.0571
513,0.0552
514,0.0533
515,0.0544
516,0.0504
517,0.0496
518,0.0444
519,0.0478
520,0.0494
521,0.0467
522,0.0444
523,0.0443
524,0.0439
525,0.0416
526,0.0449
527,0.0443
528,0.0415
529,0.0435
530,0.0386
531,0.0421
532,0.0411
533,0.0394
534,0.0422
535,0.0409
536,0.0395
537,0.0419
538,0.0406
539,0.0400
540,0.0408
541,0.0399
542,0.0390
543,0.0402
544,0.0402
545,0.0406
546,0.0408
547,0.0409
548,0.0407
549,0.0397
550,0.0396
551,0.0387
552,0.0390
553,0.0413
554,0.0395
555,0.0382
556,0.0412
557,0.0389
558,0.0392
559,0.0393
560,0.0389
561,0.0406
562,0.0405
563,0.0401
564,0.0400
565,0.0400
566,0.0378
567,0.0397
568,0.0400
569,0.0406
570,0.0399
571,0.0406
572,0.0415
573,0.0406
574,0.0409
575,0.0399
576,0.0395
577,0.0411
578,0.0401
579,0.0400
580,0.0401
581,0.0394
582,0.0397
583,0.0381
584,0.0382
585,0.0381
586,0.0375
587,0.0381
588,0.0376
589,0.0384
590,0.0367
591,0.0374
592,0.0373
593,0.0371
594,0.0380
595,0.0374
596,0.0370
597,0.0364
598,0.0373
599,0.0359
600,0.0364
601,0.0367
602,0.0364
603,0.0361
604,0.0362
605,0.0358
606,0.0360
607,0.0367
608,0.0368
609,0.0362
610,0.0360
611,0.0365
612,0.0367
613,0.0365
614,0.0366
615,0.0372
616,0.0356
617,0.0362
618,0.0373
619,0.0371
620,0.0371
621,0.0355
622,0.0363
623,0.0369
624,0.0364
625,0.0371
626,0.0355
627,0.0365
628,0.0367
629,0.0367
630,0.0360
631,0.0374
632,0.0351
633,0.0356
634,0.0361
635,0.0359
636,0.0358
637,0.0372
638,0.0350
639,0.0347
640,0.0369
641,0.0363
642,0.0361
643,0.0351
644,0.0351
645,0.0354
646,0.0347
647,0.0348
648,0.0357
649,0.0341
650,0.0344
651,0.0344
652,0.0346
653,0.0351
654,0.0335
655,0.0332
656,0.0337
657,0.0337
658,0.0340
659,0.0324
660,0.0334
661,0.0321
662,0.0328
663,0.0336
664,0.0329
665,0.0328
666,0.0328
667,0.0336
668,0.0326
669,0.0319
670,0.0331
671,0.0328
672,0.0325
673,0.0333
674,0.0323
675,0.0332
676,0.0329
677,0.0325
678,0.0322
679,0.0318
680,0.0324
681,0.0322
682,0.0325
683,0.0329
684,0.0314
685,0.0318
686,0.0323
687,0.0321
688,0.0328
689,0.0333
690,0.0325
691,0.0324
692,0.0321
693,0.0330
694,0.0327
695,0.0330
696,0.0328
697,0.0330
698,0.0321
699,0.0333
700,0.0322
701,0.0325
702,0.0316
703,0.0330
704,0.0319
705,0.0316
706,0.0321
707,0.0320
708,0.0320
709,0.0323
710,0.0312
711,0.0322
712,0.0320
713,0.0313
714,0.0310
715,0.0324
716,0.0310
717,0.0305
718,0.0305
719,0.0309
720,0.0292
721,0.0293
722,0.0292
723,0.0299
724,0.0286
725,0.0279
726,0.0278
727,0.0287
728,0.0279
729,0.0283
730,0.0277
731,0.0282
732,0.0281
733,0.0271
734,0.0271
735,0.0279
736,0.0277
737,0.0280
738,0.0279
739,0.0278
740,0.0274
741,0.0275
742,0.0270
743,0.0270
744,0.0269
745,0.0274
746,0.0270
747,0.0273
748,0.0287
749,0.0261
750,0.0266
751,0.0283
752,0.0274
753,0.0274
754,0.0285
755,0.0282
756,0.0274
757,0.0289
758,0.0270
759,0.0277
760,0.0272
761,0.0273
762,0.0278
763,0.0273
764,0.0279
765,0.0269
766,0.0264
767,0.0277
768,0.0279
769,0.0266
770,0.0270
771,0.0274
772,0.0257
773,0.0262
774,0.0263
775,0.0267
776,0.0278
777,0.0257
778,0.0262
779,0.0276
780,0.0267
781,0.0274
782,0.0270
783,0.0265
784,0.0265
785,0.0271
786,0.0264
787,0.0268
788,0.0254
789,0.0264
790,0.0267
791,0.0262
792,0.0258
793,0.0248
794,0.0255
795,0.0255
796,0.0265
797,0.0272
798,0.0263
799,0.0269
800,0.0274
801,0.0264
802,0.0265
803,0.0275
804,0.0270
805,0.0279
806,0.0268
807,0.0290
808,0.0287
809,0.0286
810,0.0297
811,0.0289
812,0.0276
813,0.0287
814,0.0293
815,0.0293
816,0.0278
817,0.0295
818,0.0298
819,0.0298
820,0.0303
821,0.0284
822,0.0289
823,0.0288
824,0.0288
825,0.0298
826,0.0290
827,0.0292
828,0.0276
829,0.0278
830,0.0273
831,0.0277
832,0.0281
833,0.0275
834,0.0264
835,0.0264
836,0.0242
837,0.0252
838,0.0258
839,0.0245
840,0.0246
841,0.0247
842,0.0244
843,0.0234
844,0.0250
845,0.0242
846,0.0222
847,0.0235
848,0.0245
849,0.0234
850,0.0230
851,0.0237
852,0.0232
853,0.0220
854,0.0238
855,0.0242
856,0.0237
857,0.0239
858,0.0233
859,0.0216
860,0.0228
861,0.0234
862,0.0230
863,0.0242
864,0.0227
865,0.0215
866,0.0240
867,0.0229
868,0.0218
869,0.0218
870,0.0218
871,0.0209
872,0.0225
873,0.0204
874,0.0216
875,0.0221
876,0.0235
877,0.0215
878,0.0216
879,0.0220
880,0.0228
881,0.0213
882,0.0223
883,0.0226
884,0.0237
885,0.0224
886,0.0221
887,0.0244
888,0.0224
889,0.0237
890,0.0260
891,0.0242
892,0.0251
893,0.0263
894,0.0286
895,0.0252
896,0.0268
897,0.0269
898,0.0264
899,0.0269
900,0.0276
901,0.0283
902,0.0276
903,0.0289
904,0.0287
905,0.0272
906,0.0302
907,0.0307
908,0.0310
909,0.0314
910,0.0311
911,0.0279
912,0.0278
913,0.0266
914,0.0260
915,0.0285
916,0.0279
917,0.0259
918,0.0259
919,0.0238
920,0.0255
921,0.0217
922,0.0223
923,0.0204
924,0.0204
925,0.0208
926,0.0208
927,0.0186
928,0.0163
929,0.0193
930,0.0165
931,0.0151
932,0.0161
933,0.0137
934,0.0133
935,0.0145
936,0.0096
937,0.0078
938,0.0088
939,0.0083
940,0.0035
941,0.0052
942,0.0063
943,0.0044
944,0.0062
945,0.0044
946,0.0036
947,0.0072
