382,NaN
383,1.0000
384,0.2344
385,1.0000
386,0.0053
387,0.3101
388,0.1520
389,0.2446
390,0.0374
391,0.0139
392,0.4005
393,0.1171
394,0.0530
395,0.0795
396,0.0441
397,0.0840
398,0.1372
399,0.0496
400,0.0722
401,0.3173
402,0.0000
403,0.0629
404,0.1537
405,0.0211
406,0.0895
407,0.0000
408,0.0769
409,0.0866
410,0.0970
411,0.1204
412,0.0856
413,0.0641
414,0.0000
415,0.1064
416,0.0210
417,0.0935
418,0.0644
419,0.0284
420,0.0770
421,0.0886
422,0.0695
423,0.0470
424,0.0137
425,0.0503
426,0.0765
427,0.0466
428,0.0580
429,0.0374
430,0.0589
431,0.0591
432,0.0339
433,0.0373
434,0.0391
435,0.0535
436,0.0703
437,0.0780
438,0.0673
439,0.0763
440,0.0805
441,0.0702
442,0.0698
443,0.0925
444,0.0523
445,0.0689
446,0.0685
447,0.0655
448,0.0527
449,0.0614
450,0.0544
451,0.0472
452,0.0372
453,0.0532
454,0.0749
455,0.0674
456,0.0491
457,0.0611
458,0.0606
459,0.0527
460,0.0560
461,0.0658
462,0.0549
463,0.0640
464,0.0488
465,0.0521
466,0.0618
467,0.0530
468,0.0658
469,0.0695
470,0.0534
471,0.0637
472,0.0734
473,0.0646
474,0.0592
475,0.0692
476,0.0624
477,0.0876
478,0.0733
479,0.0914
480,0.0688
481,0.0706
482,0.0738
483,0.0746
484,0.0719
485,0.0841
486,0.0758
487,0.0814
488,0.0819
489,0.0775
490,0.0829
491,0.0770
492,0.0807
493,0.0855
494,0.0824
495,0.0812
496,0.0774
497,0.0810
498,0.0781
499,0.0711
500,0.0770
501,0.0756
502,0.0746
503,0.0691
504,0.0676
505,0.0662
506,0.0726
507,0.0689
508,0.0629
509,0.0628
510,0.0615
511,0.0530
512,0.0551
513,0.0520
514,0.0528
515,0.0515
516,0.0536
517,0.0498
518,0.0480
519,0.0485
520,0.0487
521,0.0443
522,0.0457
523,0.0448
524,0.0441
525,0.0445
526,0.0462
527,0.0450
528,0.0428
529,0.0406
530,0.0401
531,0.0408
532,0.0422
533,0.0393
534,0.0414
535,0.0401
536,0.0412
537,0.0398
538,0.0401
539,0.0401
540,0.0427
541,0.0407
542,0.0390
543,0.0407
544,0.0393
545,0.0403
546,0.0417
547,0.0393
548,0.0395
549,0.0384
550,0.0402
551,0.0401
552,0.0402
553,0.0400
554,0.0387
555,0.0389
556,0.0385
557,0.0402
558,0.0400
559,0.0394
560,0.0391
561,0.0390
562,0.0401
563,0.0390
564,0.0392
565,0.0401
566,0.0376
567,0.0401
568,0.0404
569,0.0400
570,0.0406
571,0.0411
572,0.0407
573,0.0403
574,0.0395
575,0.0396
576,0.0401
577,0.0394
578,0.0387
579,0.0392
580,0.0393
581,0.0388
582,0.0386
583,0.0380
584,0.0378
585,0.0395
586,0.0379
587,0.0389
588,0.0388
589,0.0374
590,0.0383
591,0.0369
592,0.0376
593,0.0372
594,0.0371
595,0.0362
596,0.0372
597,0.0364
598,0.0359
599,0.0370
600,0.0362
601,0.0365
602,0.0363
603,0.0357
604,0.0369
605,0.0362
606,0.0364
607,0.0360
608,0.0370
609,0.0364
610,0.0364
611,0.0362
612,0.0365
613,0.0363
614,0.0362
615,0.0368
616,0.0364
617,0.0364
618,0.0364
619,0.0372
620,0.0358
621,0.0364
622,0.0371
623,0.0370
624,0.0368
625,0.0370
626,0.0363
627,0.0367
628,0.0365
629,0.0379
630,0.0364
631,0.0362
632,0.0359
633,0.0359
634,0.0361
635,0.0368
636,0.0349
637,0.0359
638,0.0354
639,0.0364
640,0.0360
641,0.0360
642,0.0364
643,0.0353
644,0.0351
645,0.0357
646,0.0346
647,0.0352
648,0.0356
649,0.0350
650,0.0346
651,0.0343
652,0.0355
653,0.0345
654,0.0329
655,0.0344
656,0.0333
657,0.0337
658,0.0324
659,0.0327
660,0.0333
661,0.0327
662,0.0331
663,0.0341
664,0.0333
665,0.0327
666,0.0324
667,0.0329
668,0.0326
669,0.0318
670,0.0325
671,0.0329
672,0.0327
673,0.0326
674,0.0320
675,0.0330
676,0.0329
677,0.0320
678,0.0324
679,0.0310
680,0.0326
681,0.0319
682,0.0327
683,0.0317
684,0.0328
685,0.0323
686,0.0318
687,0.0327
688,0.0318
689,0.0330
690,0.0326
691,0.0321
692,0.0320
693,0.0318
694,0.0322
695,0.0331
696,0.0330
697,0.0325
698,0.0315
699,0.0329
700,0.0330
701,0.0316
702,0.0323
703,0.0321
704,0.0310
705,0.0323
706,0.0322
707,0.0313
708,0.0324
709,0.0323
710,0.0310
711,0.0325
712,0.0312
713,0.0311
714,0.0304
715,0.0307
716,0.0312
717,0.0318
718,0.0307
719,0.0306
720,0.0301
721,0.0293
722,0.0283
723,0.0295
724,0.0290
725,0.0283
726,0.0287
727,0.0289
728,0.0282
729,0.0283
730,0.0280
731,0.0278
732,0.0286
733,0.0274
734,0.0281
735,0.0274
736,0.0278
737,0.0272
738,0.0273
739,0.0274
740,0.0269
741,0.0273
742,0.0269
743,0.0268
744,0.0277
745,0.0267
746,0.0284
747,0.0269
748,0.0277
749,0.0266
750,0.0271
751,0.0277
752,0.0270
753,0.0272
754,0.0278
755,0.0278
756,0.0280
757,0.0277
758,0.0274
759,0.0290
760,0.0283
761,0.0271
762,0.0267
763,0.0286
764,0.0280
765,0.0280
766,0.0269
767,0.0265
768,0.0264
769,0.0273
770,0.0263
771,0.0276
772,0.0258
773,0.0267
774,0.0272
775,0.0269
776,0.0270
777,0.0273
778,0.0262
779,0.0279
780,0.0269
781,0.0274
782,0.0263
783,0.0265
784,0.0263
785,0.0257
786,0.0268
787,0.0266
788,0.0266
789,0.0260
790,0.0264
791,0.0262
792,0.0257
793,0.0258
794,0.0256
795,0.0263
796,0.0266
797,0.0265
798,0.0256
799,0.0259
800,0.0283
801,0.0263
802,0.0262
803,0.0280
804,0.0275
805,0.0269
806,0.0267
807,0.0276
808,0.0284
809,0.0289
810,0.0294
811,0.0290
812,0.0282
813,0.0293
814,0.0274
815,0.0286
816,0.0291
817,0.0294
818,0.0300
819,0.0299
820,0.0291
821,0.0299
822,0.0292
823,0.0284
824,0.0295
825,0.0300
826,0.0286
827,0.0276
828,0.0276
829,0.0275
830,0.0285
831,0.0283
832,0.0262
833,0.0273
834,0.0260
835,0.0272
836,0.0265
837,0.0262
838,0.0270
839,0.0256
840,0.0241
841,0.0241
842,0.0251
843,0.0234
844,0.0242
845,0.0237
846,0.0225
847,0.0235
848,0.0234
849,0.0237
850,0.0233
851,0.0240
852,0.0240
853,0.0234
854,0.0233
855,0.0226
856,0.0228
857,0.0238
858,0.0223
859,0.0221
860,0.0240
861,0.0225
862,0.0234
863,0.0237
864,0.0220
865,0.0209
866,0.0239
867,0.0219
868,0.0232
869,0.0212
870,0.0210
871,0.0219
872,0.0222
873,0.0211
874,0.0212
875,0.0203
876,0.0236
877,0.0207
878,0.0201
879,0.0226
880,0.0222
881,0.0215
882,0.0210
883,0.0221
884,0.0212
885,0.0235
886,0.0231
887,0.0240
888,0.0237
889,0.0229
890,0.0256
891,0.0243
892,0.0262
893,0.0271
894,0.0269
895,0.0264
896,0.0242
897,0.0283
898,0.0258
899,0.0259
900,0.0295
901,0.0290
902,0.0276
903,0.0242
904,0.0296
905,0.0293
906,0.0275
907,0.0305
908,0.0302
909,0.0282
910,0.0313
911,0.0261
912,0.0293
913,0.0260
914,0.0272
915,0.0287
916,0.0285
917,0.0252
918,0.0228
919,0.0246
920,0.0250
921,0.0204
922,0.0230
923,0.0203
924,0.0202
925,0.0210
926,0.0187
927,0.0197
928,0.0183
929,0.0185
930,0.0163
931,0.0160
932,0.0144
933,0.0118
934,0.0144
935,0.0111
936,0.0113
937,0.0097
938,0.0071
939,0.0089
940,0.0052
941,0.0058
942,0.0060
943,0.0047
944,0.0055
945,0.0050
946,0.0018
947,0.0123
