382,NaN
383,0.8890
384,0.0000
385,1.0000
386,0.0000
387,0.3578
388,0.2540
389,0.0539
390,0.0000
391,0.0133
392,0.1226
393,0.0314
394,0.0000
395,0.0000
396,0.1573
397,0.0000
398,0.0183
399,0.0000
400,0.0897
401,0.2464
402,0.0000
403,0.1809
404,0.0299
405,0.1494
406,0.0983
407,0.0483
408,0.1012
409,0.0293
410,0.1630
411,0.0736
412,0.0734
413,0.0848
414,0.0341
415,0.0384
416,0.0708
417,0.0721
418,0.0228
419,0.0472
420,0.0859
421,0.0401
422,0.0000
423,0.0651
424,0.0169
425,0.0493
426,0.0764
427,0.0587
428,0.1008
429,0.0340
430,0.0747
431,0.0887
432,0.0385
433,0.0342
434,0.0138
435,0.0635
436,0.0810
437,0.0637
438,0.0459
439,0.0758
440,0.0669
441,0.0493
442,0.0622
443,0.0891
444,0.0568
445,0.0539
446,0.0414
447,0.0593
448,0.0376
449,0.0660
450,0.0720
451,0.0478
452,0.0444
453,0.0787
454,0.0639
455,0.0691
456,0.0742
457,0.0447
458,0.0573
459,0.0396
460,0.0577
461,0.0734
462,0.0466
463,0.0687
464,0.0589
465,0.0453
466,0.0588
467,0.0481
468,0.0648
469,0.0658
470,0.0575
471,0.0598
472,0.0762
473,0.0589
474,0.0683
475,0.0696
476,0.0701
477,0.0783
478,0.0737
479,0.0780
480,0.0777
481,0.0724
482,0.0652
483,0.0831
484,0.0660
485,0.0831
486,0.0774
487,0.0873
488,0.0809
489,0.0794
490,0.0825
491,0.0780
492,0.0755
493,0.0896
494,0.0846
495,0.0839
496,0.0862
497,0.0792
498,0.0842
499,0.0775
500,0.0745
501,0.0740
502,0.0761
503,0.0644
504,0.0671
505,0.0627
506,0.0693
507,0.0675
508,0.0601
509,0.0633
510,0.0654
511,0.0574
512,0.0586
513,0.0546
514,0.0523
515,0.0503
516,0.0485
517,0.0499
518,0.0467
519,0.0499
520,0.0463
521,0.0445
522,0.0433
523,0.0421
524,0.0440
525,0.0439
526,0.0443
527,0.0418
528,0.0421
529,0.0420
530,0.0419
531,0.0427
532,0.0415
533,0.0394
534,0.0426
535,0.0402
536,0.0408
537,0.0393
538,0.0401
539,0.0396
540,0.0395
541,0.0410
542,0.0396
543,0.0394
544,0.0403
545,0.0395
546,0.0405
547,0.0410
548,0.0396
549,0.0400
550,0.0389
551,0.0390
552,0.0385
553,0.0399
554,0.0386
555,0.0399
556,0.0402
557,0.0396
558,0.0393
559,0.0396
560,0.0396
561,0.0397
562,0.0401
563,0.0392
564,0.0404
565,0.0400
566,0.0372
567,0.0407
568,0.0402
569,0.0418
570,0.0412
571,0.0416
572,0.0403
573,0.0399
574,0.0402
575,0.0389
576,0.0410
577,0.0412
578,0.0399
579,0.0397
580,0.0387
581,0.0383
582,0.0380
583,0.0373
584,0.0390
585,0.0397
586,0.0381
587,0.0384
588,0.0382
589,0.0374
590,0.0370
591,0.0372
592,0.0362
593,0.0376
594,0.0369
595,0.0366
596,0.0371
597,0.0364
598,0.0355
599,0.0369
600,0.0360
601,0.0363
602,0.0360
603,0.0373
604,0.0369
605,0.0359
606,0.0358
607,0.0366
608,0.0361
609,0.0362
610,0.0367
611,0.0371
612,0.0371
613,0.0370
614,0.0350
615,0.0367
616,0.0358
617,0.0360
618,0.0362
619,0.0368
620,0.0359
621,0.0358
622,0.0371
623,0.0374
624,0.0367
625,0.0363
626,0.0365
627,0.0375
628,0.0370
629,0.0374
630,0.0367
631,0.0367
632,0.0365
633,0.0366
634,0.0358
635,0.0355
636,0.0361
637,0.0356
638,0.0352
639,0.0359
640,0.0358
641,0.0365
642,0.0354
643,0.0347
644,0.0355
645,0.0352
646,0.0351
647,0.0352
648,0.0350
649,0.0346
650,0.0351
651,0.0351
652,0.0346
653,0.0341
654,0.0343
655,0.0335
656,0.0340
657,0.0332
658,0.0336
659,0.0328
660,0.0339
661,0.0329
662,0.0328
663,0.0342
664,0.0319
665,0.0333
666,0.0318
667,0.0341
668,0.0327
669,0.0329
670,0.0335
671,0.0336
672,0.0325
673,0.0326
674,0.0320
675,0.0321
676,0.0325
677,0.0324
678,0.0326
679,0.0315
680,0.0318
681,0.0317
682,0.0317
683,0.0324
684,0.0328
685,0.0312
686,0.0328
687,0.0314
688,0.0318
689,0.0326
690,0.0316
691,0.0328
692,0.0330
693,0.0326
694,0.0329
695,0.0319
696,0.0325
697,0.0325
698,0.0320
699,0.0334
700,0.0327
701,0.0331
702,0.0337
703,0.0322
704,0.0312
705,0.0310
706,0.0320
707,0.0324
708,0.0320
709,0.0329
710,0.0321
711,0.0322
712,0.0312
713,0.0311
714,0.0316
715,0.0315
716,0.0314
717,0.0317
718,0.0312
719,0.0306
720,0.0299
721,0.0291
722,0.0282
723,0.0297
724,0.0283
725,0.0292
726,0.0288
727,0.0288
728,0.0279
729,0.0280
730,0.0273
731,0.0278
732,0.0284
733,0.0279
734,0.0283
735,0.0280
736,0.0274
737,0.0276
738,0.0273
739,0.0273
740,0.0277
741,0.0271
742,0.0269
743,0.0260
744,0.0271
745,0.0267
746,0.0272
747,0.0273
748,0.0279
749,0.0268
750,0.0273
751,0.0278
752,0.0272
753,0.0276
754,0.0284
755,0.0275
756,0.0262
757,0.0274
758,0.0289
759,0.0281
760,0.0279
761,0.0282
762,0.0277
763,0.0279
764,0.0280
765,0.0273
766,0.0275
767,0.0279
768,0.0273
769,0.0265
770,0.0262
771,0.0271
772,0.0278
773,0.0259
774,0.0271
775,0.0270
776,0.0265
777,0.0273
778,0.0265
779,0.0284
780,0.0272
781,0.0269
782,0.0267
783,0.0269
784,0.0252
785,0.0256
786,0.0265
787,0.0269
788,0.0260
789,0.0262
790,0.0266
791,0.0257
792,0.0263
793,0.0261
794,0.0255
795,0.0259
796,0.0256
797,0.0266
798,0.0272
799,0.0265
800,0.0267
801,0.0261
802,0.0265
803,0.0280
804,0.0284
805,0.0266
806,0.0261
807,0.0278
808,0.0292
809,0.0285
810,0.0300
811,0.0282
812,0.0279
813,0.0283
814,0.0288
815,0.0286
816,0.0300
817,0.0288
818,0.0300
819,0.0298
820,0.0298
821,0.0292
822,0.0301
823,0.0291
824,0.0296
825,0.0285
826,0.0283
827,0.0278
828,0.0289
829,0.0280
830,0.0290
831,0.0280
832,0.0274
833,0.0263
834,0.0260
835,0.0269
836,0.0267
837,0.0266
838,0.0263
839,0.0252
840,0.0248
841,0.0241
842,0.0260
843,0.0226
844,0.0239
845,0.0247
846,0.0241
847,0.0240
848,0.0248
849,0.0234
850,0.0240
851,0.0245
852,0.0244
853,0.0220
854,0.0241
855,0.0235
856,0.0231
857,0.0250
858,0.0227
859,0.0221
860,0.0216
861,0.0226
862,0.0232
863,0.0235
864,0.0225
865,0.0224
866,0.0243
867,0.0234
868,0.0222
869,0.0225
870,0.0218
871,0.0214
872,0.0227
873,0.0207
874,0.0206
875,0.0211
876,0.0215
877,0.0227
878,0.0214
879,0.0222
880,0.0225
881,0.0199
882,0.0231
883,0.0218
884,0.0222
885,0.0230
886,0.0243
887,0.0249
888,0.0222
889,0.0236
890,0.0246
891,0.0235
892,0.0258
893,0.0266
894,0.0261
895,0.0261
896,0.0255
897,0.0272
898,0.0271
899,0.0287
900,0.0269
901,0.0279
902,0.0251
903,0.0270
904,0.0291
905,0.0273
906,0.0283
907,0.0304
908,0.0299
909,0.0297
910,0.0297
911,0.0259
912,0.0290
913,0.0258
914,0.0260
915,0.0266
916,0.0275
917,0.0245
918,0.0239
919,0.0225
920,0.0261
921,0.0198
922,0.0208
923,0.0201
924,0.0200
925,0.0203
926,0.0203
927,0.0181
928,0.0171
929,0.0213
930,0.0172
931,0.0141
932,0.0168
933,0.0139
934,0.0126
935,0.0124
936,0.0093
937,0.0089
938,0.0068
939,0.0078
940,0.0052
941,0.0068
942,0.0063
943,0.0044
944,0.0031
945,0.0045
946,0.0023
947,0.0136
