382,NaN
383,1.0000
384,0.0000
385,1.0000
386,0.0000
387,0.1066
388,0.3000
389,0.1575
390,0.0000
391,0.2972
392,0.2057
393,0.1798
394,0.0301
395,0.0131
396,0.0543
397,0.0000
398,0.0416
399,0.0494
400,0.0702
401,0.2112
402,0.0000
403,0.1166
404,0.0726
405,0.0635
406,0.1148
407,0.0144
408,0.0000
409,0.0605
410,0.1009
411,0.1387
412,0.1069
413,0.0806
414,0.0362
415,0.0753
416,0.0207
417,0.0995
418,0.0476
419,0.1059
420,0.0800
421,0.0115
422,0.0524
423,0.0443
424,0.0213
425,0.0267
426,0.0731
427,0.0187
428,0.0382
429,0.0763
430,0.0916
431,0.0710
432,0.0688
433,0.0638
434,0.0601
435,0.0518
436,0.0694
437,0.0844
438,0.0761
439,0.0578
440,0.0495
441,0.0801
442,0.0589
443,0.0749
444,0.0627
445,0.0545
446,0.0637
447,0.0614
448,0.0509
449,0.0618
450,0.0543
451,0.0594
452,0.0543
453,0.0648
454,0.0698
455,0.0710
456,0.0476
457,0.0484
458,0.0545
459,0.0534
460,0.0595
461,0.0601
462,0.0544
463,0.0693
464,0.0589
465,0.0448
466,0.0563
467,0.0545
468,0.0633
469,0.0595
470,0.0541
471,0.0513
472,0.0603
473,0.0609
474,0.0555
475,0.0727
476,0.0655
477,0.0765
478,0.0706
479,0.0819
480,0.0734
481,0.0741
482,0.0667
483,0.0819
484,0.0701
485,0.0848
486,0.0793
487,0.0856
488,0.0799
489,0.0778
490,0.0813
491,0.0790
492,0.0803
493,0.0842
494,0.0757
495,0.0834
496,0.0778
497,0.0718
498,0.0806
499,0.0765
500,0.0781
501,0.0728
502,0.0759
503,0.0692
504,0.0699
505,0.0632
506,0.0671
507,0.0711
508,0.0663
509,0.0597
510,0.0643
511,0.0547
512,0.0537
513,0.0569
514,0.0546
515,0.0513
516,0.0509
517,0.0528
518,0.0495
519,0.0483
520,0.0480
521,0.0439
522,0.0454
523,0.0433
524,0.0461
525,0.0422
526,0.0431
527,0.0437
528,0.0418
529,0.0421
530,0.0425
531,0.0429
532,0.0413
533,0.0425
534,0.0423
535,0.0403
536,0.0406
537,0.0416
538,0.0414
539,0.0407
540,0.0398
541,0.0407
542,0.0394
543,0.0404
544,0.0399
545,0.0401
546,0.0409
547,0.0428
548,0.0398
549,0.0393
550,0.0385
551,0.0386
552,0.0395
553,0.0407
554,0.0397
555,0.0389
556,0.0395
557,0.0405
558,0.0395
559,0.0386
560,0.0399
561,0.0397
562,0.0395
563,0.0393
564,0.0394
565,0.0399
566,0.0394
567,0.0402
568,0.0405
569,0.0401
570,0.0410
571,0.0403
572,0.0402
573,0.0414
574,0.0405
575,0.0387
576,0.0406
577,0.0402
578,0.0391
579,0.0405
580,0.0388
581,0.0390
582,0.0391
583,0.0394
584,0.0385
585,0.0379
586,0.0383
587,0.0375
588,0.0375
589,0.0386
590,0.0379
591,0.0381
592,0.0380
593,0.0363
594,0.0389
595,0.0371
596,0.0373
597,0.0371
598,0.0367
599,0.0365
600,0.0364
601,0.0370
602,0.0367
603,0.0359
604,0.0368
605,0.0361
606,0.0355
607,0.0361
608,0.0358
609,0.0372
610,0.0356
611,0.0355
612,0.0366
613,0.0365
614,0.0359
615,0.0369
616,0.0362
617,0.0360
618,0.0367
619,0.0370
620,0.0363
621,0.0358
622,0.0378
623,0.0378
624,0.0367
625,0.0358
626,0.0364
627,0.0365
628,0.0375
629,0.0367
630,0.0358
631,0.0373
632,0.0365
633,0.0364
634,0.0355
635,0.0358
636,0.0365
637,0.0355
638,0.0354
639,0.0353
640,0.0361
641,0.0373
642,0.0350
643,0.0353
644,0.0353
645,0.0356
646,0.0342
647,0.0353
648,0.0359
649,0.0342
650,0.0346
651,0.0347
652,0.0344
653,0.0339
654,0.0335
655,0.0340
656,0.0332
657,0.0334
658,0.0336
659,0.0340
660,0.0328
661,0.0327
662,0.0335
663,0.0327
664,0.0325
665,0.0327
666,0.0324
667,0.0339
668,0.0324
669,0.0329
670,0.0330
671,0.0329
672,0.0327
673,0.0322
674,0.0323
675,0.0324
676,0.0327
677,0.0317
678,0.0335
679,0.0321
680,0.0320
681,0.0315
682,0.0314
683,0.0321
684,0.0330
685,0.0317
686,0.0322
687,0.0316
688,0.0323
689,0.0323
690,0.0326
691,0.0324
692,0.0320
693,0.0320
694,0.0322
695,0.0327
696,0.0325
697,0.0322
698,0.0318
699,0.0327
700,0.0329
701,0.0325
702,0.0332
703,0.0322
704,0.0308
705,0.0320
706,0.0322
707,0.0329
708,0.0314
709,0.0320
710,0.0308
711,0.0325
712,0.0313
713,0.0319
714,0.0317
715,0.0318
716,0.0317
717,0.0319
718,0.0314
719,0.0301
720,0.0310
721,0.0293
722,0.0282
723,0.0292
724,0.0284
725,0.0283
726,0.0280
727,0.0293
728,0.0285
729,0.0276
730,0.0275
731,0.0277
732,0.0284
733,0.0276
734,0.0281
735,0.0273
736,0.0268
737,0.0275
738,0.0282
739,0.0275
740,0.0268
741,0.0280
742,0.0271
743,0.0266
744,0.0264
745,0.0272
746,0.0276
747,0.0272
748,0.0287
749,0.0268
750,0.0271
751,0.0267
752,0.0275
753,0.0282
754,0.0276
755,0.0283
756,0.0277
757,0.0274
758,0.0267
759,0.0277
760,0.0277
761,0.0276
762,0.0268
763,0.0282
764,0.0279
765,0.0284
766,0.0269
767,0.0270
768,0.0260
769,0.0263
770,0.0271
771,0.0267
772,0.0261
773,0.0263
774,0.0273
775,0.0263
776,0.0276
777,0.0267
778,0.0271
779,0.0270
780,0.0260
781,0.0270
782,0.0263
783,0.0267
784,0.0261
785,0.0267
786,0.0273
787,0.0269
788,0.0266
789,0.0270
790,0.0251
791,0.0253
792,0.0259
793,0.0265
794,0.0257
795,0.0265
796,0.0265
797,0.0262
798,0.0252
799,0.0266
800,0.0269
801,0.0276
802,0.0269
803,0.0278
804,0.0268
805,0.0274
806,0.0264
807,0.0278
808,0.0281
809,0.0290
810,0.0293
811,0.0294
812,0.0287
813,0.0297
814,0.0288
815,0.0281
816,0.0290
817,0.0290
818,0.0302
819,0.0293
820,0.0317
821,0.0295
822,0.0299
823,0.0292
824,0.0285
825,0.0311
826,0.0291
827,0.0274
828,0.0284
829,0.0284
830,0.0279
831,0.0285
832,0.0269
833,0.0271
834,0.0256
835,0.0265
836,0.0257
837,0.0263
838,0.0253
839,0.0258
840,0.0246
841,0.0233
842,0.0258
843,0.0235
844,0.0239
845,0.0247
846,0.0235
847,0.0219
848,0.0235
849,0.0223
850,0.0241
851,0.0239
852,0.0234
853,0.0242
854,0.0242
855,0.0241
856,0.0222
857,0.0236
858,0.0230
859,0.0216
860,0.0217
861,0.0224
862,0.0229
863,0.0236
864,0.0226
865,0.0221
866,0.0234
867,0.0226
868,0.0225
869,0.0238
870,0.0212
871,0.0215
872,0.0226
873,0.0201
874,0.0217
875,0.0208
876,0.0205
877,0.0219
878,0.0208
879,0.0215
880,0.0224
881,0.0212
882,0.0223
883,0.0227
884,0.0218
885,0.0230
886,0.0242
887,0.0246
888,0.0236
889,0.0244
890,0.0254
891,0.0260
892,0.0247
893,0.0261
894,0.0270
895,0.0264
896,0.0261
897,0.0262
898,0.0266
899,0.0251
900,0.0274
901,0.0281
902,0.0265
903,0.0279
904,0.0279
905,0.0280
906,0.0293
907,0.0308
908,0.0297
909,0.0292
910,0.0297
911,0.0270
912,0.0310
913,0.0269
914,0.0250
915,0.0274
916,0.0271
917,0.0253
918,0.0239
919,0.0231
920,0.0275
921,0.0224
922,0.0216
923,0.0217
924,0.0231
925,0.0218
926,0.0191
927,0.0192
928,0.0169
929,0.0188
930,0.0170
931,0.0150
932,0.0149
933,0.0133
934,0.0136
935,0.0106
936,0.0116
937,0.0089
938,0.0085
939,0.0061
940,0.0059
941,0.0067
942,0.0061
943,0.0021
944,0.0050
945,0.0049
946,0.0032
947,0.0120
