382,NaN
383,1.0000
384,0.7919
385,0.9470
386,0.0000
387,0.2534
388,0.3564
389,0.2127
390,0.0000
391,0.3035
392,0.2486
393,0.1219
394,0.0000
395,0.0000
396,0.2099
397,0.0098
398,0.0000
399,0.0945
400,0.0986
401,0.2023
402,0.0000
403,0.1984
404,0.0845
405,0.1030
406,0.0917
407,0.0964
408,0.0477
409,0.0357
410,0.0536
411,0.1027
412,0.1188
413,0.0587
414,0.0801
415,0.0419
416,0.0644
417,0.0579
418,0.0737
419,0.0560
420,0.0800
421,0.0540
422,0.0839
423,0.0473
424,0.0468
425,0.0427
426,0.0624
427,0.0312
428,0.0139
429,0.0442
430,0.0945
431,0.0827
432,0.0652
433,0.0360
434,0.0497
435,0.0787
436,0.0595
437,0.0861
438,0.0745
439,0.0533
440,0.0712
441,0.0683
442,0.0782
443,0.0858
444,0.0640
445,0.0499
446,0.0463
447,0.0629
448,0.0444
449,0.0704
450,0.0641
451,0.0425
452,0.0307
453,0.0652
454,0.0597
455,0.0517
456,0.0842
457,0.0593
458,0.0537
459,0.0590
460,0.0540
461,0.0659
462,0.0474
463,0.0621
464,0.0656
465,0.0398
466,0.0628
467,0.0465
468,0.0643
469,0.0729
470,0.0569
471,0.0696
472,0.0700
473,0.0627
474,0.0650
475,0.0655
476,0.0721
477,0.0826
478,0.0723
479,0.0774
480,0.0648
481,0.0699
482,0.0788
483,0.0840
484,0.0760
485,0.0928
486,0.0742
487,0.0828
488,0.0805
489,0.0752
490,0.0829
491,0.0812
492,0.0782
493,0.0850
494,0.0787
495,0.0809
496,0.0760
497,0.0742
498,0.0792
499,0.0729
500,0.0804
501,0.0772
502,0.0755
503,0.0674
504,0.0658
505,0.0688
506,0.0691
507,0.0643
508,0.0638
509,0.0624
510,0.0607
511,0.0576
512,0.0570
513,0.0547
514,0.0527
515,0.0500
516,0.0490
517,0.0509
518,0.0471
519,0.0493
520,0.0475
521,0.0456
522,0.0468
523,0.0441
524,0.0444
525,0.0415
526,0.0440
527,0.0442
528,0.0438
529,0.0427
530,0.0394
531,0.0417
532,0.0404
533,0.0390
534,0.0421
535,0.0412
536,0.0417
537,0.0411
538,0.0395
539,0.0403
540,0.0404
541,0.0401
542,0.0396
543,0.0405
544,0.0409
545,0.0404
546,0.0402
547,0.0421
548,0.0391
549,0.0392
550,0.0392
551,0.0390
552,0.0389
553,0.0394
554,0.0399
555,0.0408
556,0.0414
557,0.0396
558,0.0391
559,0.0404
560,0.0387
561,0.0398
562,0.0405
563,0.0406
564,0.0400
565,0.0404
566,0.0400
567,0.0399
568,0.0402
569,0.0405
570,0.0413
571,0.0415
572,0.0407
573,0.0401
574,0.0416
575,0.0396
576,0.0408
577,0.0404
578,0.0395
579,0.0398
580,0.0401
581,0.0394
582,0.0393
583,0.0388
584,0.0386
585,0.0390
586,0.0379
587,0.0375
588,0.0375
589,0.0379
590,0.0385
591,0.0366
592,0.0374
593,0.0368
594,0.0386
595,0.0363
596,0.0366
597,0.0365
598,0.0369
599,0.0366
600,0.0366
601,0.0367
602,0.0369
603,0.0364
604,0.0360
605,0.0367
606,0.0355
607,0.0368
608,0.0362
609,0.0363
610,0.0366
611,0.0364
612,0.0368
613,0.0356
614,0.0362
615,0.0364
616,0.0357
617,0.0355
618,0.0364
619,0.0375
620,0.0363
621,0.0368
622,0.0366
623,0.0361
624,0.0364
625,0.0365
626,0.0361
627,0.0365
628,0.0381
629,0.0371
630,0.0373
631,0.0372
632,0.0362
633,0.0363
634,0.0359
635,0.0353
636,0.0365
637,0.0366
638,0.0348
639,0.0360
640,0.0364
641,0.0357
642,0.0366
643,0.0356
644,0.0356
645,0.0351
646,0.0353
647,0.0351
648,0.0352
649,0.0354
650,0.0343
651,0.0348
652,0.0345
653,0.0348
654,0.0336
655,0.0338
656,0.0331
657,0.0333
658,0.0332
659,0.0331
660,0.0334
661,0.0324
662,0.0329
663,0.0339
664,0.0334
665,0.0329
666,0.0321
667,0.0335
668,0.0320
669,0.0325
670,0.0328
671,0.0332
672,0.0315
673,0.0318
674,0.0317
675,0.0332
676,0.0332
677,0.0318
678,0.0329
679,0.0318
680,0.0322
681,0.0316
682,0.0321
683,0.0334
684,0.0323
685,0.0313
686,0.0318
687,0.0320
688,0.0333
689,0.0332
690,0.0325
691,0.0324
692,0.0319
693,0.0327
694,0.0328
695,0.0323
696,0.0323
697,0.0333
698,0.0317
699,0.0322
700,0.0327
701,0.0330
702,0.0331
703,0.0328
704,0.0323
705,0.0317
706,0.0321
707,0.0317
708,0.0324
709,0.0329
710,0.0315
711,0.0320
712,0.0318
713,0.0318
714,0.0318
715,0.0320
716,0.0316
717,0.0315
718,0.0313
719,0.0312
720,0.0305
721,0.0293
722,0.0288
723,0.0295
724,0.0287
725,0.0294
726,0.0288
727,0.0285
728,0.0280
729,0.0273
730,0.0276
731,0.0279
732,0.0286
733,0.0269
734,0.0275
735,0.0267
736,0.0279
737,0.0283
738,0.0281
739,0.0274
740,0.0264
741,0.0262
742,0.0274
743,0.0260
744,0.0264
745,0.0278
746,0.0278
747,0.0281
748,0.0275
749,0.0271
750,0.0268
751,0.0280
752,0.0280
753,0.0278
754,0.0284
755,0.0274
756,0.0274
757,0.0275
758,0.0276
759,0.0291
760,0.0282
761,0.0276
762,0.0279
763,0.0284
764,0.0272
765,0.0276
766,0.0274
767,0.0265
768,0.0270
769,0.0270
770,0.0262
771,0.0272
772,0.0271
773,0.0263
774,0.0269
775,0.0273
776,0.0273
777,0.0273
778,0.0263
779,0.0271
780,0.0271
781,0.0275
782,0.0257
783,0.0270
784,0.0262
785,0.0276
786,0.0266
787,0.0271
788,0.0270
789,0.0265
790,0.0254
791,0.0259
792,0.0259
793,0.0252
794,0.0255
795,0.0264
796,0.0258
797,0.0271
798,0.0265
799,0.0253
800,0.0268
801,0.0268
802,0.0269
803,0.0275
804,0.0276
805,0.0275
806,0.0262
807,0.0280
808,0.0286
809,0.0287
810,0.0293
811,0.0297
812,0.0290
813,0.0293
814,0.0290
815,0.0286
816,0.0291
817,0.0297
818,0.0292
819,0.0292
820,0.0308
821,0.0296
822,0.0311
823,0.0295
824,0.0280
825,0.0292
826,0.0287
827,0.0274
828,0.0287
829,0.0276
830,0.0280
831,0.0282
832,0.0262
833,0.0278
834,0.0259
835,0.0278
836,0.0263
837,0.0264
838,0.0246
839,0.0248
840,0.0251
841,0.0241
842,0.0251
843,0.0243
844,0.0247
845,0.0237
846,0.0239
847,0.0232
848,0.0245
849,0.0235
850,0.0236
851,0.0237
852,0.0224
853,0.0243
854,0.0245
855,0.0239
856,0.0236
857,0.0240
858,0.0233
859,0.0225
860,0.0231
861,0.0231
862,0.0219
863,0.0235
864,0.0216
865,0.0219
866,0.0241
867,0.0238
868,0.0217
869,0.0210
870,0.0223
871,0.0224
872,0.0244
873,0.0217
874,0.0224
875,0.0219
876,0.0220
877,0.0210
878,0.0198
879,0.0224
880,0.0222
881,0.0216
882,0.0216
883,0.0226
884,0.0219
885,0.0231
886,0.0237
887,0.0230
888,0.0246
889,0.0236
890,0.0248
891,0.0236
892,0.0243
893,0.0256
894,0.0262
895,0.0268
896,0.0271
897,0.0251
898,0.0263
899,0.0267
900,0.0289
901,0.0292
902,0.0254
903,0.0256
904,0.0282
905,0.0313
906,0.0283
907,0.0307
908,0.0312
909,0.0288
910,0.0306
911,0.0276
912,0.0279
913,0.0271
914,0.0272
915,0.0275
916,0.0281
917,0.0247
918,0.0230
919,0.0229
920,0.0247
921,0.0212
922,0.0219
923,0.0195
924,0.0205
925,0.0224
926,0.0196
927,0.0197
928,0.0194
929,0.0198
930,0.0185
931,0.0161
932,0.0156
933,0.0121
934,0.0131
935,0.0127
936,0.0097
937,0.0094
938,0.0083
939,0.0086
940,0.0064
941,0.0055
942,0.0044
943,0.0052
944,0.0074
945,0.0054
946,0.0034
947,0.0134
