382,NaN
383,0.6845
384,1.0000
385,0.0000
386,0.0000
387,0.0865
388,0.1229
389,0.0000
390,0.0000
391,0.1951
392,0.0931
393,0.0389
394,0.0000
395,0.0000
396,0.1483
397,0.0000
398,0.1047
399,0.0000
400,0.0000
401,0.1915
402,0.0000
403,0.0995
404,0.0499
405,0.0000
406,0.0000
407,0.0000
408,0.0000
409,0.0000
410,0.0594
411,0.0459
412,0.0069
413,0.0531
414,0.0000
415,0.0177
416,0.0000
417,0.0308
418,0.0095
419,0.0000
420,0.0265
421,0.0000
422,0.0000
423,0.0000
424,0.0000
425,0.0156
426,0.0176
427,0.0211
428,0.0000
429,0.0084
430,0.0293
431,0.0075
432,0.0058
433,0.0023
434,0.0113
435,0.0000
436,0.0117
437,0.0383
438,0.0204
439,0.0004
440,0.0250
441,0.0162
442,0.0151
443,0.0295
444,0.0079
445,0.0240
446,0.0000
447,0.0010
448,0.0000
449,0.0027
450,0.0000
451,0.0000
452,0.0040
453,0.0090
454,0.0153
455,0.0270
456,0.0081
457,0.0082
458,0.0026
459,0.0056
460,0.0159
461,0.0085
462,0.0082
463,0.0083
464,0.0057
465,0.0076
466,0.0131
467,0.0089
468,0.0152
469,0.0222
470,0.0136
471,0.0049
472,0.0129
473,0.0114
474,0.0105
475,0.0157
476,0.0078
477,0.0250
478,0.0232
479,0.0333
480,0.0132
481,0.0204
482,0.0086
483,0.0156
484,0.0172
485,0.0209
486,0.0089
487,0.0197
488,0.0105
489,0.0054
490,0.0213
491,0.0123
492,0.0108
493,0.0215
494,0.0171
495,0.0128
496,0.0207
497,0.0185
498,0.0161
499,0.0166
500,0.0214
501,0.0131
502,0.0148
503,0.0142
504,0.0150
505,0.0139
506,0.0148
507,0.0152
508,0.0103
509,0.0126
510,0.0182
511,0.0080
512,0.0138
513,0.0124
514,0.0106
515,0.0117
516,0.0094
517,0.0134
518,0.0092
519,0.0098
520,0.0125
521,0.0076
522,0.0093
523,0.0105
524,0.0089
525,0.0083
526,0.0099
527,0.0110
528,0.0108
529,0.0093
530,0.0079
531,0.0095
532,0.0102
533,0.0086
534,0.0101
535,0.0097
536,0.0092
537,0.0095
538,0.0088
539,0.0102
540,0.0092
541,0.0083
542,0.0098
543,0.0085
544,0.0087
545,0.0084
546,0.0110
547,0.0104
548,0.0093
549,0.0092
550,0.0097
551,0.0080
552,0.0101
553,0.0086
554,0.0094
555,0.0081
556,0.0098
557,0.0088
558,0.0084
559,0.0091
560,0.0085
561,0.0085
562,0.0091
563,0.0103
564,0.0105
565,0.0094
566,0.0086
567,0.0093
568,0.0089
569,0.0112
570,0.0102
571,0.0096
572,0.0099
573,0.0091
574,0.0103
575,0.0089
576,0.0094
577,0.0097
578,0.0081
579,0.0101
580,0.0100
581,0.0092
582,0.0089
583,0.0087
584,0.0094
585,0.0094
586,0.0078
587,0.0094
588,0.0097
589,0.0088
590,0.0104
591,0.0089
592,0.0086
593,0.0093
594,0.0090
595,0.0084
596,0.0087
597,0.0072
598,0.0087
599,0.0082
600,0.0089
601,0.0092
602,0.0090
603,0.0083
604,0.0082
605,0.0086
606,0.0081
607,0.0086
608,0.0084
609,0.0087
610,0.0082
611,0.0079
612,0.0089
613,0.0080
614,0.0083
615,0.0090
616,0.0083
617,0.0079
618,0.0090
619,0.0091
620,0.0080
621,0.0086
622,0.0094
623,0.0093
624,0.0088
625,0.0087
626,0.0088
627,0.0081
628,0.0086
629,0.0091
630,0.0091
631,0.0092
632,0.0087
633,0.0085
634,0.0085
635,0.0083
636,0.0090
637,0.0090
638,0.0079
639,0.0085
640,0.0089
641,0.0085
642,0.0085
643,0.0082
644,0.0090
645,0.0087
646,0.0085
647,0.0084
648,0.0084
649,0.0081
650,0.0083
651,0.0077
652,0.0084
653,0.0091
654,0.0077
655,0.0083
656,0.0078
657,0.0076
658,0.0079
659,0.0074
660,0.0078
661,0.0077
662,0.0082
663,0.0081
664,0.0080
665,0.0077
666,0.0075
667,0.0075
668,0.0075
669,0.0080
670,0.0080
671,0.0081
672,0.0086
673,0.0075
674,0.0069
675,0.0082
676,0.0073
677,0.0072
678,0.0077
679,0.0069
680,0.0071
681,0.0074
682,0.0067
683,0.0080
684,0.0077
685,0.0072
686,0.0078
687,0.0075
688,0.0081
689,0.0083
690,0.0073
691,0.0081
692,0.0078
693,0.0077
694,0.0084
695,0.0073
696,0.0083
697,0.0080
698,0.0076
699,0.0079
700,0.0076
701,0.0078
702,0.0079
703,0.0074
704,0.0070
705,0.0072
706,0.0073
707,0.0070
708,0.0082
709,0.0081
710,0.0076
711,0.0071
712,0.0071
713,0.0071
714,0.0074
715,0.0080
716,0.0075
717,0.0079
718,0.0067
719,0.0075
720,0.0074
721,0.0069
722,0.0066
723,0.0071
724,0.0067
725,0.0068
726,0.0069
727,0.0071
728,0.0069
729,0.0062
730,0.0060
731,0.0067
732,0.0074
733,0.0060
734,0.0072
735,0.0071
736,0.0068
737,0.0064
738,0.0068
739,0.0064
740,0.0061
741,0.0069
742,0.0065
743,0.0059
744,0.0068
745,0.0059
746,0.0069
747,0.0066
748,0.0069
749,0.0063
750,0.0060
751,0.0073
752,0.0064
753,0.0064
754,0.0068
755,0.0055
756,0.0065
757,0.0076
758,0.0051
759,0.0062
760,0.0072
761,0.0066
762,0.0070
763,0.0074
764,0.0072
765,0.0065
766,0.0066
767,0.0065
768,0.0067
769,0.0061
770,0.0057
771,0.0060
772,0.0067
773,0.0063
774,0.0062
775,0.0063
776,0.0071
777,0.0073
778,0.0058
779,0.0068
780,0.0054
781,0.0065
782,0.0063
783,0.0060
784,0.0059
785,0.0067
786,0.0059
787,0.0067
788,0.0064
789,0.0071
790,0.0060
791,0.0055
792,0.0061
793,0.0054
794,0.0056
795,0.0067
796,0.0065
797,0.0060
798,0.0053
799,0.0063
800,0.0063
801,0.0054
802,0.0058
803,0.0068
804,0.0061
805,0.0060
806,0.0056
807,0.0073
808,0.0063
809,0.0066
810,0.0074
811,0.0071
812,0.0059
813,0.0081
814,0.0057
815,0.0070
816,0.0070
817,0.0066
818,0.0068
819,0.0082
820,0.0078
821,0.0082
822,0.0062
823,0.0063
824,0.0059
825,0.0070
826,0.0064
827,0.0052
828,0.0055
829,0.0063
830,0.0065
831,0.0071
832,0.0068
833,0.0055
834,0.0067
835,0.0066
836,0.0060
837,0.0057
838,0.0062
839,0.0055
840,0.0049
841,0.0053
842,0.0069
843,0.0054
844,0.0058
845,0.0058
846,0.0046
847,0.0056
848,0.0053
849,0.0059
850,0.0051
851,0.0050
852,0.0044
853,0.0054
854,0.0057
855,0.0053
856,0.0053
857,0.0061
858,0.0052
859,0.0052
860,0.0054
861,0.0049
862,0.0059
863,0.0056
864,0.0038
865,0.0041
866,0.0053
867,0.0055
868,0.0047
869,0.0061
870,0.0045
871,0.0047
872,0.0058
873,0.0042
874,0.0053
875,0.0058
876,0.0053
877,0.0040
878,0.0053
879,0.0046
880,0.0046
881,0.0049
882,0.0058
883,0.0054
884,0.0057
885,0.0046
886,0.0043
887,0.0068
888,0.0039
889,0.0068
890,0.0087
891,0.0052
892,0.0050
893,0.0063
894,0.0069
895,0.0072
896,0.0054
897,0.0062
898,0.0058
899,0.0069
900,0.0059
901,0.0084
902,0.0043
903,0.0040
904,0.0051
905,0.0070
906,0.0062
907,0.0086
908,0.0087
909,0.0073
910,0.0072
911,0.0047
912,0.0090
913,0.0053
914,0.0060
915,0.0064
916,0.0069
917,0.0056
918,0.0037
919,0.0052
920,0.0102
921,0.0047
922,0.0050
923,0.0057
924,0.0057
925,0.0044
926,0.0034
927,0.0047
928,0.0043
929,0.0053
930,0.0059
931,0.0019
932,0.0038
933,0.0020
934,0.0060
935,0.0040
936,0.0021
937,0.0013
938,0.0015
939,0.0020
940,0.0014
941,0.0001
942,0.0011
943,0.0000
944,0.0019
945,0.0013
946,0.0008
947,0.0053
