382,NaN
383,1.0000
384,1.0000
385,1.0000
386,0.5985
387,0.0122
388,0.0799
389,0.0000
390,0.0000
391,0.0367
392,0.0000
393,0.0000
394,0.0000
395,0.0000
396,0.0162
397,0.0000
398,0.0000
399,0.0000
400,0.0018
401,0.2018
402,0.0000
403,0.0000
404,0.0537
405,0.0000
406,0.0488
407,0.0000
408,0.0165
409,0.0000
410,0.0803
411,0.0000
412,0.0626
413,0.0000
414,0.0100
415,0.0000
416,0.0258
417,0.0439
418,0.0000
419,0.0000
420,0.0249
421,0.0500
422,0.0000
423,0.0000
424,0.0000
425,0.0000
426,0.0586
427,0.0000
428,0.0216
429,0.0000
430,0.0632
431,0.0358
432,0.0240
433,0.0103
434,0.0000
435,0.0000
436,0.0148
437,0.0120
438,0.0186
439,0.0000
440,0.0415
441,0.0328
442,0.0208
443,0.0442
444,0.0159
445,0.0159
446,0.0128
447,0.0122
448,0.0015
449,0.0195
450,0.0214
451,0.0000
452,0.0000
453,0.0325
454,0.0206
455,0.0235
456,0.0154
457,0.0063
458,0.0035
459,0.0145
460,0.0193
461,0.0153
462,0.0093
463,0.0263
464,0.0019
465,0.0000
466,0.0093
467,0.0069
468,0.0118
469,0.0144
470,0.0154
471,0.0000
472,0.0194
473,0.0194
474,0.0062
475,0.0153
476,0.0166
477,0.0283
478,0.0187
479,0.0227
480,0.0238
481,0.0171
482,0.0128
483,0.0193
484,0.0111
485,0.0251
486,0.0128
487,0.0238
488,0.0070
489,0.0127
490,0.0188
491,0.0179
492,0.0137
493,0.0212
494,0.0142
495,0.0190
496,0.0166
497,0.0145
498,0.0182
499,0.0186
500,0.0213
501,0.0148
502,0.0161
503,0.0152
504,0.0157
505,0.0137
506,0.0148
507,0.0208
508,0.0147
509,0.0144
510,0.0155
511,0.0120
512,0.0122
513,0.0132
514,0.0130
515,0.0125
516,0.0132
517,0.0166
518,0.0123
519,0.0139
520,0.0133
521,0.0116
522,0.0114
523,0.0108
524,0.0129
525,0.0091
526,0.0123
527,0.0110
528,0.0100
529,0.0103
530,0.0102
531,0.0104
532,0.0115
533,0.0099
534,0.0106
535,0.0097
536,0.0107
537,0.0115
538,0.0102
539,0.0107
540,0.0109
541,0.0105
542,0.0108
543,0.0116
544,0.0106
545,0.0103
546,0.0113
547,0.0113
548,0.0108
549,0.0102
550,0.0100
551,0.0089
552,0.0105
553,0.0102
554,0.0107
555,0.0110
556,0.0115
557,0.0109
558,0.0106
559,0.0102
560,0.0097
561,0.0112
562,0.0109
563,0.0108
564,0.0106
565,0.0113
566,0.0082
567,0.0109
568,0.0106
569,0.0117
570,0.0123
571,0.0113
572,0.0122
573,0.0116
574,0.0105
575,0.0101
576,0.0117
577,0.0108
578,0.0105
579,0.0114
580,0.0112
581,0.0103
582,0.0095
583,0.0109
584,0.0110
585,0.0110
586,0.0104
587,0.0106
588,0.0106
589,0.0105
590,0.0106
591,0.0105
592,0.0101
593,0.0101
594,0.0104
595,0.0101
596,0.0097
597,0.0099
598,0.0113
599,0.0105
600,0.0102
601,0.0103
602,0.0101
603,0.0097
604,0.0099
605,0.0096
606,0.0091
607,0.0112
608,0.0103
609,0.0103
610,0.0094
611,0.0106
612,0.0104
613,0.0100
614,0.0103
615,0.0092
616,0.0096
617,0.0093
618,0.0099
619,0.0099
620,0.0099
621,0.0100
622,0.0107
623,0.0105
624,0.0099
625,0.0101
626,0.0105
627,0.0100
628,0.0099
629,0.0102
630,0.0103
631,0.0105
632,0.0093
633,0.0093
634,0.0093
635,0.0099
636,0.0102
637,0.0106
638,0.0094
639,0.0099
640,0.0096
641,0.0103
642,0.0094
643,0.0094
644,0.0104
645,0.0093
646,0.0106
647,0.0100
648,0.0102
649,0.0098
650,0.0088
651,0.0097
652,0.0098
653,0.0104
654,0.0099
655,0.0096
656,0.0089
657,0.0090
658,0.0086
659,0.0093
660,0.0091
661,0.0087
662,0.0090
663,0.0095
664,0.0094
665,0.0098
666,0.0088
667,0.0091
668,0.0085
669,0.0086
670,0.0091
671,0.0088
672,0.0094
673,0.0091
674,0.0084
675,0.0089
676,0.0089
677,0.0081
678,0.0090
679,0.0084
680,0.0079
681,0.0086
682,0.0080
683,0.0092
684,0.0093
685,0.0087
686,0.0091
687,0.0084
688,0.0093
689,0.0090
690,0.0090
691,0.0088
692,0.0094
693,0.0090
694,0.0100
695,0.0082
696,0.0088
697,0.0089
698,0.0085
699,0.0091
700,0.0089
701,0.0090
702,0.0085
703,0.0087
704,0.0085
705,0.0084
706,0.0086
707,0.0083
708,0.0088
709,0.0092
710,0.0082
711,0.0090
712,0.0090
713,0.0080
714,0.0083
715,0.0094
716,0.0084
717,0.0089
718,0.0078
719,0.0083
720,0.0085
721,0.0079
722,0.0078
723,0.0086
724,0.0086
725,0.0080
726,0.0078
727,0.0079
728,0.0079
729,0.0070
730,0.0071
731,0.0071
732,0.0079
733,0.0073
734,0.0079
735,0.0078
736,0.0078
737,0.0077
738,0.0068
739,0.0075
740,0.0073
741,0.0076
742,0.0069
743,0.0075
744,0.0080
745,0.0075
746,0.0078
747,0.0078
748,0.0079
749,0.0069
750,0.0075
751,0.0075
752,0.0070
753,0.0079
754,0.0072
755,0.0075
756,0.0076
757,0.0084
758,0.0068
759,0.0076
760,0.0079
761,0.0076
762,0.0072
763,0.0075
764,0.0082
765,0.0081
766,0.0086
767,0.0073
768,0.0071
769,0.0071
770,0.0067
771,0.0073
772,0.0065
773,0.0077
774,0.0077
775,0.0075
776,0.0081
777,0.0075
778,0.0068
779,0.0077
780,0.0076
781,0.0072
782,0.0075
783,0.0071
784,0.0073
785,0.0069
786,0.0069
787,0.0072
788,0.0080
789,0.0078
790,0.0066
791,0.0065
792,0.0077
793,0.0066
794,0.0070
795,0.0080
796,0.0066
797,0.0084
798,0.0069
799,0.0073
800,0.0073
801,0.0062
802,0.0076
803,0.0083
804,0.0071
805,0.0069
806,0.0067
807,0.0079
808,0.0081
809,0.0078
810,0.0085
811,0.0072
812,0.0074
813,0.0075
814,0.0077
815,0.0073
816,0.0078
817,0.0080
818,0.0069
819,0.0090
820,0.0087
821,0.0096
822,0.0072
823,0.0071
824,0.0067
825,0.0076
826,0.0069
827,0.0078
828,0.0068
829,0.0078
830,0.0069
831,0.0084
832,0.0077
833,0.0081
834,0.0071
835,0.0073
836,0.0067
837,0.0076
838,0.0076
839,0.0064
840,0.0060
841,0.0066
842,0.0070
843,0.0061
844,0.0068
845,0.0073
846,0.0063
847,0.0057
848,0.0065
849,0.0060
850,0.0068
851,0.0067
852,0.0067
853,0.0065
854,0.0069
855,0.0065
856,0.0048
857,0.0072
858,0.0063
859,0.0050
860,0.0073
861,0.0068
862,0.0062
863,0.0073
864,0.0071
865,0.0048
866,0.0074
867,0.0071
868,0.0060
869,0.0075
870,0.0052
871,0.0058
872,0.0069
873,0.0067
874,0.0053
875,0.0055
876,0.0062
877,0.0055
878,0.0058
879,0.0075
880,0.0073
881,0.0047
882,0.0059
883,0.0069
884,0.0065
885,0.0067
886,0.0065
887,0.0072
888,0.0040
889,0.0076
890,0.0077
891,0.0064
892,0.0059
893,0.0084
894,0.0093
895,0.0079
896,0.0059
897,0.0077
898,0.0072
899,0.0069
900,0.0066
901,0.0071
902,0.0041
903,0.0060
904,0.0080
905,0.0073
906,0.0069
907,0.0106
908,0.0090
909,0.0084
910,0.0118
911,0.0044
912,0.0091
913,0.0076
914,0.0064
915,0.0062
916,0.0089
917,0.0068
918,0.0052
919,0.0055
920,0.0087
921,0.0040
922,0.0072
923,0.0078
924,0.0061
925,0.0036
926,0.0066
927,0.0046
928,0.0047
929,0.0053
930,0.0080
931,0.0051
932,0.0030
933,0.0031
934,0.0038
935,0.0028
936,0.0014
937,0.0003
938,0.0018
939,0.0022
940,0.0021
941,0.0006
942,0.0017
943,0.0007
944,0.0000
945,0.0008
946,0.0009
947,0.0062
