382,NaN
383,1.0000
384,0.1215
385,0.4787
386,0.0000
387,0.0482
388,0.0000
389,0.0000
390,0.0000
391,0.0000
392,0.2510
393,0.1962
394,0.0124
395,0.0000
396,0.0051
397,0.0000
398,0.1937
399,0.1074
400,0.0309
401,0.1859
402,0.0000
403,0.0061
404,0.0271
405,0.0000
406,0.0901
407,0.0000
408,0.0000
409,0.0000
410,0.0368
411,0.0224
412,0.0375
413,0.0000
414,0.0060
415,0.0210
416,0.0107
417,0.0287
418,0.0000
419,0.0000
420,0.0256
421,0.0129
422,0.0000
423,0.0131
424,0.0000
425,0.0000
426,0.0201
427,0.0000
428,0.0057
429,0.0000
430,0.0199
431,0.0251
432,0.0000
433,0.0000
434,0.0000
435,0.0081
436,0.0307
437,0.0032
438,0.0092
439,0.0234
440,0.0442
441,0.0211
442,0.0167
443,0.0322
444,0.0148
445,0.0341
446,0.0101
447,0.0431
448,0.0045
449,0.0376
450,0.0154
451,0.0050
452,0.0000
453,0.0034
454,0.0203
455,0.0262
456,0.0159
457,0.0211
458,0.0191
459,0.0000
460,0.0025
461,0.0129
462,0.0179
463,0.0227
464,0.0059
465,0.0000
466,0.0173
467,0.0067
468,0.0284
469,0.0304
470,0.0087
471,0.0092
472,0.0155
473,0.0147
474,0.0202
475,0.0223
476,0.0193
477,0.0312
478,0.0196
479,0.0249
480,0.0215
481,0.0183
482,0.0137
483,0.0201
484,0.0092
485,0.0286
486,0.0107
487,0.0230
488,0.0143
489,0.0119
490,0.0207
491,0.0112
492,0.0167
493,0.0227
494,0.0194
495,0.0182
496,0.0218
497,0.0248
498,0.0239
499,0.0242
500,0.0200
501,0.0142
502,0.0186
503,0.0171
504,0.0182
505,0.0103
506,0.0179
507,0.0198
508,0.0174
509,0.0166
510,0.0197
511,0.0114
512,0.0179
513,0.0144
514,0.0126
515,0.0140
516,0.0162
517,0.0172
518,0.0109
519,0.0130
520,0.0161
521,0.0126
522,0.0133
523,0.0117
524,0.0131
525,0.0113
526,0.0118
527,0.0135
528,0.0113
529,0.0129
530,0.0120
531,0.0104
532,0.0115
533,0.0114
534,0.0127
535,0.0115
536,0.0123
537,0.0128
538,0.0104
539,0.0100
540,0.0121
541,0.0121
542,0.0128
543,0.0118
544,0.0120
545,0.0106
546,0.0132
547,0.0128
548,0.0118
549,0.0119
550,0.0127
551,0.0119
552,0.0118
553,0.0123
554,0.0126
555,0.0119
556,0.0112
557,0.0122
558,0.0113
559,0.0121
560,0.0115
561,0.0129
562,0.0126
563,0.0125
564,0.0123
565,0.0121
566,0.0105
567,0.0126
568,0.0120
569,0.0125
570,0.0128
571,0.0137
572,0.0129
573,0.0128
574,0.0123
575,0.0123
576,0.0124
577,0.0135
578,0.0117
579,0.0137
580,0.0124
581,0.0113
582,0.0124
583,0.0119
584,0.0119
585,0.0131
586,0.0116
587,0.0122
588,0.0126
589,0.0121
590,0.0119
591,0.0117
592,0.0121
593,0.0120
594,0.0126
595,0.0119
596,0.0114
597,0.0114
598,0.0114
599,0.0124
600,0.0117
601,0.0123
602,0.0113
603,0.0112
604,0.0119
605,0.0105
606,0.0107
607,0.0120
608,0.0115
609,0.0117
610,0.0111
611,0.0116
612,0.0118
613,0.0115
614,0.0113
615,0.0118
616,0.0117
617,0.0111
618,0.0115
619,0.0122
620,0.0112
621,0.0113
622,0.0119
623,0.0114
624,0.0117
625,0.0110
626,0.0112
627,0.0114
628,0.0116
629,0.0123
630,0.0115
631,0.0115
632,0.0113
633,0.0114
634,0.0114
635,0.0112
636,0.0121
637,0.0120
638,0.0113
639,0.0103
640,0.0114
641,0.0123
642,0.0112
643,0.0117
644,0.0119
645,0.0110
646,0.0115
647,0.0110
648,0.0115
649,0.0112
650,0.0104
651,0.0108
652,0.0114
653,0.0118
654,0.0102
655,0.0116
656,0.0108
657,0.0102
658,0.0101
659,0.0103
660,0.0103
661,0.0106
662,0.0106
663,0.0114
664,0.0104
665,0.0099
666,0.0098
667,0.0109
668,0.0104
669,0.0098
670,0.0098
671,0.0108
672,0.0103
673,0.0106
674,0.0096
675,0.0105
676,0.0107
677,0.0098
678,0.0114
679,0.0102
680,0.0101
681,0.0098
682,0.0103
683,0.0099
684,0.0106
685,0.0096
686,0.0099
687,0.0097
688,0.0100
689,0.0108
690,0.0103
691,0.0108
692,0.0099
693,0.0106
694,0.0105
695,0.0101
696,0.0100
697,0.0105
698,0.0103
699,0.0111
700,0.0104
701,0.0107
702,0.0105
703,0.0099
704,0.0097
705,0.0097
706,0.0102
707,0.0095
708,0.0103
709,0.0105
710,0.0095
711,0.0106
712,0.0097
713,0.0106
714,0.0102
715,0.0106
716,0.0100
717,0.0102
718,0.0098
719,0.0094
720,0.0096
721,0.0085
722,0.0088
723,0.0090
724,0.0087
725,0.0095
726,0.0091
727,0.0096
728,0.0086
729,0.0086
730,0.0085
731,0.0085
732,0.0092
733,0.0080
734,0.0090
735,0.0094
736,0.0084
737,0.0083
738,0.0089
739,0.0083
740,0.0084
741,0.0092
742,0.0084
743,0.0083
744,0.0085
745,0.0090
746,0.0093
747,0.0090
748,0.0090
749,0.0087
750,0.0081
751,0.0096
752,0.0088
753,0.0087
754,0.0094
755,0.0090
756,0.0090
757,0.0087
758,0.0082
759,0.0087
760,0.0092
761,0.0088
762,0.0088
763,0.0095
764,0.0093
765,0.0088
766,0.0082
767,0.0086
768,0.0091
769,0.0085
770,0.0079
771,0.0086
772,0.0087
773,0.0081
774,0.0092
775,0.0091
776,0.0090
777,0.0085
778,0.0086
779,0.0097
780,0.0084
781,0.0087
782,0.0084
783,0.0081
784,0.0083
785,0.0091
786,0.0082
787,0.0090
788,0.0091
789,0.0090
790,0.0079
791,0.0076
792,0.0084
793,0.0081
794,0.0080
795,0.0085
796,0.0077
797,0.0089
798,0.0076
799,0.0085
800,0.0084
801,0.0080
802,0.0085
803,0.0097
804,0.0084
805,0.0084
806,0.0085
807,0.0093
808,0.0096
809,0.0082
810,0.0102
811,0.0095
812,0.0088
813,0.0088
814,0.0078
815,0.0083
816,0.0093
817,0.0094
818,0.0088
819,0.0097
820,0.0093
821,0.0093
822,0.0096
823,0.0081
824,0.0086
825,0.0099
826,0.0082
827,0.0092
828,0.0072
829,0.0084
830,0.0087
831,0.0091
832,0.0083
833,0.0083
834,0.0081
835,0.0093
836,0.0087
837,0.0085
838,0.0086
839,0.0087
840,0.0070
841,0.0075
842,0.0092
843,0.0080
844,0.0081
845,0.0083
846,0.0064
847,0.0064
848,0.0088
849,0.0074
850,0.0071
851,0.0079
852,0.0078
853,0.0072
854,0.0084
855,0.0079
856,0.0063
857,0.0082
858,0.0073
859,0.0063
860,0.0066
861,0.0076
862,0.0068
863,0.0079
864,0.0061
865,0.0067
866,0.0083
867,0.0080
868,0.0073
869,0.0069
870,0.0058
871,0.0078
872,0.0081
873,0.0065
874,0.0062
875,0.0066
876,0.0074
877,0.0068
878,0.0068
879,0.0068
880,0.0072
881,0.0059
882,0.0068
883,0.0079
884,0.0047
885,0.0076
886,0.0068
887,0.0076
888,0.0065
889,0.0083
890,0.0088
891,0.0057
892,0.0084
893,0.0089
894,0.0082
895,0.0071
896,0.0088
897,0.0096
898,0.0069
899,0.0082
900,0.0088
901,0.0096
902,0.0080
903,0.0072
904,0.0100
905,0.0079
906,0.0089
907,0.0129
908,0.0117
909,0.0097
910,0.0088
911,0.0075
912,0.0100
913,0.0054
914,0.0099
915,0.0074
916,0.0096
917,0.0085
918,0.0078
919,0.0067
920,0.0094
921,0.0048
922,0.0060
923,0.0057
924,0.0066
925,0.0068
926,0.0080
927,0.0070
928,0.0051
929,0.0065
930,0.0063
931,0.0073
932,0.0054
933,0.0051
934,0.0046
935,0.0042
936,0.0024
937,0.0034
938,0.0038
939,0.0016
940,0.0015
941,0.0026
942,0.0023
943,0.0005
944,0.0016
945,0.0024
946,0.0022
947,0.0041
