382,NaN
383,1.0000
384,0.0000
385,1.0000
386,0.0000
387,0.2581
388,0.1462
389,0.0000
390,0.0889
391,0.0000
392,0.2121
393,0.1281
394,0.0000
395,0.0000
396,0.0000
397,0.0000
398,0.0000
399,0.0916
400,0.0000
401,0.1580
402,0.0000
403,0.0714
404,0.0000
405,0.0000
406,0.0000
407,0.0000
408,0.0000
409,0.0410
410,0.0509
411,0.0841
412,0.0376
413,0.0100
414,0.0000
415,0.0000
416,0.0000
417,0.0411
418,0.0000
419,0.0007
420,0.0235
421,0.0000
422,0.0130
423,0.0145
424,0.0000
425,0.0000
426,0.0182
427,0.0041
428,0.0000
429,0.0000
430,0.0000
431,0.0300
432,0.0418
433,0.0000
434,0.0000
435,0.0096
436,0.0155
437,0.0221
438,0.0367
439,0.0028
440,0.0184
441,0.0187
442,0.0330
443,0.0248
444,0.0146
445,0.0156
446,0.0271
447,0.0000
448,0.0000
449,0.0155
450,0.0427
451,0.0127
452,0.0089
453,0.0145
454,0.0188
455,0.0269
456,0.0099
457,0.0107
458,0.0131
459,0.0049
460,0.0092
461,0.0341
462,0.0033
463,0.0325
464,0.0094
465,0.0056
466,0.0082
467,0.0069
468,0.0211
469,0.0174
470,0.0138
471,0.0092
472,0.0181
473,0.0220
474,0.0111
475,0.0345
476,0.0233
477,0.0368
478,0.0259
479,0.0321
480,0.0261
481,0.0234
482,0.0125
483,0.0242
484,0.0159
485,0.0277
486,0.0167
487,0.0323
488,0.0273
489,0.0241
490,0.0247
491,0.0274
492,0.0171
493,0.0242
494,0.0230
495,0.0221
496,0.0259
497,0.0241
498,0.0228
499,0.0227
500,0.0232
501,0.0215
502,0.0228
503,0.0233
504,0.0230
505,0.0200
506,0.0227
507,0.0233
508,0.0226
509,0.0246
510,0.0218
511,0.0188
512,0.0188
513,0.0191
514,0.0189
515,0.0182
516,0.0202
517,0.0204
518,0.0178
519,0.0163
520,0.0164
521,0.0152
522,0.0162
523,0.0163
524,0.0158
525,0.0161
526,0.0158
527,0.0175
528,0.0170
529,0.0156
530,0.0150
531,0.0154
532,0.0158
533,0.0145
534,0.0160
535,0.0140
536,0.0146
537,0.0141
538,0.0146
539,0.0146
540,0.0155
541,0.0148
542,0.0153
543,0.0138
544,0.0134
545,0.0156
546,0.0168
547,0.0145
548,0.0159
549,0.0149
550,0.0158
551,0.0155
552,0.0156
553,0.0150
554,0.0165
555,0.0160
556,0.0147
557,0.0154
558,0.0155
559,0.0159
560,0.0152
561,0.0157
562,0.0160
563,0.0149
564,0.0160
565,0.0162
566,0.0148
567,0.0148
568,0.0161
569,0.0167
570,0.0170
571,0.0169
572,0.0160
573,0.0164
574,0.0171
575,0.0159
576,0.0158
577,0.0175
578,0.0153
579,0.0165
580,0.0162
581,0.0152
582,0.0153
583,0.0152
584,0.0152
585,0.0166
586,0.0154
587,0.0151
588,0.0155
589,0.0147
590,0.0151
591,0.0149
592,0.0153
593,0.0161
594,0.0161
595,0.0152
596,0.0151
597,0.0136
598,0.0153
599,0.0156
600,0.0154
601,0.0154
602,0.0154
603,0.0146
604,0.0151
605,0.0150
606,0.0143
607,0.0161
608,0.0151
609,0.0157
610,0.0150
611,0.0148
612,0.0163
613,0.0151
614,0.0144
615,0.0154
616,0.0144
617,0.0138
618,0.0155
619,0.0151
620,0.0150
621,0.0151
622,0.0151
623,0.0156
624,0.0150
625,0.0151
626,0.0155
627,0.0148
628,0.0152
629,0.0159
630,0.0161
631,0.0157
632,0.0152
633,0.0152
634,0.0158
635,0.0149
636,0.0157
637,0.0149
638,0.0149
639,0.0149
640,0.0153
641,0.0157
642,0.0152
643,0.0153
644,0.0144
645,0.0145
646,0.0153
647,0.0149
648,0.0145
649,0.0151
650,0.0145
651,0.0146
652,0.0144
653,0.0149
654,0.0130
655,0.0142
656,0.0139
657,0.0137
658,0.0138
659,0.0132
660,0.0134
661,0.0133
662,0.0142
663,0.0137
664,0.0137
665,0.0146
666,0.0137
667,0.0133
668,0.0133
669,0.0134
670,0.0134
671,0.0145
672,0.0142
673,0.0135
674,0.0123
675,0.0144
676,0.0134
677,0.0129
678,0.0137
679,0.0127
680,0.0135
681,0.0127
682,0.0129
683,0.0137
684,0.0135
685,0.0127
686,0.0136
687,0.0126
688,0.0136
689,0.0143
690,0.0134
691,0.0137
692,0.0136
693,0.0137
694,0.0140
695,0.0133
696,0.0133
697,0.0137
698,0.0138
699,0.0133
700,0.0133
701,0.0136
702,0.0132
703,0.0141
704,0.0129
705,0.0134
706,0.0127
707,0.0130
708,0.0130
709,0.0139
710,0.0136
711,0.0139
712,0.0130
713,0.0132
714,0.0131
715,0.0137
716,0.0127
717,0.0131
718,0.0128
719,0.0126
720,0.0125
721,0.0112
722,0.0117
723,0.0122
724,0.0121
725,0.0116
726,0.0116
727,0.0116
728,0.0124
729,0.0115
730,0.0116
731,0.0121
732,0.0119
733,0.0115
734,0.0117
735,0.0122
736,0.0116
737,0.0116
738,0.0115
739,0.0108
740,0.0111
741,0.0111
742,0.0116
743,0.0115
744,0.0119
745,0.0114
746,0.0116
747,0.0119
748,0.0117
749,0.0108
750,0.0116
751,0.0116
752,0.0116
753,0.0119
754,0.0119
755,0.0120
756,0.0119
757,0.0119
758,0.0110
759,0.0118
760,0.0114
761,0.0112
762,0.0122
763,0.0120
764,0.0114
765,0.0118
766,0.0120
767,0.0117
768,0.0115
769,0.0112
770,0.0120
771,0.0117
772,0.0113
773,0.0108
774,0.0118
775,0.0113
776,0.0118
777,0.0116
778,0.0116
779,0.0117
780,0.0108
781,0.0104
782,0.0111
783,0.0117
784,0.0111
785,0.0113
786,0.0112
787,0.0116
788,0.0124
789,0.0107
790,0.0116
791,0.0100
792,0.0117
793,0.0095
794,0.0108
795,0.0116
796,0.0112
797,0.0113
798,0.0107
799,0.0097
800,0.0114
801,0.0104
802,0.0120
803,0.0118
804,0.0120
805,0.0117
806,0.0109
807,0.0115
808,0.0125
809,0.0117
810,0.0126
811,0.0122
812,0.0109
813,0.0125
814,0.0121
815,0.0116
816,0.0119
817,0.0126
818,0.0118
819,0.0128
820,0.0129
821,0.0133
822,0.0121
823,0.0124
824,0.0122
825,0.0126
826,0.0118
827,0.0105
828,0.0125
829,0.0112
830,0.0129
831,0.0125
832,0.0117
833,0.0121
834,0.0105
835,0.0123
836,0.0102
837,0.0114
838,0.0104
839,0.0098
840,0.0095
841,0.0101
842,0.0130
843,0.0102
844,0.0106
845,0.0104
846,0.0090
847,0.0086
848,0.0099
849,0.0100
850,0.0102
851,0.0098
852,0.0111
853,0.0110
854,0.0108
855,0.0091
856,0.0088
857,0.0106
858,0.0100
859,0.0086
860,0.0092
861,0.0099
862,0.0098
863,0.0095
864,0.0088
865,0.0094
866,0.0103
867,0.0092
868,0.0087
869,0.0084
870,0.0089
871,0.0104
872,0.0098
873,0.0090
874,0.0097
875,0.0088
876,0.0095
877,0.0108
878,0.0076
879,0.0097
880,0.0106
881,0.0097
882,0.0103
883,0.0097
884,0.0101
885,0.0100
886,0.0092
887,0.0098
888,0.0081
889,0.0113
890,0.0103
891,0.0106
892,0.0100
893,0.0124
894,0.0118
895,0.0101
896,0.0109
897,0.0117
898,0.0113
899,0.0092
900,0.0112
901,0.0124
902,0.0084
903,0.0111
904,0.0121
905,0.0088
906,0.0101
907,0.0140
908,0.0146
909,0.0119
910,0.0133
911,0.0108
912,0.0125
913,0.0100
914,0.0103
915,0.0117
916,0.0128
917,0.0112
918,0.0097
919,0.0105
920,0.0134
921,0.0078
922,0.0088
923,0.0080
924,0.0093
925,0.0088
926,0.0105
927,0.0084
928,0.0079
929,0.0086
930,0.0070
931,0.0058
932,0.0075
933,0.0035
934,0.0057
935,0.0038
936,0.0040
937,0.0025
938,0.0047
939,0.0045
940,0.0015
941,0.0038
942,0.0016
943,0.0013
944,0.0009
945,0.0040
946,0.0006
947,0.0060
