382,NaN
383,1.0000
384,0.0000
385,1.0000
386,0.0000
387,0.1342
388,0.1643
389,0.0344
390,0.0000
391,0.0000
392,0.1390
393,0.1085
394,0.0000
395,0.0000
396,0.0000
397,0.0000
398,0.1083
399,0.1040
400,0.0000
401,0.2093
402,0.0000
403,0.0010
404,0.0540
405,0.0000
406,0.0944
407,0.0417
408,0.0000
409,0.0188
410,0.1023
411,0.0698
412,0.0265
413,0.0863
414,0.0000
415,0.0614
416,0.0119
417,0.0048
418,0.0000
419,0.0000
420,0.0000
421,0.0000
422,0.0000
423,0.0720
424,0.0000
425,0.0000
426,0.0810
427,0.0000
428,0.0000
429,0.0249
430,0.0159
431,0.0000
432,0.0000
433,0.0000
434,0.0000
435,0.0232
436,0.0269
437,0.0373
438,0.0160
439,0.0000
440,0.0000
441,0.0324
442,0.0407
443,0.0475
444,0.0157
445,0.0281
446,0.0127
447,0.0259
448,0.0000
449,0.0186
450,0.0201
451,0.0000
452,0.0000
453,0.0222
454,0.0119
455,0.0187
456,0.0163
457,0.0057
458,0.0092
459,0.0084
460,0.0195
461,0.0078
462,0.0132
463,0.0301
464,0.0129
465,0.0019
466,0.0063
467,0.0178
468,0.0176
469,0.0331
470,0.0094
471,0.0051
472,0.0178
473,0.0203
474,0.0164
475,0.0283
476,0.0284
477,0.0343
478,0.0281
479,0.0311
480,0.0269
481,0.0267
482,0.0225
483,0.0241
484,0.0246
485,0.0304
486,0.0259
487,0.0322
488,0.0213
489,0.0239
490,0.0257
491,0.0274
492,0.0219
493,0.0319
494,0.0294
495,0.0280
496,0.0292
497,0.0308
498,0.0317
499,0.0273
500,0.0294
501,0.0227
502,0.0250
503,0.0211
504,0.0230
505,0.0241
506,0.0238
507,0.0271
508,0.0222
509,0.0244
510,0.0257
511,0.0203
512,0.0213
513,0.0194
514,0.0194
515,0.0205
516,0.0187
517,0.0210
518,0.0188
519,0.0170
520,0.0213
521,0.0170
522,0.0180
523,0.0165
524,0.0194
525,0.0183
526,0.0163
527,0.0181
528,0.0180
529,0.0167
530,0.0169
531,0.0170
532,0.0164
533,0.0161
534,0.0178
535,0.0162
536,0.0181
537,0.0164
538,0.0166
539,0.0180
540,0.0178
541,0.0161
542,0.0171
543,0.0170
544,0.0168
545,0.0163
546,0.0174
547,0.0169
548,0.0182
549,0.0167
550,0.0167
551,0.0154
552,0.0176
553,0.0161
554,0.0168
555,0.0169
556,0.0166
557,0.0178
558,0.0175
559,0.0172
560,0.0166
561,0.0168
562,0.0183
563,0.0185
564,0.0178
565,0.0174
566,0.0158
567,0.0173
568,0.0174
569,0.0184
570,0.0179
571,0.0182
572,0.0186
573,0.0182
574,0.0179
575,0.0174
576,0.0179
577,0.0189
578,0.0171
579,0.0173
580,0.0174
581,0.0170
582,0.0172
583,0.0179
584,0.0169
585,0.0180
586,0.0173
587,0.0172
588,0.0169
589,0.0170
590,0.0176
591,0.0168
592,0.0165
593,0.0178
594,0.0172
595,0.0164
596,0.0173
597,0.0169
598,0.0161
599,0.0162
600,0.0164
601,0.0163
602,0.0164
603,0.0160
604,0.0168
605,0.0169
606,0.0152
607,0.0166
608,0.0169
609,0.0170
610,0.0165
611,0.0173
612,0.0165
613,0.0163
614,0.0165
615,0.0165
616,0.0170
617,0.0159
618,0.0160
619,0.0177
620,0.0165
621,0.0165
622,0.0175
623,0.0168
624,0.0171
625,0.0170
626,0.0168
627,0.0166
628,0.0176
629,0.0172
630,0.0173
631,0.0162
632,0.0163
633,0.0165
634,0.0160
635,0.0167
636,0.0170
637,0.0166
638,0.0165
639,0.0164
640,0.0167
641,0.0165
642,0.0166
643,0.0162
644,0.0166
645,0.0167
646,0.0164
647,0.0160
648,0.0162
649,0.0159
650,0.0158
651,0.0153
652,0.0165
653,0.0164
654,0.0156
655,0.0154
656,0.0156
657,0.0151
658,0.0155
659,0.0151
660,0.0148
661,0.0146
662,0.0158
663,0.0161
664,0.0147
665,0.0158
666,0.0155
667,0.0152
668,0.0153
669,0.0158
670,0.0148
671,0.0152
672,0.0155
673,0.0155
674,0.0142
675,0.0153
676,0.0151
677,0.0151
678,0.0152
679,0.0143
680,0.0152
681,0.0144
682,0.0147
683,0.0157
684,0.0154
685,0.0145
686,0.0148
687,0.0147
688,0.0141
689,0.0152
690,0.0151
691,0.0153
692,0.0152
693,0.0150
694,0.0156
695,0.0152
696,0.0155
697,0.0157
698,0.0155
699,0.0153
700,0.0158
701,0.0151
702,0.0156
703,0.0155
704,0.0143
705,0.0146
706,0.0148
707,0.0149
708,0.0148
709,0.0145
710,0.0148
711,0.0155
712,0.0146
713,0.0140
714,0.0144
715,0.0149
716,0.0145
717,0.0150
718,0.0146
719,0.0150
720,0.0147
721,0.0135
722,0.0128
723,0.0128
724,0.0133
725,0.0137
726,0.0138
727,0.0127
728,0.0127
729,0.0129
730,0.0126
731,0.0135
732,0.0137
733,0.0125
734,0.0131
735,0.0134
736,0.0132
737,0.0134
738,0.0133
739,0.0123
740,0.0132
741,0.0128
742,0.0125
743,0.0120
744,0.0121
745,0.0130
746,0.0131
747,0.0133
748,0.0129
749,0.0122
750,0.0121
751,0.0135
752,0.0123
753,0.0128
754,0.0133
755,0.0128
756,0.0126
757,0.0128
758,0.0135
759,0.0128
760,0.0131
761,0.0127
762,0.0134
763,0.0132
764,0.0126
765,0.0133
766,0.0125
767,0.0127
768,0.0131
769,0.0124
770,0.0122
771,0.0131
772,0.0124
773,0.0124
774,0.0135
775,0.0123
776,0.0127
777,0.0126
778,0.0128
779,0.0121
780,0.0128
781,0.0119
782,0.0120
783,0.0122
784,0.0123
785,0.0131
786,0.0125
787,0.0135
788,0.0129
789,0.0126
790,0.0115
791,0.0112
792,0.0126
793,0.0119
794,0.0126
795,0.0121
796,0.0124
797,0.0130
798,0.0116
799,0.0125
800,0.0131
801,0.0124
802,0.0120
803,0.0131
804,0.0128
805,0.0130
806,0.0131
807,0.0133
808,0.0137
809,0.0128
810,0.0143
811,0.0129
812,0.0134
813,0.0133
814,0.0131
815,0.0133
816,0.0133
817,0.0125
818,0.0141
819,0.0144
820,0.0151
821,0.0139
822,0.0142
823,0.0142
824,0.0132
825,0.0141
826,0.0144
827,0.0127
828,0.0121
829,0.0132
830,0.0132
831,0.0144
832,0.0132
833,0.0131
834,0.0138
835,0.0129
836,0.0125
837,0.0120
838,0.0116
839,0.0117
840,0.0119
841,0.0113
842,0.0129
843,0.0107
844,0.0122
845,0.0113
846,0.0105
847,0.0115
848,0.0114
849,0.0118
850,0.0111
851,0.0123
852,0.0116
853,0.0110
854,0.0120
855,0.0111
856,0.0108
857,0.0121
858,0.0105
859,0.0107
860,0.0106
861,0.0102
862,0.0108
863,0.0124
864,0.0107
865,0.0102
866,0.0108
867,0.0100
868,0.0114
869,0.0108
870,0.0104
871,0.0105
872,0.0107
873,0.0098
874,0.0095
875,0.0104
876,0.0099
877,0.0101
878,0.0099
879,0.0106
880,0.0113
881,0.0107
882,0.0125
883,0.0114
884,0.0095
885,0.0110
886,0.0115
887,0.0109
888,0.0119
889,0.0126
890,0.0127
891,0.0111
892,0.0105
893,0.0140
894,0.0132
895,0.0120
896,0.0120
897,0.0110
898,0.0135
899,0.0122
900,0.0131
901,0.0138
902,0.0114
903,0.0106
904,0.0149
905,0.0129
906,0.0136
907,0.0161
908,0.0165
909,0.0142
910,0.0137
911,0.0121
912,0.0141
913,0.0110
914,0.0125
915,0.0143
916,0.0131
917,0.0135
918,0.0109
919,0.0113
920,0.0119
921,0.0110
922,0.0093
923,0.0103
924,0.0112
925,0.0112
926,0.0091
927,0.0091
928,0.0091
929,0.0106
930,0.0059
931,0.0084
932,0.0082
933,0.0065
934,0.0074
935,0.0074
936,0.0033
937,0.0020
938,0.0055
939,0.0051
940,0.0031
941,0.0037
942,0.0023
943,0.0019
944,0.0043
945,0.0012
946,0.0003
947,0.0077
