382,NaN
383,1.0000
384,0.0000
385,1.0000
386,0.0000
387,0.0367
388,0.0000
389,0.0000
390,0.1137
391,0.0585
392,0.2028
393,0.0000
394,0.0000
395,0.0000
396,0.1995
397,0.0000
398,0.0000
399,0.0000
400,0.0000
401,0.1843
402,0.0000
403,0.1321
404,0.0185
405,0.0000
406,0.0000
407,0.0023
408,0.0000
409,0.0167
410,0.0867
411,0.1089
412,0.1022
413,0.0073
414,0.0020
415,0.0164
416,0.0539
417,0.0360
418,0.0000
419,0.0068
420,0.0416
421,0.0000
422,0.0171
423,0.0000
424,0.0000
425,0.0000
426,0.0042
427,0.0145
428,0.0151
429,0.0036
430,0.0479
431,0.0350
432,0.0000
433,0.0159
434,0.0000
435,0.0311
436,0.0166
437,0.0390
438,0.0198
439,0.0000
440,0.0103
441,0.0367
442,0.0142
443,0.0503
444,0.0281
445,0.0252
446,0.0140
447,0.0000
448,0.0080
449,0.0325
450,0.0192
451,0.0000
452,0.0068
453,0.0347
454,0.0365
455,0.0094
456,0.0218
457,0.0167
458,0.0124
459,0.0192
460,0.0195
461,0.0217
462,0.0140
463,0.0223
464,0.0144
465,0.0073
466,0.0163
467,0.0131
468,0.0204
469,0.0424
470,0.0193
471,0.0083
472,0.0313
473,0.0231
474,0.0258
475,0.0212
476,0.0267
477,0.0390
478,0.0244
479,0.0337
480,0.0309
481,0.0246
482,0.0278
483,0.0335
484,0.0235
485,0.0324
486,0.0243
487,0.0375
488,0.0279
489,0.0261
490,0.0331
491,0.0349
492,0.0297
493,0.0346
494,0.0319
495,0.0310
496,0.0321
497,0.0310
498,0.0368
499,0.0347
500,0.0317
501,0.0277
502,0.0293
503,0.0278
504,0.0317
505,0.0240
506,0.0266
507,0.0293
508,0.0275
509,0.0276
510,0.0279
511,0.0213
512,0.0248
513,0.0226
514,0.0243
515,0.0226
516,0.0194
517,0.0244
518,0.0225
519,0.0208
520,0.0210
521,0.0183
522,0.0200
523,0.0200
524,0.0185
525,0.0167
526,0.0196
527,0.0213
528,0.0181
529,0.0198
530,0.0183
531,0.0173
532,0.0192
533,0.0171
534,0.0209
535,0.0199
536,0.0199
537,0.0195
538,0.0189
539,0.0193
540,0.0200
541,0.0185
542,0.0202
543,0.0196
544,0.0182
545,0.0194
546,0.0196
547,0.0207
548,0.0186
549,0.0193
550,0.0196
551,0.0179
552,0.0194
553,0.0175
554,0.0198
555,0.0175
556,0.0187
557,0.0205
558,0.0197
559,0.0182
560,0.0187
561,0.0201
562,0.0190
563,0.0201
564,0.0197
565,0.0209
566,0.0173
567,0.0202
568,0.0196
569,0.0208
570,0.0204
571,0.0207
572,0.0209
573,0.0206
574,0.0212
575,0.0191
576,0.0213
577,0.0208
578,0.0191
579,0.0212
580,0.0212
581,0.0188
582,0.0191
583,0.0203
584,0.0187
585,0.0198
586,0.0194
587,0.0198
588,0.0195
589,0.0195
590,0.0186
591,0.0177
592,0.0191
593,0.0196
594,0.0201
595,0.0187
596,0.0191
597,0.0189
598,0.0189
599,0.0194
600,0.0185
601,0.0189
602,0.0196
603,0.0185
604,0.0192
605,0.0190
606,0.0186
607,0.0196
608,0.0192
609,0.0194
610,0.0188
611,0.0195
612,0.0199
613,0.0193
614,0.0188
615,0.0189
616,0.0193
617,0.0188
618,0.0194
619,0.0191
620,0.0188
621,0.0189
622,0.0187
623,0.0195
624,0.0189
625,0.0187
626,0.0187
627,0.0181
628,0.0190
629,0.0194
630,0.0190
631,0.0193
632,0.0193
633,0.0189
634,0.0188
635,0.0193
636,0.0191
637,0.0194
638,0.0183
639,0.0190
640,0.0193
641,0.0192
642,0.0183
643,0.0186
644,0.0187
645,0.0189
646,0.0198
647,0.0184
648,0.0190
649,0.0190
650,0.0180
651,0.0181
652,0.0174
653,0.0185
654,0.0173
655,0.0177
656,0.0178
657,0.0171
658,0.0176
659,0.0168
660,0.0164
661,0.0171
662,0.0177
663,0.0177
664,0.0178
665,0.0167
666,0.0162
667,0.0173
668,0.0179
669,0.0169
670,0.0179
671,0.0166
672,0.0171
673,0.0170
674,0.0173
675,0.0171
676,0.0178
677,0.0168
678,0.0170
679,0.0158
680,0.0165
681,0.0173
682,0.0169
683,0.0173
684,0.0176
685,0.0167
686,0.0170
687,0.0171
688,0.0173
689,0.0177
690,0.0174
691,0.0176
692,0.0168
693,0.0168
694,0.0173
695,0.0178
696,0.0170
697,0.0173
698,0.0174
699,0.0175
700,0.0175
701,0.0172
702,0.0169
703,0.0174
704,0.0169
705,0.0167
706,0.0171
707,0.0164
708,0.0169
709,0.0173
710,0.0159
711,0.0167
712,0.0163
713,0.0176
714,0.0165
715,0.0171
716,0.0170
717,0.0169
718,0.0173
719,0.0167
720,0.0165
721,0.0159
722,0.0147
723,0.0158
724,0.0153
725,0.0152
726,0.0153
727,0.0151
728,0.0149
729,0.0146
730,0.0153
731,0.0148
732,0.0151
733,0.0148
734,0.0151
735,0.0155
736,0.0148
737,0.0146
738,0.0143
739,0.0152
740,0.0140
741,0.0142
742,0.0143
743,0.0152
744,0.0135
745,0.0146
746,0.0152
747,0.0144
748,0.0149
749,0.0141
750,0.0137
751,0.0159
752,0.0150
753,0.0151
754,0.0148
755,0.0146
756,0.0150
757,0.0152
758,0.0142
759,0.0152
760,0.0150
761,0.0148
762,0.0140
763,0.0150
764,0.0143
765,0.0149
766,0.0143
767,0.0143
768,0.0142
769,0.0138
770,0.0138
771,0.0153
772,0.0141
773,0.0136
774,0.0153
775,0.0136
776,0.0155
777,0.0146
778,0.0144
779,0.0148
780,0.0146
781,0.0139
782,0.0147
783,0.0143
784,0.0144
785,0.0146
786,0.0151
787,0.0141
788,0.0148
789,0.0141
790,0.0149
791,0.0134
792,0.0127
793,0.0128
794,0.0141
795,0.0134
796,0.0140
797,0.0149
798,0.0141
799,0.0140
800,0.0143
801,0.0142
802,0.0141
803,0.0152
804,0.0145
805,0.0138
806,0.0140
807,0.0148
808,0.0150
809,0.0147
810,0.0156
811,0.0155
812,0.0146
813,0.0153
814,0.0145
815,0.0150
816,0.0165
817,0.0147
818,0.0162
819,0.0160
820,0.0167
821,0.0158
822,0.0159
823,0.0152
824,0.0152
825,0.0165
826,0.0155
827,0.0146
828,0.0156
829,0.0162
830,0.0148
831,0.0155
832,0.0144
833,0.0149
834,0.0146
835,0.0149
836,0.0151
837,0.0141
838,0.0145
839,0.0136
840,0.0120
841,0.0130
842,0.0149
843,0.0122
844,0.0132
845,0.0138
846,0.0132
847,0.0134
848,0.0138
849,0.0129
850,0.0125
851,0.0138
852,0.0128
853,0.0124
854,0.0136
855,0.0140
856,0.0132
857,0.0127
858,0.0126
859,0.0125
860,0.0120
861,0.0122
862,0.0128
863,0.0145
864,0.0117
865,0.0125
866,0.0123
867,0.0129
868,0.0116
869,0.0105
870,0.0123
871,0.0125
872,0.0132
873,0.0117
874,0.0111
875,0.0114
876,0.0114
877,0.0122
878,0.0115
879,0.0129
880,0.0125
881,0.0115
882,0.0122
883,0.0113
884,0.0117
885,0.0137
886,0.0134
887,0.0136
888,0.0126
889,0.0132
890,0.0158
891,0.0128
892,0.0162
893,0.0157
894,0.0145
895,0.0134
896,0.0143
897,0.0137
898,0.0150
899,0.0147
900,0.0175
901,0.0164
902,0.0130
903,0.0134
904,0.0168
905,0.0152
906,0.0163
907,0.0171
908,0.0179
909,0.0167
910,0.0181
911,0.0120
912,0.0168
913,0.0159
914,0.0151
915,0.0144
916,0.0152
917,0.0131
918,0.0119
919,0.0133
920,0.0146
921,0.0111
922,0.0123
923,0.0122
924,0.0121
925,0.0119
926,0.0103
927,0.0092
928,0.0094
929,0.0123
930,0.0107
931,0.0100
932,0.0088
933,0.0047
934,0.0076
935,0.0076
936,0.0050
937,0.0056
938,0.0045
939,0.0056
940,0.0044
941,0.0033
942,0.0020
943,0.0020
944,0.0027
945,0.0036
946,0.0027
947,0.0132
