382,NaN
383,1.0000
384,0.0000
385,0.0000
386,0.0000
387,0.0252
388,0.1537
389,0.0000
390,0.0000
391,0.0653
392,0.0000
393,0.0000
394,0.0000
395,0.0000
396,0.0000
397,0.0000
398,0.0000
399,0.0000
400,0.0000
401,0.1853
402,0.0000
403,0.1354
404,0.0000
405,0.0000
406,0.0080
407,0.0000
408,0.0166
409,0.0000
410,0.0464
411,0.1590
412,0.0342
413,0.0416
414,0.0839
415,0.0196
416,0.0000
417,0.0076
418,0.0000
419,0.0000
420,0.0462
421,0.0186
422,0.0094
423,0.0107
424,0.0000
425,0.0224
426,0.0553
427,0.0000
428,0.0000
429,0.0000
430,0.0440
431,0.0341
432,0.0325
433,0.0000
434,0.0113
435,0.0201
436,0.0174
437,0.0523
438,0.0396
439,0.0153
440,0.0278
441,0.0166
442,0.0222
443,0.0389
444,0.0265
445,0.0210
446,0.0147
447,0.0371
448,0.0130
449,0.0513
450,0.0306
451,0.0082
452,0.0000
453,0.0312
454,0.0159
455,0.0269
456,0.0162
457,0.0103
458,0.0065
459,0.0140
460,0.0196
461,0.0291
462,0.0159
463,0.0326
464,0.0112
465,0.0079
466,0.0204
467,0.0272
468,0.0201
469,0.0285
470,0.0271
471,0.0183
472,0.0256
473,0.0211
474,0.0176
475,0.0247
476,0.0330
477,0.0387
478,0.0319
479,0.0423
480,0.0314
481,0.0319
482,0.0222
483,0.0306
484,0.0231
485,0.0329
486,0.0222
487,0.0338
488,0.0299
489,0.0268
490,0.0336
491,0.0318
492,0.0301
493,0.0351
494,0.0303
495,0.0314
496,0.0355
497,0.0332
498,0.0362
499,0.0310
500,0.0333
501,0.0306
502,0.0279
503,0.0294
504,0.0272
505,0.0283
506,0.0273
507,0.0276
508,0.0263
509,0.0304
510,0.0276
511,0.0220
512,0.0251
513,0.0210
514,0.0243
515,0.0240
516,0.0238
517,0.0251
518,0.0186
519,0.0222
520,0.0222
521,0.0187
522,0.0207
523,0.0189
524,0.0212
525,0.0179
526,0.0193
527,0.0212
528,0.0198
529,0.0196
530,0.0185
531,0.0176
532,0.0208
533,0.0182
534,0.0211
535,0.0179
536,0.0207
537,0.0186
538,0.0191
539,0.0188
540,0.0206
541,0.0200
542,0.0201
543,0.0194
544,0.0179
545,0.0172
546,0.0206
547,0.0216
548,0.0194
549,0.0198
550,0.0197
551,0.0186
552,0.0195
553,0.0206
554,0.0197
555,0.0193
556,0.0198
557,0.0197
558,0.0196
559,0.0194
560,0.0195
561,0.0198
562,0.0197
563,0.0204
564,0.0201
565,0.0207
566,0.0189
567,0.0205
568,0.0203
569,0.0218
570,0.0214
571,0.0209
572,0.0205
573,0.0195
574,0.0207
575,0.0201
576,0.0207
577,0.0201
578,0.0197
579,0.0205
580,0.0204
581,0.0193
582,0.0194
583,0.0194
584,0.0198
585,0.0201
586,0.0202
587,0.0190
588,0.0204
589,0.0183
590,0.0199
591,0.0196
592,0.0195
593,0.0196
594,0.0193
595,0.0193
596,0.0190
597,0.0198
598,0.0200
599,0.0193
600,0.0186
601,0.0185
602,0.0197
603,0.0191
604,0.0195
605,0.0186
606,0.0181
607,0.0197
608,0.0193
609,0.0192
610,0.0193
611,0.0201
612,0.0193
613,0.0189
614,0.0188
615,0.0188
616,0.0185
617,0.0182
618,0.0190
619,0.0186
620,0.0189
621,0.0183
622,0.0189
623,0.0197
624,0.0189
625,0.0185
626,0.0185
627,0.0201
628,0.0192
629,0.0195
630,0.0198
631,0.0192
632,0.0188
633,0.0186
634,0.0196
635,0.0190
636,0.0194
637,0.0188
638,0.0192
639,0.0191
640,0.0196
641,0.0197
642,0.0189
643,0.0182
644,0.0186
645,0.0184
646,0.0190
647,0.0183
648,0.0193
649,0.0183
650,0.0181
651,0.0181
652,0.0184
653,0.0183
654,0.0177
655,0.0187
656,0.0169
657,0.0176
658,0.0178
659,0.0166
660,0.0166
661,0.0166
662,0.0174
663,0.0172
664,0.0176
665,0.0172
666,0.0168
667,0.0174
668,0.0172
669,0.0174
670,0.0172
671,0.0175
672,0.0181
673,0.0176
674,0.0168
675,0.0173
676,0.0178
677,0.0172
678,0.0173
679,0.0171
680,0.0172
681,0.0170
682,0.0171
683,0.0182
684,0.0180
685,0.0176
686,0.0176
687,0.0177
688,0.0174
689,0.0176
690,0.0176
691,0.0174
692,0.0179
693,0.0170
694,0.0179
695,0.0167
696,0.0178
697,0.0177
698,0.0170
699,0.0172
700,0.0168
701,0.0168
702,0.0169
703,0.0171
704,0.0155
705,0.0163
706,0.0161
707,0.0165
708,0.0171
709,0.0167
710,0.0164
711,0.0177
712,0.0165
713,0.0175
714,0.0167
715,0.0169
716,0.0172
717,0.0173
718,0.0157
719,0.0167
720,0.0163
721,0.0151
722,0.0152
723,0.0157
724,0.0156
725,0.0158
726,0.0157
727,0.0156
728,0.0152
729,0.0151
730,0.0149
731,0.0156
732,0.0156
733,0.0146
734,0.0150
735,0.0150
736,0.0148
737,0.0150
738,0.0150
739,0.0141
740,0.0136
741,0.0144
742,0.0138
743,0.0144
744,0.0143
745,0.0143
746,0.0155
747,0.0150
748,0.0152
749,0.0144
750,0.0140
751,0.0152
752,0.0151
753,0.0144
754,0.0148
755,0.0148
756,0.0148
757,0.0150
758,0.0140
759,0.0154
760,0.0150
761,0.0151
762,0.0148
763,0.0146
764,0.0145
765,0.0154
766,0.0150
767,0.0141
768,0.0139
769,0.0151
770,0.0143
771,0.0151
772,0.0144
773,0.0148
774,0.0150
775,0.0147
776,0.0146
777,0.0151
778,0.0150
779,0.0160
780,0.0152
781,0.0141
782,0.0146
783,0.0143
784,0.0139
785,0.0146
786,0.0153
787,0.0146
788,0.0153
789,0.0141
790,0.0144
791,0.0133
792,0.0138
793,0.0133
794,0.0139
795,0.0144
796,0.0140
797,0.0149
798,0.0142
799,0.0138
800,0.0149
801,0.0137
802,0.0141
803,0.0158
804,0.0133
805,0.0150
806,0.0140
807,0.0165
808,0.0149
809,0.0152
810,0.0159
811,0.0157
812,0.0140
813,0.0159
814,0.0144
815,0.0148
816,0.0150
817,0.0155
818,0.0160
819,0.0156
820,0.0174
821,0.0162
822,0.0163
823,0.0154
824,0.0153
825,0.0158
826,0.0153
827,0.0143
828,0.0142
829,0.0153
830,0.0153
831,0.0153
832,0.0136
833,0.0143
834,0.0141
835,0.0149
836,0.0148
837,0.0139
838,0.0141
839,0.0141
840,0.0127
841,0.0140
842,0.0141
843,0.0124
844,0.0136
845,0.0135
846,0.0125
847,0.0134
848,0.0139
849,0.0122
850,0.0128
851,0.0140
852,0.0134
853,0.0129
854,0.0132
855,0.0124
856,0.0124
857,0.0136
858,0.0128
859,0.0116
860,0.0107
861,0.0131
862,0.0139
863,0.0136
864,0.0124
865,0.0124
866,0.0134
867,0.0123
868,0.0113
869,0.0104
870,0.0119
871,0.0125
872,0.0135
873,0.0110
874,0.0113
875,0.0109
876,0.0119
877,0.0124
878,0.0107
879,0.0128
880,0.0131
881,0.0109
882,0.0130
883,0.0123
884,0.0120
885,0.0128
886,0.0127
887,0.0127
888,0.0123
889,0.0130
890,0.0154
891,0.0129
892,0.0123
893,0.0154
894,0.0152
895,0.0138
896,0.0147
897,0.0142
898,0.0144
899,0.0139
900,0.0156
901,0.0150
902,0.0120
903,0.0136
904,0.0171
905,0.0158
906,0.0157
907,0.0176
908,0.0158
909,0.0167
910,0.0167
911,0.0138
912,0.0166
913,0.0124
914,0.0153
915,0.0134
916,0.0167
917,0.0116
918,0.0150
919,0.0130
920,0.0143
921,0.0127
922,0.0109
923,0.0130
924,0.0113
925,0.0111
926,0.0125
927,0.0112
928,0.0087
929,0.0125
930,0.0114
931,0.0081
932,0.0096
933,0.0075
934,0.0089
935,0.0072
936,0.0048
937,0.0049
938,0.0067
939,0.0040
940,0.0049
941,0.0034
942,0.0033
943,0.0035
944,0.0016
945,0.0022
946,0.0016
947,0.0041
