382,NaN
383,0.0303
384,0.0584
385,1.0000
386,0.0000
387,0.2099
388,0.0330
389,0.0357
390,0.0000
391,0.0980
392,0.2395
393,0.0843
394,0.0000
395,0.0000
396,0.1442
397,0.0000
398,0.0000
399,0.0000
400,0.1493
401,0.3288
402,0.0000
403,0.0323
404,0.0000
405,0.0765
406,0.0000
407,0.0000
408,0.0182
409,0.0110
410,0.0335
411,0.0631
412,0.0460
413,0.0000
414,0.0000
415,0.0375
416,0.0106
417,0.0103
418,0.0245
419,0.0922
420,0.0146
421,0.0000
422,0.0000
423,0.0050
424,0.0000
425,0.0016
426,0.0507
427,0.0000
428,0.0000
429,0.0001
430,0.0367
431,0.0418
432,0.0158
433,0.0000
434,0.0054
435,0.0099
436,0.0151
437,0.0331
438,0.0191
439,0.0233
440,0.0031
441,0.0255
442,0.0289
443,0.0379
444,0.0187
445,0.0277
446,0.0019
447,0.0235
448,0.0000
449,0.0369
450,0.0169
451,0.0081
452,0.0071
453,0.0388
454,0.0217
455,0.0264
456,0.0197
457,0.0186
458,0.0197
459,0.0213
460,0.0239
461,0.0179
462,0.0158
463,0.0333
464,0.0139
465,0.0191
466,0.0165
467,0.0077
468,0.0120
469,0.0206
470,0.0147
471,0.0148
472,0.0257
473,0.0200
474,0.0258
475,0.0275
476,0.0270
477,0.0417
478,0.0326
479,0.0364
480,0.0315
481,0.0270
482,0.0258
483,0.0289
484,0.0270
485,0.0300
486,0.0296
487,0.0353
488,0.0246
489,0.0220
490,0.0344
491,0.0331
492,0.0258
493,0.0362
494,0.0293
495,0.0350
496,0.0334
497,0.0335
498,0.0333
499,0.0281
500,0.0316
501,0.0283
502,0.0299
503,0.0259
504,0.0294
505,0.0240
506,0.0293
507,0.0286
508,0.0262
509,0.0273
510,0.0283
511,0.0217
512,0.0237
513,0.0270
514,0.0224
515,0.0238
516,0.0227
517,0.0229
518,0.0215
519,0.0208
520,0.0224
521,0.0204
522,0.0200
523,0.0191
524,0.0221
525,0.0198
526,0.0181
527,0.0200
528,0.0187
529,0.0205
530,0.0190
531,0.0178
532,0.0200
533,0.0191
534,0.0211
535,0.0195
536,0.0202
537,0.0195
538,0.0200
539,0.0192
540,0.0188
541,0.0183
542,0.0183
543,0.0186
544,0.0186
545,0.0190
546,0.0205
547,0.0203
548,0.0197
549,0.0181
550,0.0192
551,0.0187
552,0.0184
553,0.0188
554,0.0197
555,0.0186
556,0.0194
557,0.0187
558,0.0199
559,0.0193
560,0.0180
561,0.0185
562,0.0197
563,0.0197
564,0.0201
565,0.0203
566,0.0198
567,0.0206
568,0.0197
569,0.0218
570,0.0215
571,0.0224
572,0.0202
573,0.0204
574,0.0204
575,0.0204
576,0.0202
577,0.0209
578,0.0190
579,0.0209
580,0.0212
581,0.0189
582,0.0197
583,0.0193
584,0.0195
585,0.0193
586,0.0196
587,0.0192
588,0.0193
589,0.0190
590,0.0194
591,0.0193
592,0.0194
593,0.0197
594,0.0191
595,0.0180
596,0.0184
597,0.0179
598,0.0183
599,0.0187
600,0.0186
601,0.0192
602,0.0191
603,0.0184
604,0.0191
605,0.0183
606,0.0179
607,0.0188
608,0.0197
609,0.0186
610,0.0184
611,0.0190
612,0.0191
613,0.0189
614,0.0185
615,0.0187
616,0.0182
617,0.0181
618,0.0186
619,0.0193
620,0.0183
621,0.0186
622,0.0198
623,0.0192
624,0.0196
625,0.0189
626,0.0188
627,0.0190
628,0.0194
629,0.0196
630,0.0197
631,0.0193
632,0.0181
633,0.0183
634,0.0191
635,0.0191
636,0.0183
637,0.0182
638,0.0191
639,0.0187
640,0.0193
641,0.0194
642,0.0186
643,0.0181
644,0.0185
645,0.0189
646,0.0186
647,0.0187
648,0.0191
649,0.0182
650,0.0182
651,0.0177
652,0.0179
653,0.0182
654,0.0175
655,0.0184
656,0.0177
657,0.0176
658,0.0180
659,0.0163
660,0.0171
661,0.0169
662,0.0169
663,0.0176
664,0.0170
665,0.0171
666,0.0170
667,0.0172
668,0.0168
669,0.0171
670,0.0170
671,0.0176
672,0.0167
673,0.0166
674,0.0166
675,0.0178
676,0.0177
677,0.0163
678,0.0174
679,0.0165
680,0.0168
681,0.0168
682,0.0163
683,0.0172
684,0.0172
685,0.0170
686,0.0171
687,0.0170
688,0.0168
689,0.0176
690,0.0173
691,0.0172
692,0.0173
693,0.0172
694,0.0176
695,0.0170
696,0.0171
697,0.0173
698,0.0176
699,0.0178
700,0.0178
701,0.0172
702,0.0170
703,0.0166
704,0.0155
705,0.0164
706,0.0161
707,0.0165
708,0.0174
709,0.0174
710,0.0162
711,0.0178
712,0.0168
713,0.0168
714,0.0170
715,0.0178
716,0.0166
717,0.0166
718,0.0166
719,0.0159
720,0.0163
721,0.0152
722,0.0152
723,0.0163
724,0.0151
725,0.0148
726,0.0157
727,0.0156
728,0.0151
729,0.0146
730,0.0147
731,0.0149
732,0.0155
733,0.0143
734,0.0145
735,0.0154
736,0.0150
737,0.0142
738,0.0140
739,0.0144
740,0.0144
741,0.0146
742,0.0144
743,0.0141
744,0.0145
745,0.0139
746,0.0152
747,0.0146
748,0.0145
749,0.0144
750,0.0137
751,0.0153
752,0.0145
753,0.0149
754,0.0141
755,0.0152
756,0.0145
757,0.0151
758,0.0145
759,0.0152
760,0.0154
761,0.0144
762,0.0148
763,0.0152
764,0.0154
765,0.0146
766,0.0148
767,0.0145
768,0.0148
769,0.0143
770,0.0138
771,0.0141
772,0.0146
773,0.0140
774,0.0145
775,0.0140
776,0.0140
777,0.0138
778,0.0141
779,0.0149
780,0.0138
781,0.0145
782,0.0142
783,0.0145
784,0.0132
785,0.0144
786,0.0140
787,0.0139
788,0.0142
789,0.0135
790,0.0146
791,0.0135
792,0.0149
793,0.0134
794,0.0142
795,0.0135
796,0.0133
797,0.0150
798,0.0144
799,0.0139
800,0.0146
801,0.0134
802,0.0132
803,0.0148
804,0.0142
805,0.0136
806,0.0143
807,0.0147
808,0.0151
809,0.0150
810,0.0157
811,0.0155
812,0.0144
813,0.0159
814,0.0150
815,0.0151
816,0.0160
817,0.0150
818,0.0165
819,0.0168
820,0.0161
821,0.0170
822,0.0151
823,0.0150
824,0.0147
825,0.0162
826,0.0164
827,0.0145
828,0.0146
829,0.0149
830,0.0148
831,0.0153
832,0.0141
833,0.0133
834,0.0148
835,0.0154
836,0.0154
837,0.0143
838,0.0136
839,0.0135
840,0.0130
841,0.0129
842,0.0140
843,0.0129
844,0.0137
845,0.0127
846,0.0132
847,0.0136
848,0.0127
849,0.0139
850,0.0130
851,0.0133
852,0.0122
853,0.0119
854,0.0130
855,0.0131
856,0.0116
857,0.0137
858,0.0123
859,0.0125
860,0.0122
861,0.0123
862,0.0125
863,0.0142
864,0.0120
865,0.0116
866,0.0128
867,0.0127
868,0.0114
869,0.0110
870,0.0111
871,0.0126
872,0.0114
873,0.0108
874,0.0111
875,0.0106
876,0.0117
877,0.0111
878,0.0104
879,0.0122
880,0.0125
881,0.0114
882,0.0131
883,0.0130
884,0.0121
885,0.0121
886,0.0124
887,0.0112
888,0.0105
889,0.0137
890,0.0134
891,0.0123
892,0.0122
893,0.0154
894,0.0152
895,0.0134
896,0.0133
897,0.0148
898,0.0133
899,0.0149
900,0.0154
901,0.0140
902,0.0129
903,0.0150
904,0.0168
905,0.0139
906,0.0168
907,0.0172
908,0.0160
909,0.0161
910,0.0168
911,0.0139
912,0.0179
913,0.0146
914,0.0136
915,0.0157
916,0.0146
917,0.0125
918,0.0127
919,0.0136
920,0.0156
921,0.0112
922,0.0101
923,0.0097
924,0.0110
925,0.0105
926,0.0106
927,0.0103
928,0.0109
929,0.0113
930,0.0110
931,0.0089
932,0.0076
933,0.0080
934,0.0069
935,0.0077
936,0.0049
937,0.0054
938,0.0036
939,0.0042
940,0.0030
941,0.0004
942,0.0036
943,0.0032
944,0.0029
945,0.0025
946,0.0032
947,0.0105
