382,NaN
383,1.0000
384,1.0000
385,1.0000
386,0.0000
387,0.1274
388,0.1458
389,0.0000
390,0.0000
391,0.0000
392,0.0000
393,0.0356
394,0.0000
395,0.0000
396,0.0128
397,0.0000
398,0.0000
399,0.0000
400,0.0229
401,0.1495
402,0.0000
403,0.0082
404,0.0000
405,0.0024
406,0.0591
407,0.0000
408,0.0000
409,0.0049
410,0.1255
411,0.0942
412,0.0594
413,0.0269
414,0.0284
415,0.0000
416,0.0131
417,0.1094
418,0.0000
419,0.0378
420,0.0248
421,0.0203
422,0.0000
423,0.0214
424,0.0000
425,0.0000
426,0.0145
427,0.0000
428,0.0000
429,0.0000
430,0.0488
431,0.0143
432,0.0349
433,0.0359
434,0.0318
435,0.0144
436,0.0098
437,0.0546
438,0.0381
439,0.0004
440,0.0221
441,0.0296
442,0.0393
443,0.0581
444,0.0212
445,0.0034
446,0.0135
447,0.0321
448,0.0000
449,0.0256
450,0.0275
451,0.0227
452,0.0194
453,0.0305
454,0.0394
455,0.0210
456,0.0153
457,0.0082
458,0.0184
459,0.0193
460,0.0236
461,0.0206
462,0.0201
463,0.0382
464,0.0238
465,0.0232
466,0.0172
467,0.0162
468,0.0392
469,0.0275
470,0.0163
471,0.0180
472,0.0266
473,0.0246
474,0.0169
475,0.0233
476,0.0214
477,0.0323
478,0.0314
479,0.0392
480,0.0347
481,0.0355
482,0.0245
483,0.0267
484,0.0218
485,0.0361
486,0.0245
487,0.0360
488,0.0248
489,0.0293
490,0.0381
491,0.0325
492,0.0300
493,0.0392
494,0.0294
495,0.0408
496,0.0349
497,0.0300
498,0.0382
499,0.0313
500,0.0349
501,0.0309
502,0.0281
503,0.0302
504,0.0308
505,0.0308
506,0.0320
507,0.0295
508,0.0276
509,0.0271
510,0.0254
511,0.0242
512,0.0255
513,0.0238
514,0.0245
515,0.0230
516,0.0227
517,0.0259
518,0.0223
519,0.0213
520,0.0232
521,0.0207
522,0.0223
523,0.0206
524,0.0216
525,0.0197
526,0.0210
527,0.0208
528,0.0180
529,0.0198
530,0.0191
531,0.0189
532,0.0196
533,0.0208
534,0.0213
535,0.0179
536,0.0204
537,0.0195
538,0.0185
539,0.0204
540,0.0221
541,0.0195
542,0.0211
543,0.0202
544,0.0186
545,0.0195
546,0.0207
547,0.0210
548,0.0193
549,0.0194
550,0.0197
551,0.0189
552,0.0213
553,0.0199
554,0.0202
555,0.0201
556,0.0206
557,0.0208
558,0.0192
559,0.0200
560,0.0197
561,0.0200
562,0.0214
563,0.0201
564,0.0204
565,0.0205
566,0.0186
567,0.0207
568,0.0212
569,0.0214
570,0.0222
571,0.0219
572,0.0215
573,0.0220
574,0.0214
575,0.0202
576,0.0211
577,0.0218
578,0.0208
579,0.0225
580,0.0219
581,0.0190
582,0.0195
583,0.0195
584,0.0203
585,0.0207
586,0.0203
587,0.0196
588,0.0201
589,0.0195
590,0.0201
591,0.0193
592,0.0198
593,0.0196
594,0.0204
595,0.0190
596,0.0195
597,0.0196
598,0.0201
599,0.0194
600,0.0206
601,0.0197
602,0.0202
603,0.0194
604,0.0197
605,0.0201
606,0.0189
607,0.0205
608,0.0198
609,0.0200
610,0.0191
611,0.0200
612,0.0201
613,0.0210
614,0.0193
615,0.0195
616,0.0192
617,0.0185
618,0.0192
619,0.0193
620,0.0189
621,0.0198
622,0.0200
623,0.0200
624,0.0201
625,0.0196
626,0.0190
627,0.0199
628,0.0198
629,0.0206
630,0.0194
631,0.0198
632,0.0187
633,0.0188
634,0.0193
635,0.0192
636,0.0199
637,0.0203
638,0.0198
639,0.0195
640,0.0206
641,0.0202
642,0.0197
643,0.0190
644,0.0192
645,0.0190
646,0.0194
647,0.0193
648,0.0197
649,0.0181
650,0.0192
651,0.0187
652,0.0189
653,0.0192
654,0.0186
655,0.0181
656,0.0174
657,0.0179
658,0.0180
659,0.0174
660,0.0170
661,0.0175
662,0.0181
663,0.0184
664,0.0172
665,0.0185
666,0.0178
667,0.0178
668,0.0176
669,0.0179
670,0.0180
671,0.0181
672,0.0173
673,0.0182
674,0.0173
675,0.0181
676,0.0180
677,0.0181
678,0.0182
679,0.0171
680,0.0175
681,0.0176
682,0.0183
683,0.0181
684,0.0178
685,0.0185
686,0.0174
687,0.0168
688,0.0182
689,0.0190
690,0.0180
691,0.0181
692,0.0180
693,0.0178
694,0.0181
695,0.0171
696,0.0180
697,0.0188
698,0.0178
699,0.0184
700,0.0186
701,0.0176
702,0.0177
703,0.0173
704,0.0172
705,0.0172
706,0.0175
707,0.0172
708,0.0184
709,0.0173
710,0.0168
711,0.0176
712,0.0171
713,0.0171
714,0.0169
715,0.0176
716,0.0176
717,0.0170
718,0.0168
719,0.0162
720,0.0162
721,0.0159
722,0.0156
723,0.0166
724,0.0156
725,0.0161
726,0.0161
727,0.0163
728,0.0156
729,0.0160
730,0.0154
731,0.0157
732,0.0163
733,0.0155
734,0.0161
735,0.0162
736,0.0156
737,0.0153
738,0.0155
739,0.0155
740,0.0148
741,0.0152
742,0.0155
743,0.0152
744,0.0146
745,0.0148
746,0.0157
747,0.0149
748,0.0152
749,0.0147
750,0.0140
751,0.0153
752,0.0150
753,0.0147
754,0.0152
755,0.0147
756,0.0148
757,0.0150
758,0.0144
759,0.0146
760,0.0157
761,0.0153
762,0.0155
763,0.0149
764,0.0149
765,0.0151
766,0.0145
767,0.0149
768,0.0143
769,0.0146
770,0.0148
771,0.0156
772,0.0146
773,0.0152
774,0.0165
775,0.0145
776,0.0163
777,0.0151
778,0.0144
779,0.0159
780,0.0150
781,0.0156
782,0.0151
783,0.0148
784,0.0141
785,0.0146
786,0.0147
787,0.0146
788,0.0159
789,0.0152
790,0.0149
791,0.0139
792,0.0146
793,0.0150
794,0.0150
795,0.0153
796,0.0144
797,0.0147
798,0.0135
799,0.0149
800,0.0153
801,0.0145
802,0.0151
803,0.0164
804,0.0151
805,0.0148
806,0.0153
807,0.0162
808,0.0156
809,0.0153
810,0.0166
811,0.0159
812,0.0149
813,0.0166
814,0.0150
815,0.0161
816,0.0153
817,0.0160
818,0.0159
819,0.0159
820,0.0166
821,0.0166
822,0.0165
823,0.0144
824,0.0160
825,0.0166
826,0.0148
827,0.0152
828,0.0157
829,0.0154
830,0.0141
831,0.0164
832,0.0150
833,0.0149
834,0.0151
835,0.0154
836,0.0150
837,0.0143
838,0.0146
839,0.0139
840,0.0131
841,0.0137
842,0.0148
843,0.0143
844,0.0146
845,0.0137
846,0.0133
847,0.0133
848,0.0132
849,0.0130
850,0.0139
851,0.0133
852,0.0151
853,0.0141
854,0.0143
855,0.0140
856,0.0128
857,0.0137
858,0.0137
859,0.0126
860,0.0123
861,0.0131
862,0.0132
863,0.0148
864,0.0121
865,0.0128
866,0.0132
867,0.0134
868,0.0125
869,0.0118
870,0.0121
871,0.0111
872,0.0129
873,0.0121
874,0.0114
875,0.0126
876,0.0124
877,0.0136
878,0.0121
879,0.0130
880,0.0133
881,0.0115
882,0.0131
883,0.0128
884,0.0122
885,0.0125
886,0.0128
887,0.0139
888,0.0115
889,0.0134
890,0.0145
891,0.0131
892,0.0139
893,0.0147
894,0.0150
895,0.0153
896,0.0134
897,0.0140
898,0.0167
899,0.0129
900,0.0165
901,0.0159
902,0.0131
903,0.0156
904,0.0158
905,0.0152
906,0.0170
907,0.0183
908,0.0179
909,0.0167
910,0.0160
911,0.0156
912,0.0194
913,0.0140
914,0.0141
915,0.0157
916,0.0168
917,0.0130
918,0.0146
919,0.0119
920,0.0133
921,0.0127
922,0.0128
923,0.0114
924,0.0123
925,0.0119
926,0.0113
927,0.0118
928,0.0117
929,0.0128
930,0.0100
931,0.0099
932,0.0099
933,0.0083
934,0.0086
935,0.0078
936,0.0051
937,0.0064
938,0.0073
939,0.0038
940,0.0042
941,0.0023
942,0.0054
943,0.0023
944,0.0028
945,0.0036
946,0.0000
947,0.0039
