382,NaN
383,1.0000
384,0.4426
385,1.0000
386,0.0000
387,0.2499
388,0.2637
389,0.0000
390,0.0000
391,0.0735
392,0.0935
393,0.0728
394,0.0000
395,0.0000
396,0.2350
397,0.0000
398,0.0000
399,0.0348
400,0.1372
401,0.2272
402,0.0000
403,0.0122
404,0.0022
405,0.0043
406,0.0000
407,0.0000
408,0.0471
409,0.0000
410,0.0898
411,0.0166
412,0.0171
413,0.0000
414,0.0049
415,0.0041
416,0.0000
417,0.0474
418,0.0000
419,0.0000
420,0.0327
421,0.0226
422,0.0000
423,0.0000
424,0.0211
425,0.0000
426,0.0568
427,0.0000
428,0.0000
429,0.0058
430,0.0546
431,0.0118
432,0.0180
433,0.0027
434,0.0154
435,0.0000
436,0.0214
437,0.0629
438,0.0258
439,0.0100
440,0.0123
441,0.0480
442,0.0315
443,0.0431
444,0.0249
445,0.0260
446,0.0479
447,0.0354
448,0.0283
449,0.0544
450,0.0280
451,0.0309
452,0.0015
453,0.0418
454,0.0340
455,0.0370
456,0.0153
457,0.0217
458,0.0149
459,0.0193
460,0.0270
461,0.0326
462,0.0233
463,0.0411
464,0.0308
465,0.0002
466,0.0149
467,0.0289
468,0.0352
469,0.0383
470,0.0234
471,0.0160
472,0.0362
473,0.0361
474,0.0273
475,0.0287
476,0.0429
477,0.0400
478,0.0266
479,0.0388
480,0.0376
481,0.0272
482,0.0281
483,0.0318
484,0.0275
485,0.0438
486,0.0348
487,0.0411
488,0.0403
489,0.0318
490,0.0492
491,0.0443
492,0.0463
493,0.0463
494,0.0446
495,0.0436
496,0.0435
497,0.0394
498,0.0478
499,0.0379
500,0.0379
501,0.0369
502,0.0363
503,0.0349
504,0.0332
505,0.0283
506,0.0326
507,0.0358
508,0.0296
509,0.0332
510,0.0333
511,0.0287
512,0.0301
513,0.0308
514,0.0314
515,0.0303
516,0.0316
517,0.0311
518,0.0265
519,0.0293
520,0.0283
521,0.0252
522,0.0269
523,0.0257
524,0.0262
525,0.0229
526,0.0242
527,0.0234
528,0.0224
529,0.0236
530,0.0218
531,0.0224
532,0.0216
533,0.0221
534,0.0229
535,0.0226
536,0.0234
537,0.0233
538,0.0234
539,0.0239
540,0.0242
541,0.0239
542,0.0245
543,0.0250
544,0.0253
545,0.0233
546,0.0276
547,0.0242
548,0.0249
549,0.0239
550,0.0235
551,0.0224
552,0.0229
553,0.0214
554,0.0236
555,0.0219
556,0.0240
557,0.0221
558,0.0218
559,0.0228
560,0.0216
561,0.0203
562,0.0221
563,0.0225
564,0.0221
565,0.0240
566,0.0222
567,0.0229
568,0.0228
569,0.0251
570,0.0258
571,0.0258
572,0.0256
573,0.0257
574,0.0254
575,0.0253
576,0.0255
577,0.0256
578,0.0243
579,0.0252
580,0.0251
581,0.0243
582,0.0236
583,0.0233
584,0.0234
585,0.0224
586,0.0235
587,0.0231
588,0.0222
589,0.0220
590,0.0225
591,0.0218
592,0.0214
593,0.0211
594,0.0215
595,0.0214
596,0.0213
597,0.0209
598,0.0218
599,0.0231
600,0.0219
601,0.0222
602,0.0226
603,0.0238
604,0.0224
605,0.0234
606,0.0229
607,0.0238
608,0.0238
609,0.0231
610,0.0235
611,0.0231
612,0.0242
613,0.0236
614,0.0229
615,0.0228
616,0.0230
617,0.0216
618,0.0224
619,0.0232
620,0.0217
621,0.0222
622,0.0228
623,0.0229
624,0.0218
625,0.0224
626,0.0220
627,0.0213
628,0.0217
629,0.0217
630,0.0216
631,0.0218
632,0.0207
633,0.0211
634,0.0216
635,0.0215
636,0.0222
637,0.0232
638,0.0218
639,0.0226
640,0.0228
641,0.0232
642,0.0233
643,0.0238
644,0.0231
645,0.0232
646,0.0234
647,0.0224
648,0.0233
649,0.0225
650,0.0220
651,0.0223
652,0.0224
653,0.0226
654,0.0209
655,0.0219
656,0.0209
657,0.0206
658,0.0208
659,0.0207
660,0.0200
661,0.0199
662,0.0202
663,0.0202
664,0.0189
665,0.0199
666,0.0196
667,0.0192
668,0.0194
669,0.0194
670,0.0193
671,0.0202
672,0.0200
673,0.0189
674,0.0192
675,0.0201
676,0.0205
677,0.0202
678,0.0215
679,0.0194
680,0.0199
681,0.0199
682,0.0200
683,0.0207
684,0.0212
685,0.0214
686,0.0212
687,0.0206
688,0.0208
689,0.0217
690,0.0217
691,0.0220
692,0.0218
693,0.0211
694,0.0217
695,0.0214
696,0.0211
697,0.0213
698,0.0214
699,0.0212
700,0.0214
701,0.0207
702,0.0209
703,0.0199
704,0.0194
705,0.0192
706,0.0201
707,0.0193
708,0.0197
709,0.0203
710,0.0186
711,0.0195
712,0.0190
713,0.0183
714,0.0188
715,0.0191
716,0.0185
717,0.0190
718,0.0187
719,0.0192
720,0.0181
721,0.0179
722,0.0178
723,0.0179
724,0.0178
725,0.0179
726,0.0182
727,0.0180
728,0.0182
729,0.0174
730,0.0174
731,0.0181
732,0.0185
733,0.0178
734,0.0183
735,0.0188
736,0.0191
737,0.0190
738,0.0186
739,0.0183
740,0.0175
741,0.0179
742,0.0175
743,0.0180
744,0.0176
745,0.0188
746,0.0186
747,0.0180
748,0.0182
749,0.0178
750,0.0179
751,0.0183
752,0.0179
753,0.0181
754,0.0175
755,0.0182
756,0.0180
757,0.0175
758,0.0169
759,0.0173
760,0.0177
761,0.0163
762,0.0161
763,0.0166
764,0.0170
765,0.0170
766,0.0171
767,0.0163
768,0.0167
769,0.0163
770,0.0163
771,0.0171
772,0.0163
773,0.0157
774,0.0171
775,0.0163
776,0.0161
777,0.0162
778,0.0164
779,0.0170
780,0.0164
781,0.0164
782,0.0167
783,0.0169
784,0.0170
785,0.0175
786,0.0168
787,0.0168
788,0.0181
789,0.0176
790,0.0170
791,0.0180
792,0.0178
793,0.0168
794,0.0180
795,0.0179
796,0.0185
797,0.0196
798,0.0172
799,0.0172
800,0.0178
801,0.0172
802,0.0176
803,0.0189
804,0.0190
805,0.0169
806,0.0179
807,0.0197
808,0.0188
809,0.0186
810,0.0182
811,0.0184
812,0.0187
813,0.0189
814,0.0185
815,0.0178
816,0.0193
817,0.0176
818,0.0171
819,0.0193
820,0.0198
821,0.0186
822,0.0188
823,0.0184
824,0.0176
825,0.0197
826,0.0177
827,0.0164
828,0.0161
829,0.0161
830,0.0167
831,0.0180
832,0.0179
833,0.0160
834,0.0175
835,0.0168
836,0.0167
837,0.0175
838,0.0165
839,0.0164
840,0.0157
841,0.0159
842,0.0158
843,0.0145
844,0.0155
845,0.0161
846,0.0150
847,0.0153
848,0.0157
849,0.0147
850,0.0145
851,0.0164
852,0.0154
853,0.0151
854,0.0157
855,0.0156
856,0.0142
857,0.0161
858,0.0146
859,0.0156
860,0.0151
861,0.0164
862,0.0159
863,0.0174
864,0.0149
865,0.0142
866,0.0153
867,0.0158
868,0.0154
869,0.0151
870,0.0159
871,0.0143
872,0.0158
873,0.0147
874,0.0143
875,0.0153
876,0.0158
877,0.0148
878,0.0150
879,0.0154
880,0.0159
881,0.0133
882,0.0167
883,0.0152
884,0.0148
885,0.0153
886,0.0161
887,0.0168
888,0.0142
889,0.0165
890,0.0162
891,0.0145
892,0.0138
893,0.0156
894,0.0178
895,0.0174
896,0.0170
897,0.0178
898,0.0168
899,0.0169
900,0.0173
901,0.0180
902,0.0151
903,0.0148
904,0.0177
905,0.0175
906,0.0165
907,0.0204
908,0.0185
909,0.0186
910,0.0203
911,0.0150
912,0.0188
913,0.0156
914,0.0180
915,0.0157
916,0.0171
917,0.0160
918,0.0153
919,0.0134
920,0.0187
921,0.0131
922,0.0138
923,0.0121
924,0.0132
925,0.0135
926,0.0127
927,0.0133
928,0.0124
929,0.0136
930,0.0106
931,0.0112
932,0.0119
933,0.0088
934,0.0117
935,0.0077
936,0.0076
937,0.0057
938,0.0062
939,0.0048
940,0.0048
941,0.0038
942,0.0041
943,0.0041
944,0.0048
945,0.0055
946,0.0031
947,0.0069
