382,NaN
383,1.0000
384,1.0000
385,1.0000
386,0.0000
387,0.0838
388,0.2157
389,0.0142
390,0.0000
391,0.0000
392,0.0960
393,0.1851
394,0.0000
395,0.0000
396,0.0540
397,0.0000
398,0.0109
399,0.0385
400,0.0000
401,0.1786
402,0.0000
403,0.0002
404,0.0374
405,0.0795
406,0.0000
407,0.0592
408,0.0276
409,0.0000
410,0.0334
411,0.0756
412,0.1048
413,0.0941
414,0.0000
415,0.0000
416,0.0086
417,0.0392
418,0.0001
419,0.0272
420,0.0233
421,0.0000
422,0.0000
423,0.0000
424,0.0016
425,0.0000
426,0.0329
427,0.0000
428,0.0431
429,0.0000
430,0.0465
431,0.0567
432,0.0016
433,0.0000
434,0.0146
435,0.0230
436,0.0161
437,0.0438
438,0.0228
439,0.0000
440,0.0319
441,0.0388
442,0.0314
443,0.0370
444,0.0218
445,0.0450
446,0.0286
447,0.0281
448,0.0039
449,0.0469
450,0.0323
451,0.0142
452,0.0056
453,0.0522
454,0.0307
455,0.0199
456,0.0269
457,0.0279
458,0.0183
459,0.0197
460,0.0146
461,0.0403
462,0.0211
463,0.0430
464,0.0137
465,0.0142
466,0.0208
467,0.0205
468,0.0285
469,0.0386
470,0.0315
471,0.0274
472,0.0382
473,0.0396
474,0.0334
475,0.0319
476,0.0238
477,0.0432
478,0.0338
479,0.0482
480,0.0419
481,0.0273
482,0.0397
483,0.0356
484,0.0350
485,0.0432
486,0.0354
487,0.0453
488,0.0327
489,0.0319
490,0.0419
491,0.0458
492,0.0354
493,0.0504
494,0.0444
495,0.0527
496,0.0485
497,0.0417
498,0.0493
499,0.0354
500,0.0441
501,0.0438
502,0.0438
503,0.0336
504,0.0364
505,0.0376
506,0.0354
507,0.0385
508,0.0340
509,0.0340
510,0.0354
511,0.0280
512,0.0340
513,0.0295
514,0.0305
515,0.0319
516,0.0292
517,0.0320
518,0.0265
519,0.0298
520,0.0291
521,0.0264
522,0.0256
523,0.0252
524,0.0272
525,0.0246
526,0.0262
527,0.0272
528,0.0236
529,0.0249
530,0.0237
531,0.0243
532,0.0242
533,0.0228
534,0.0240
535,0.0235
536,0.0233
537,0.0222
538,0.0234
539,0.0227
540,0.0239
541,0.0232
542,0.0233
543,0.0242
544,0.0239
545,0.0235
546,0.0244
547,0.0264
548,0.0247
549,0.0235
550,0.0249
551,0.0235
552,0.0245
553,0.0230
554,0.0251
555,0.0244
556,0.0253
557,0.0241
558,0.0242
559,0.0247
560,0.0244
561,0.0239
562,0.0252
563,0.0239
564,0.0246
565,0.0235
566,0.0227
567,0.0234
568,0.0243
569,0.0241
570,0.0252
571,0.0259
572,0.0244
573,0.0237
574,0.0249
575,0.0235
576,0.0232
577,0.0245
578,0.0233
579,0.0252
580,0.0259
581,0.0252
582,0.0247
583,0.0242
584,0.0232
585,0.0240
586,0.0247
587,0.0248
588,0.0234
589,0.0240
590,0.0251
591,0.0244
592,0.0237
593,0.0234
594,0.0245
595,0.0233
596,0.0229
597,0.0237
598,0.0218
599,0.0241
600,0.0219
601,0.0223
602,0.0236
603,0.0228
604,0.0220
605,0.0221
606,0.0214
607,0.0226
608,0.0227
609,0.0223
610,0.0215
611,0.0230
612,0.0232
613,0.0225
614,0.0215
615,0.0233
616,0.0224
617,0.0224
618,0.0231
619,0.0228
620,0.0234
621,0.0235
622,0.0231
623,0.0238
624,0.0237
625,0.0244
626,0.0240
627,0.0246
628,0.0252
629,0.0247
630,0.0242
631,0.0242
632,0.0230
633,0.0232
634,0.0238
635,0.0229
636,0.0238
637,0.0232
638,0.0223
639,0.0231
640,0.0235
641,0.0231
642,0.0224
643,0.0221
644,0.0219
645,0.0222
646,0.0224
647,0.0223
648,0.0212
649,0.0219
650,0.0211
651,0.0208
652,0.0210
653,0.0221
654,0.0205
655,0.0216
656,0.0214
657,0.0208
658,0.0214
659,0.0201
660,0.0212
661,0.0211
662,0.0208
663,0.0217
664,0.0217
665,0.0221
666,0.0211
667,0.0212
668,0.0204
669,0.0213
670,0.0218
671,0.0218
672,0.0215
673,0.0215
674,0.0214
675,0.0211
676,0.0221
677,0.0218
678,0.0216
679,0.0206
680,0.0213
681,0.0201
682,0.0211
683,0.0211
684,0.0208
685,0.0207
686,0.0215
687,0.0203
688,0.0200
689,0.0214
690,0.0211
691,0.0214
692,0.0203
693,0.0211
694,0.0207
695,0.0199
696,0.0198
697,0.0208
698,0.0198
699,0.0209
700,0.0207
701,0.0207
702,0.0200
703,0.0205
704,0.0196
705,0.0203
706,0.0204
707,0.0193
708,0.0204
709,0.0207
710,0.0202
711,0.0208
712,0.0193
713,0.0199
714,0.0203
715,0.0211
716,0.0204
717,0.0210
718,0.0200
719,0.0198
720,0.0200
721,0.0192
722,0.0178
723,0.0194
724,0.0190
725,0.0190
726,0.0196
727,0.0194
728,0.0185
729,0.0186
730,0.0184
731,0.0193
732,0.0196
733,0.0183
734,0.0194
735,0.0195
736,0.0183
737,0.0190
738,0.0177
739,0.0189
740,0.0182
741,0.0190
742,0.0176
743,0.0175
744,0.0179
745,0.0177
746,0.0182
747,0.0182
748,0.0180
749,0.0177
750,0.0169
751,0.0184
752,0.0178
753,0.0185
754,0.0182
755,0.0177
756,0.0173
757,0.0177
758,0.0177
759,0.0180
760,0.0177
761,0.0180
762,0.0173
763,0.0176
764,0.0181
765,0.0179
766,0.0177
767,0.0166
768,0.0179
769,0.0163
770,0.0164
771,0.0169
772,0.0173
773,0.0168
774,0.0179
775,0.0176
776,0.0184
777,0.0166
778,0.0177
779,0.0185
780,0.0170
781,0.0182
782,0.0173
783,0.0183
784,0.0180
785,0.0183
786,0.0191
787,0.0174
788,0.0188
789,0.0178
790,0.0179
791,0.0173
792,0.0183
793,0.0166
794,0.0184
795,0.0177
796,0.0175
797,0.0178
798,0.0178
799,0.0181
800,0.0187
801,0.0174
802,0.0170
803,0.0187
804,0.0186
805,0.0184
806,0.0184
807,0.0199
808,0.0195
809,0.0193
810,0.0198
811,0.0187
812,0.0181
813,0.0196
814,0.0190
815,0.0188
816,0.0202
817,0.0190
818,0.0181
819,0.0198
820,0.0212
821,0.0190
822,0.0190
823,0.0191
824,0.0180
825,0.0179
826,0.0181
827,0.0179
828,0.0179
829,0.0182
830,0.0177
831,0.0175
832,0.0176
833,0.0169
834,0.0172
835,0.0178
836,0.0160
837,0.0166
838,0.0168
839,0.0150
840,0.0161
841,0.0150
842,0.0169
843,0.0150
844,0.0149
845,0.0160
846,0.0154
847,0.0146
848,0.0140
849,0.0162
850,0.0167
851,0.0155
852,0.0159
853,0.0156
854,0.0164
855,0.0158
856,0.0147
857,0.0167
858,0.0161
859,0.0157
860,0.0155
861,0.0161
862,0.0150
863,0.0163
864,0.0145
865,0.0138
866,0.0155
867,0.0166
868,0.0154
869,0.0152
870,0.0149
871,0.0163
872,0.0162
873,0.0156
874,0.0144
875,0.0146
876,0.0156
877,0.0154
878,0.0144
879,0.0151
880,0.0156
881,0.0137
882,0.0170
883,0.0160
884,0.0147
885,0.0167
886,0.0154
887,0.0173
888,0.0159
889,0.0161
890,0.0177
891,0.0170
892,0.0173
893,0.0188
894,0.0189
895,0.0160
896,0.0190
897,0.0191
898,0.0164
899,0.0174
900,0.0187
901,0.0185
902,0.0158
903,0.0160
904,0.0208
905,0.0172
906,0.0174
907,0.0214
908,0.0196
909,0.0203
910,0.0204
911,0.0153
912,0.0205
913,0.0177
914,0.0159
915,0.0187
916,0.0181
917,0.0158
918,0.0146
919,0.0133
920,0.0172
921,0.0130
922,0.0147
923,0.0143
924,0.0138
925,0.0136
926,0.0120
927,0.0121
928,0.0114
929,0.0137
930,0.0133
931,0.0109
932,0.0115
933,0.0072
934,0.0101
935,0.0094
936,0.0055
937,0.0065
938,0.0069
939,0.0036
940,0.0057
941,0.0044
942,0.0018
943,0.0025
944,0.0038
945,0.0023
946,0.0033
947,0.0068
