382,NaN
383,1.0000
384,0.0000
385,0.8859
386,0.0000
387,0.2249
388,0.1407
389,0.0000
390,0.0000
391,0.1350
392,0.1777
393,0.0298
394,0.0000
395,0.0000
396,0.1829
397,0.0195
398,0.0000
399,0.0000
400,0.0056
401,0.1690
402,0.0000
403,0.0196
404,0.0652
405,0.0075
406,0.0316
407,0.1112
408,0.0017
409,0.0556
410,0.0522
411,0.0610
412,0.0246
413,0.0273
414,0.0000
415,0.0670
416,0.0045
417,0.0630
418,0.0695
419,0.0257
420,0.0102
421,0.0000
422,0.0000
423,0.0378
424,0.0055
425,0.0365
426,0.0407
427,0.0050
428,0.0208
429,0.0000
430,0.0409
431,0.0567
432,0.0072
433,0.0605
434,0.0000
435,0.0390
436,0.0210
437,0.0189
438,0.0409
439,0.0369
440,0.0345
441,0.0430
442,0.0303
443,0.0488
444,0.0367
445,0.0276
446,0.0234
447,0.0303
448,0.0075
449,0.0354
450,0.0399
451,0.0245
452,0.0218
453,0.0197
454,0.0358
455,0.0398
456,0.0306
457,0.0341
458,0.0271
459,0.0226
460,0.0211
461,0.0378
462,0.0264
463,0.0435
464,0.0179
465,0.0091
466,0.0232
467,0.0353
468,0.0343
469,0.0394
470,0.0333
471,0.0288
472,0.0358
473,0.0315
474,0.0393
475,0.0363
476,0.0366
477,0.0447
478,0.0395
479,0.0445
480,0.0404
481,0.0337
482,0.0322
483,0.0378
484,0.0377
485,0.0418
486,0.0333
487,0.0462
488,0.0416
489,0.0344
490,0.0390
491,0.0489
492,0.0415
493,0.0467
494,0.0421
495,0.0514
496,0.0472
497,0.0430
498,0.0467
499,0.0455
500,0.0478
501,0.0420
502,0.0478
503,0.0369
504,0.0360
505,0.0342
506,0.0365
507,0.0371
508,0.0323
509,0.0337
510,0.0338
511,0.0293
512,0.0338
513,0.0286
514,0.0264
515,0.0268
516,0.0276
517,0.0277
518,0.0264
519,0.0290
520,0.0299
521,0.0253
522,0.0275
523,0.0283
524,0.0289
525,0.0295
526,0.0286
527,0.0301
528,0.0269
529,0.0281
530,0.0257
531,0.0261
532,0.0253
533,0.0246
534,0.0256
535,0.0233
536,0.0229
537,0.0246
538,0.0231
539,0.0220
540,0.0246
541,0.0234
542,0.0237
543,0.0246
544,0.0234
545,0.0228
546,0.0267
547,0.0260
548,0.0248
549,0.0242
550,0.0259
551,0.0248
552,0.0265
553,0.0264
554,0.0255
555,0.0242
556,0.0265
557,0.0248
558,0.0268
559,0.0256
560,0.0263
561,0.0257
562,0.0261
563,0.0258
564,0.0250
565,0.0251
566,0.0233
567,0.0260
568,0.0237
569,0.0252
570,0.0253
571,0.0252
572,0.0244
573,0.0235
574,0.0237
575,0.0234
576,0.0246
577,0.0246
578,0.0233
579,0.0239
580,0.0235
581,0.0239
582,0.0246
583,0.0242
584,0.0237
585,0.0247
586,0.0258
587,0.0241
588,0.0247
589,0.0245
590,0.0250
591,0.0240
592,0.0249
593,0.0255
594,0.0259
595,0.0244
596,0.0230
597,0.0244
598,0.0248
599,0.0248
600,0.0236
601,0.0235
602,0.0243
603,0.0230
604,0.0232
605,0.0232
606,0.0212
607,0.0235
608,0.0232
609,0.0224
610,0.0220
611,0.0224
612,0.0229
613,0.0222
614,0.0217
615,0.0222
616,0.0222
617,0.0215
618,0.0230
619,0.0225
620,0.0231
621,0.0232
622,0.0245
623,0.0237
624,0.0237
625,0.0239
626,0.0241
627,0.0248
628,0.0243
629,0.0243
630,0.0251
631,0.0248
632,0.0240
633,0.0240
634,0.0236
635,0.0239
636,0.0234
637,0.0252
638,0.0237
639,0.0240
640,0.0243
641,0.0233
642,0.0237
643,0.0241
644,0.0238
645,0.0228
646,0.0230
647,0.0217
648,0.0227
649,0.0218
650,0.0219
651,0.0219
652,0.0221
653,0.0219
654,0.0204
655,0.0209
656,0.0204
657,0.0205
658,0.0197
659,0.0200
660,0.0208
661,0.0204
662,0.0204
663,0.0210
664,0.0206
665,0.0214
666,0.0204
667,0.0201
668,0.0207
669,0.0214
670,0.0222
671,0.0217
672,0.0220
673,0.0220
674,0.0212
675,0.0221
676,0.0223
677,0.0214
678,0.0224
679,0.0212
680,0.0215
681,0.0216
682,0.0215
683,0.0215
684,0.0223
685,0.0222
686,0.0220
687,0.0207
688,0.0218
689,0.0217
690,0.0219
691,0.0216
692,0.0221
693,0.0221
694,0.0220
695,0.0214
696,0.0215
697,0.0220
698,0.0212
699,0.0209
700,0.0212
701,0.0213
702,0.0207
703,0.0201
704,0.0198
705,0.0195
706,0.0200
707,0.0210
708,0.0204
709,0.0201
710,0.0196
711,0.0204
712,0.0196
713,0.0193
714,0.0202
715,0.0197
716,0.0198
717,0.0205
718,0.0198
719,0.0204
720,0.0197
721,0.0188
722,0.0185
723,0.0196
724,0.0192
725,0.0188
726,0.0195
727,0.0200
728,0.0187
729,0.0192
730,0.0189
731,0.0191
732,0.0194
733,0.0190
734,0.0191
735,0.0198
736,0.0192
737,0.0195
738,0.0198
739,0.0190
740,0.0185
741,0.0194
742,0.0193
743,0.0197
744,0.0185
745,0.0190
746,0.0195
747,0.0183
748,0.0198
749,0.0180
750,0.0181
751,0.0187
752,0.0181
753,0.0191
754,0.0187
755,0.0195
756,0.0177
757,0.0182
758,0.0176
759,0.0176
760,0.0180
761,0.0180
762,0.0174
763,0.0175
764,0.0178
765,0.0180
766,0.0170
767,0.0171
768,0.0172
769,0.0166
770,0.0156
771,0.0173
772,0.0172
773,0.0174
774,0.0182
775,0.0176
776,0.0168
777,0.0174
778,0.0165
779,0.0182
780,0.0181
781,0.0173
782,0.0176
783,0.0176
784,0.0166
785,0.0177
786,0.0175
787,0.0183
788,0.0179
789,0.0187
790,0.0180
791,0.0171
792,0.0177
793,0.0177
794,0.0188
795,0.0182
796,0.0185
797,0.0192
798,0.0186
799,0.0197
800,0.0193
801,0.0196
802,0.0184
803,0.0187
804,0.0189
805,0.0188
806,0.0187
807,0.0200
808,0.0193
809,0.0199
810,0.0208
811,0.0201
812,0.0198
813,0.0208
814,0.0200
815,0.0198
816,0.0210
817,0.0203
818,0.0197
819,0.0204
820,0.0216
821,0.0203
822,0.0196
823,0.0195
824,0.0190
825,0.0196
826,0.0184
827,0.0181
828,0.0178
829,0.0172
830,0.0176
831,0.0181
832,0.0185
833,0.0176
834,0.0168
835,0.0172
836,0.0160
837,0.0172
838,0.0160
839,0.0162
840,0.0148
841,0.0156
842,0.0162
843,0.0154
844,0.0169
845,0.0146
846,0.0155
847,0.0146
848,0.0145
849,0.0167
850,0.0147
851,0.0157
852,0.0155
853,0.0151
854,0.0151
855,0.0161
856,0.0147
857,0.0165
858,0.0155
859,0.0142
860,0.0159
861,0.0154
862,0.0148
863,0.0169
864,0.0165
865,0.0135
866,0.0178
867,0.0162
868,0.0157
869,0.0138
870,0.0160
871,0.0171
872,0.0166
873,0.0152
874,0.0151
875,0.0153
876,0.0150
877,0.0164
878,0.0164
879,0.0150
880,0.0167
881,0.0152
882,0.0149
883,0.0172
884,0.0166
885,0.0173
886,0.0146
887,0.0191
888,0.0175
889,0.0179
890,0.0192
891,0.0188
892,0.0177
893,0.0197
894,0.0185
895,0.0184
896,0.0171
897,0.0186
898,0.0189
899,0.0164
900,0.0164
901,0.0188
902,0.0190
903,0.0187
904,0.0191
905,0.0196
906,0.0177
907,0.0200
908,0.0201
909,0.0182
910,0.0214
911,0.0164
912,0.0192
913,0.0160
914,0.0176
915,0.0165
916,0.0188
917,0.0157
918,0.0151
919,0.0158
920,0.0166
921,0.0112
922,0.0137
923,0.0136
924,0.0138
925,0.0125
926,0.0139
927,0.0118
928,0.0121
929,0.0121
930,0.0119
931,0.0092
932,0.0097
933,0.0092
934,0.0102
935,0.0084
936,0.0062
937,0.0058
938,0.0055
939,0.0054
940,0.0036
941,0.0027
942,0.0033
943,0.0047
944,0.0040
945,0.0047
946,0.0021
947,0.0111
