382,NaN
383,0.0040
384,1.0000
385,1.0000
386,0.0000
387,0.1660
388,0.1323
389,0.0411
390,0.0000
391,0.1723
392,0.0608
393,0.2206
394,0.0000
395,0.0000
396,0.2194
397,0.0000
398,0.1323
399,0.0105
400,0.0267
401,0.2577
402,0.0000
403,0.0612
404,0.0005
405,0.0796
406,0.0509
407,0.0679
408,0.0000
409,0.0000
410,0.0361
411,0.1031
412,0.0096
413,0.0500
414,0.0514
415,0.1100
416,0.0613
417,0.0617
418,0.0369
419,0.0547
420,0.0970
421,0.0559
422,0.0281
423,0.0614
424,0.0351
425,0.0000
426,0.0843
427,0.0050
428,0.0326
429,0.0347
430,0.0587
431,0.0442
432,0.0562
433,0.0612
434,0.0400
435,0.0333
436,0.0637
437,0.0645
438,0.0394
439,0.0515
440,0.0977
441,0.0623
442,0.0593
443,0.0875
444,0.0411
445,0.0646
446,0.0392
447,0.0523
448,0.0677
449,0.0675
450,0.0559
451,0.0538
452,0.0524
453,0.0599
454,0.0676
455,0.0687
456,0.0692
457,0.0467
458,0.0444
459,0.0526
460,0.0501
461,0.0417
462,0.0491
463,0.0589
464,0.0400
465,0.0496
466,0.0500
467,0.0517
468,0.0648
469,0.0693
470,0.0553
471,0.0540
472,0.0712
473,0.0669
474,0.0719
475,0.0646
476,0.0728
477,0.0872
478,0.0708
479,0.0676
480,0.0710
481,0.0677
482,0.0672
483,0.0729
484,0.0640
485,0.0763
486,0.0619
487,0.0743
488,0.0674
489,0.0745
490,0.0877
491,0.0788
492,0.0786
493,0.0888
494,0.0827
495,0.0832
496,0.0855
497,0.0781
498,0.0809
499,0.0777
500,0.0747
501,0.0687
502,0.0683
503,0.0639
504,0.0673
505,0.0580
506,0.0597
507,0.0586
508,0.0559
509,0.0563
510,0.0594
511,0.0538
512,0.0526
513,0.0566
514,0.0537
515,0.0536
516,0.0541
517,0.0510
518,0.0461
519,0.0476
520,0.0485
521,0.0457
522,0.0455
523,0.0441
524,0.0427
525,0.0404
526,0.0419
527,0.0403
528,0.0381
529,0.0382
530,0.0362
531,0.0364
532,0.0371
533,0.0363
534,0.0394
535,0.0380
536,0.0395
537,0.0422
538,0.0408
539,0.0417
540,0.0401
541,0.0416
542,0.0413
543,0.0426
544,0.0418
545,0.0400
546,0.0408
547,0.0389
548,0.0384
549,0.0372
550,0.0368
551,0.0347
552,0.0378
553,0.0338
554,0.0356
555,0.0348
556,0.0348
557,0.0353
558,0.0354
559,0.0361
560,0.0374
561,0.0358
562,0.0397
563,0.0402
564,0.0401
565,0.0386
566,0.0400
567,0.0405
568,0.0394
569,0.0412
570,0.0424
571,0.0413
572,0.0408
573,0.0399
574,0.0396
575,0.0385
576,0.0376
577,0.0377
578,0.0358
579,0.0349
580,0.0351
581,0.0347
582,0.0336
583,0.0344
584,0.0335
585,0.0342
586,0.0338
587,0.0341
588,0.0341
589,0.0333
590,0.0355
591,0.0348
592,0.0364
593,0.0365
594,0.0369
595,0.0365
596,0.0365
597,0.0375
598,0.0370
599,0.0380
600,0.0369
601,0.0379
602,0.0366
603,0.0365
604,0.0364
605,0.0365
606,0.0351
607,0.0352
608,0.0344
609,0.0339
610,0.0333
611,0.0326
612,0.0329
613,0.0330
614,0.0310
615,0.0323
616,0.0316
617,0.0318
618,0.0322
619,0.0320
620,0.0323
621,0.0311
622,0.0333
623,0.0339
624,0.0353
625,0.0357
626,0.0350
627,0.0355
628,0.0370
629,0.0382
630,0.0376
631,0.0375
632,0.0365
633,0.0367
634,0.0370
635,0.0371
636,0.0365
637,0.0364
638,0.0360
639,0.0348
640,0.0366
641,0.0365
642,0.0342
643,0.0335
644,0.0332
645,0.0318
646,0.0324
647,0.0303
648,0.0311
649,0.0299
650,0.0306
651,0.0298
652,0.0291
653,0.0297
654,0.0298
655,0.0297
656,0.0295
657,0.0293
658,0.0298
659,0.0295
660,0.0307
661,0.0308
662,0.0324
663,0.0327
664,0.0329
665,0.0328
666,0.0333
667,0.0345
668,0.0346
669,0.0347
670,0.0345
671,0.0353
672,0.0350
673,0.0335
674,0.0334
675,0.0340
676,0.0345
677,0.0327
678,0.0328
679,0.0323
680,0.0324
681,0.0312
682,0.0309
683,0.0309
684,0.0306
685,0.0292
686,0.0296
687,0.0291
688,0.0283
689,0.0284
690,0.0283
691,0.0286
692,0.0279
693,0.0284
694,0.0280
695,0.0272
696,0.0277
697,0.0288
698,0.0286
699,0.0301
700,0.0303
701,0.0303
702,0.0300
703,0.0312
704,0.0300
705,0.0309
706,0.0314
707,0.0320
708,0.0327
709,0.0332
710,0.0331
711,0.0344
712,0.0334
713,0.0337
714,0.0331
715,0.0342
716,0.0334
717,0.0338
718,0.0329
719,0.0326
720,0.0324
721,0.0306
722,0.0293
723,0.0302
724,0.0300
725,0.0296
726,0.0286
727,0.0279
728,0.0273
729,0.0265
730,0.0260
731,0.0253
732,0.0262
733,0.0257
734,0.0251
735,0.0242
736,0.0245
737,0.0252
738,0.0246
739,0.0237
740,0.0240
741,0.0243
742,0.0244
743,0.0236
744,0.0245
745,0.0247
746,0.0243
747,0.0251
748,0.0264
749,0.0259
750,0.0261
751,0.0264
752,0.0272
753,0.0281
754,0.0276
755,0.0290
756,0.0289
757,0.0305
758,0.0295
759,0.0307
760,0.0303
761,0.0308
762,0.0306
763,0.0313
764,0.0307
765,0.0310
766,0.0312
767,0.0300
768,0.0308
769,0.0305
770,0.0290
771,0.0304
772,0.0295
773,0.0288
774,0.0290
775,0.0279
776,0.0285
777,0.0280
778,0.0270
779,0.0275
780,0.0260
781,0.0261
782,0.0251
783,0.0253
784,0.0238
785,0.0236
786,0.0241
787,0.0236
788,0.0244
789,0.0227
790,0.0231
791,0.0222
792,0.0234
793,0.0219
794,0.0233
795,0.0234
796,0.0226
797,0.0231
798,0.0240
799,0.0242
800,0.0241
801,0.0250
802,0.0246
803,0.0261
804,0.0269
805,0.0257
806,0.0269
807,0.0289
808,0.0290
809,0.0301
810,0.0323
811,0.0309
812,0.0299
813,0.0313
814,0.0314
815,0.0310
816,0.0321
817,0.0321
818,0.0335
819,0.0343
820,0.0349
821,0.0335
822,0.0332
823,0.0328
824,0.0325
825,0.0337
826,0.0314
827,0.0312
828,0.0308
829,0.0299
830,0.0301
831,0.0312
832,0.0303
833,0.0284
834,0.0275
835,0.0287
836,0.0260
837,0.0271
838,0.0264
839,0.0253
840,0.0241
841,0.0237
842,0.0241
843,0.0225
844,0.0246
845,0.0219
846,0.0211
847,0.0230
848,0.0199
849,0.0218
850,0.0224
851,0.0217
852,0.0208
853,0.0212
854,0.0228
855,0.0216
856,0.0207
857,0.0222
858,0.0203
859,0.0210
860,0.0207
861,0.0220
862,0.0222
863,0.0218
864,0.0203
865,0.0214
866,0.0235
867,0.0236
868,0.0216
869,0.0227
870,0.0233
871,0.0232
872,0.0233
873,0.0230
874,0.0245
875,0.0240
876,0.0230
877,0.0244
878,0.0226
879,0.0267
880,0.0263
881,0.0238
882,0.0257
883,0.0259
884,0.0249
885,0.0281
886,0.0261
887,0.0296
888,0.0254
889,0.0289
890,0.0299
891,0.0283
892,0.0299
893,0.0311
894,0.0302
895,0.0302
896,0.0302
897,0.0313
898,0.0301
899,0.0310
900,0.0297
901,0.0300
902,0.0286
903,0.0294
904,0.0315
905,0.0279
906,0.0297
907,0.0346
908,0.0323
909,0.0304
910,0.0285
911,0.0282
912,0.0278
913,0.0252
914,0.0272
915,0.0272
916,0.0266
917,0.0235
918,0.0237
919,0.0215
920,0.0246
921,0.0209
922,0.0208
923,0.0210
924,0.0186
925,0.0210
926,0.0185
927,0.0172
928,0.0185
929,0.0198
930,0.0181
931,0.0152
932,0.0171
933,0.0131
934,0.0149
935,0.0116
936,0.0135
937,0.0108
938,0.0088
939,0.0077
940,0.0069
941,0.0068
942,0.0035
943,0.0049
944,0.0072
945,0.0061
946,0.0040
947,0.0119
