382,NaN
383,1.0000
384,0.4237
385,0.0000
386,0.0000
387,0.2934
388,0.3977
389,0.1924
390,0.0000
391,0.1673
392,0.3032
393,0.2499
394,0.1552
395,0.0681
396,0.1531
397,0.0000
398,0.1682
399,0.1476
400,0.2369
401,0.3061
402,0.0000
403,0.2030
404,0.2640
405,0.0412
406,0.0799
407,0.1873
408,0.1819
409,0.1563
410,0.1689
411,0.2280
412,0.0930
413,0.1882
414,0.1256
415,0.1663
416,0.1131
417,0.1851
418,0.1468
419,0.1616
420,0.1070
421,0.1049
422,0.1241
423,0.1186
424,0.0952
425,0.1431
426,0.1555
427,0.0823
428,0.1158
429,0.1298
430,0.1434
431,0.1631
432,0.1762
433,0.1280
434,0.1640
435,0.1805
436,0.1758
437,0.1668
438,0.1765
439,0.1654
440,0.1581
441,0.1574
442,0.1724
443,0.1522
444,0.1246
445,0.1237
446,0.1390
447,0.1021
448,0.1086
449,0.1450
450,0.1427
451,0.1328
452,0.1317
453,0.1906
454,0.1621
455,0.1580
456,0.1645
457,0.1440
458,0.1454
459,0.1432
460,0.1259
461,0.1340
462,0.1204
463,0.1221
464,0.1158
465,0.1068
466,0.1220
467,0.1168
468,0.1470
469,0.1367
470,0.1362
471,0.1523
472,0.1763
473,0.1769
474,0.1841
475,0.1962
476,0.2016
477,0.1975
478,0.1919
479,0.2070
480,0.1886
481,0.1658
482,0.1669
483,0.1576
484,0.1624
485,0.1622
486,0.1610
487,0.1688
488,0.1663
489,0.1660
490,0.1742
491,0.1868
492,0.1977
493,0.2070
494,0.2157
495,0.2205
496,0.2220
497,0.2196
498,0.2198
499,0.2065
500,0.2097
501,0.1976
502,0.1932
503,0.1696
504,0.1611
505,0.1510
506,0.1442
507,0.1413
508,0.1238
509,0.1209
510,0.1184
511,0.1100
512,0.1105
513,0.1103
514,0.1131
515,0.1178
516,0.1189
517,0.1196
518,0.1191
519,0.1233
520,0.1234
521,0.1173
522,0.1210
523,0.1156
524,0.1141
525,0.1121
526,0.1121
527,0.1053
528,0.1019
529,0.0963
530,0.0899
531,0.0867
532,0.0817
533,0.0795
534,0.0782
535,0.0766
536,0.0743
537,0.0746
538,0.0758
539,0.0762
540,0.0802
541,0.0818
542,0.0833
543,0.0900
544,0.0906
545,0.0946
546,0.0990
547,0.1002
548,0.1000
549,0.0980
550,0.1004
551,0.0990
552,0.0976
553,0.0967
554,0.0956
555,0.0903
556,0.0905
557,0.0858
558,0.0848
559,0.0833
560,0.0788
561,0.0757
562,0.0729
563,0.0733
564,0.0700
565,0.0696
566,0.0702
567,0.0727
568,0.0746
569,0.0767
570,0.0785
571,0.0822
572,0.0844
573,0.0865
574,0.0915
575,0.0915
576,0.0952
577,0.0962
578,0.0971
579,0.0977
580,0.0975
581,0.0979
582,0.0956
583,0.0937
584,0.0923
585,0.0914
586,0.0889
587,0.0847
588,0.0821
589,0.0797
590,0.0765
591,0.0744
592,0.0719
593,0.0693
594,0.0670
595,0.0662
596,0.0653
597,0.0647
598,0.0655
599,0.0654
600,0.0660
601,0.0666
602,0.0699
603,0.0697
604,0.0730
605,0.0758
606,0.0767
607,0.0797
608,0.0833
609,0.0846
610,0.0848
611,0.0878
612,0.0899
613,0.0896
614,0.0894
615,0.0884
616,0.0878
617,0.0883
618,0.0869
619,0.0867
620,0.0848
621,0.0832
622,0.0822
623,0.0796
624,0.0776
625,0.0745
626,0.0732
627,0.0708
628,0.0700
629,0.0678
630,0.0662
631,0.0665
632,0.0640
633,0.0631
634,0.0629
635,0.0628
636,0.0646
637,0.0647
638,0.0650
639,0.0679
640,0.0698
641,0.0718
642,0.0727
643,0.0748
644,0.0762
645,0.0788
646,0.0800
647,0.0820
648,0.0851
649,0.0842
650,0.0856
651,0.0873
652,0.0858
653,0.0861
654,0.0849
655,0.0850
656,0.0841
657,0.0824
658,0.0817
659,0.0790
660,0.0775
661,0.0760
662,0.0739
663,0.0722
664,0.0701
665,0.0680
666,0.0659
667,0.0657
668,0.0628
669,0.0621
670,0.0614
671,0.0599
672,0.0579
673,0.0572
674,0.0556
675,0.0577
676,0.0579
677,0.0570
678,0.0587
679,0.0582
680,0.0600
681,0.0608
682,0.0625
683,0.0646
684,0.0663
685,0.0674
686,0.0695
687,0.0708
688,0.0738
689,0.0755
690,0.0765
691,0.0787
692,0.0800
693,0.0806
694,0.0820
695,0.0825
696,0.0829
697,0.0846
698,0.0831
699,0.0828
700,0.0829
701,0.0836
702,0.0825
703,0.0796
704,0.0785
705,0.0776
706,0.0761
707,0.0722
708,0.0711
709,0.0693
710,0.0681
711,0.0667
712,0.0645
713,0.0624
714,0.0621
715,0.0598
716,0.0593
717,0.0581
718,0.0551
719,0.0556
720,0.0553
721,0.0530
722,0.0516
723,0.0524
724,0.0513
725,0.0524
726,0.0529
727,0.0538
728,0.0542
729,0.0557
730,0.0566
731,0.0580
732,0.0592
733,0.0606
734,0.0631
735,0.0633
736,0.0655
737,0.0671
738,0.0683
739,0.0683
740,0.0699
741,0.0718
742,0.0721
743,0.0725
744,0.0736
745,0.0745
746,0.0729
747,0.0743
748,0.0746
749,0.0745
750,0.0749
751,0.0734
752,0.0747
753,0.0749
754,0.0736
755,0.0731
756,0.0715
757,0.0703
758,0.0678
759,0.0676
760,0.0673
761,0.0649
762,0.0624
763,0.0622
764,0.0618
765,0.0595
766,0.0567
767,0.0551
768,0.0553
769,0.0520
770,0.0516
771,0.0517
772,0.0497
773,0.0495
774,0.0500
775,0.0507
776,0.0497
777,0.0496
778,0.0476
779,0.0506
780,0.0502
781,0.0500
782,0.0511
783,0.0524
784,0.0528
785,0.0551
786,0.0554
787,0.0568
788,0.0575
789,0.0586
790,0.0594
791,0.0604
792,0.0619
793,0.0628
794,0.0648
795,0.0659
796,0.0667
797,0.0693
798,0.0692
799,0.0707
800,0.0729
801,0.0746
802,0.0742
803,0.0777
804,0.0780
805,0.0785
806,0.0782
807,0.0804
808,0.0811
809,0.0797
810,0.0813
811,0.0817
812,0.0791
813,0.0778
814,0.0773
815,0.0756
816,0.0786
817,0.0747
818,0.0749
819,0.0739
820,0.0738
821,0.0721
822,0.0696
823,0.0670
824,0.0655
825,0.0656
826,0.0625
827,0.0611
828,0.0593
829,0.0579
830,0.0567
831,0.0552
832,0.0512
833,0.0529
834,0.0523
835,0.0518
836,0.0502
837,0.0490
838,0.0476
839,0.0467
840,0.0472
841,0.0456
842,0.0480
843,0.0446
844,0.0458
845,0.0474
846,0.0466
847,0.0463
848,0.0489
849,0.0489
850,0.0500
851,0.0510
852,0.0519
853,0.0533
854,0.0549
855,0.0552
856,0.0554
857,0.0594
858,0.0579
859,0.0568
860,0.0601
861,0.0615
862,0.0626
863,0.0623
864,0.0633
865,0.0644
866,0.0641
867,0.0672
868,0.0663
869,0.0655
870,0.0660
871,0.0655
872,0.0664
873,0.0656
874,0.0638
875,0.0633
876,0.0659
877,0.0637
878,0.0654
879,0.0650
880,0.0654
881,0.0637
882,0.0648
883,0.0663
884,0.0638
885,0.0676
886,0.0644
887,0.0659
888,0.0657
889,0.0637
890,0.0643
891,0.0636
892,0.0624
893,0.0644
894,0.0660
895,0.0652
896,0.0648
897,0.0624
898,0.0617
899,0.0619
900,0.0631
901,0.0638
902,0.0598
903,0.0597
904,0.0611
905,0.0586
906,0.0586
907,0.0623
908,0.0599
909,0.0583
910,0.0598
911,0.0552
912,0.0536
913,0.0520
914,0.0544
915,0.0530
916,0.0546
917,0.0518
918,0.0499
919,0.0497
920,0.0500
921,0.0472
922,0.0478
923,0.0455
924,0.0489
925,0.0462
926,0.0433
927,0.0465
928,0.0451
929,0.0446
930,0.0468
931,0.0430
932,0.0437
933,0.0382
934,0.0386
935,0.0369
936,0.0331
937,0.0312
938,0.0278
939,0.0255
940,0.0222
941,0.0223
942,0.0184
943,0.0179
944,0.0175
945,0.0200
946,0.0183
947,0.0227
