382,NaN
383,1.0000
384,0.9740
385,1.0000
386,0.3993
387,0.2596
388,0.1771
389,0.1020
390,0.2165
391,0.3998
392,0.3494
393,0.3643
394,0.0000
395,0.1592
396,0.2354
397,0.0962
398,0.1423
399,0.2331
400,0.1641
401,0.3202
402,0.0864
403,0.2985
404,0.2046
405,0.2211
406,0.1679
407,0.1636
408,0.1446
409,0.0775
410,0.2171
411,0.1532
412,0.1675
413,0.1368
414,0.0513
415,0.1550
416,0.1620
417,0.2125
418,0.1457
419,0.1282
420,0.1878
421,0.1222
422,0.0843
423,0.1197
424,0.1576
425,0.0868
426,0.1240
427,0.1240
428,0.1360
429,0.1069
430,0.1347
431,0.1534
432,0.1424
433,0.1533
434,0.1757
435,0.1701
436,0.1773
437,0.1819
438,0.1643
439,0.1342
440,0.1494
441,0.1711
442,0.1411
443,0.1541
444,0.1418
445,0.1421
446,0.1239
447,0.1257
448,0.1267
449,0.1538
450,0.1481
451,0.1352
452,0.1294
453,0.1517
454,0.1481
455,0.1675
456,0.1692
457,0.1486
458,0.1528
459,0.1357
460,0.1490
461,0.1509
462,0.1295
463,0.1478
464,0.1277
465,0.1217
466,0.1376
467,0.1257
468,0.1452
469,0.1526
470,0.1446
471,0.1467
472,0.1630
473,0.1676
474,0.1755
475,0.1785
476,0.1872
477,0.1937
478,0.1937
479,0.2043
480,0.2027
481,0.1812
482,0.1888
483,0.1925
484,0.1912
485,0.1828
486,0.1822
487,0.1863
488,0.1874
489,0.1842
490,0.1880
491,0.1859
492,0.1904
493,0.1968
494,0.2012
495,0.2041
496,0.2030
497,0.1992
498,0.2118
499,0.2005
500,0.2040
501,0.1983
502,0.1955
503,0.1796
504,0.1686
505,0.1637
506,0.1565
507,0.1552
508,0.1469
509,0.1374
510,0.1342
511,0.1242
512,0.1239
513,0.1186
514,0.1189
515,0.1171
516,0.1152
517,0.1194
518,0.1124
519,0.1144
520,0.1164
521,0.1115
522,0.1157
523,0.1092
524,0.1116
525,0.1109
526,0.1079
527,0.1060
528,0.1058
529,0.1023
530,0.1001
531,0.0972
532,0.0939
533,0.0920
534,0.0906
535,0.0843
536,0.0856
537,0.0843
538,0.0840
539,0.0838
540,0.0818
541,0.0830
542,0.0842
543,0.0857
544,0.0874
545,0.0888
546,0.0925
547,0.0921
548,0.0929
549,0.0940
550,0.0953
551,0.0944
552,0.0969
553,0.0966
554,0.0970
555,0.0955
556,0.0955
557,0.0923
558,0.0922
559,0.0892
560,0.0902
561,0.0856
562,0.0842
563,0.0844
564,0.0813
565,0.0816
566,0.0789
567,0.0814
568,0.0803
569,0.0799
570,0.0812
571,0.0821
572,0.0831
573,0.0847
574,0.0857
575,0.0864
576,0.0877
577,0.0903
578,0.0894
579,0.0916
580,0.0921
581,0.0934
582,0.0906
583,0.0925
584,0.0915
585,0.0906
586,0.0902
587,0.0873
588,0.0874
589,0.0855
590,0.0854
591,0.0827
592,0.0818
593,0.0792
594,0.0773
595,0.0762
596,0.0754
597,0.0731
598,0.0728
599,0.0706
600,0.0723
601,0.0728
602,0.0712
603,0.0723
604,0.0739
605,0.0736
606,0.0746
607,0.0760
608,0.0779
609,0.0795
610,0.0798
611,0.0815
612,0.0826
613,0.0840
614,0.0849
615,0.0861
616,0.0857
617,0.0866
618,0.0863
619,0.0867
620,0.0874
621,0.0861
622,0.0872
623,0.0853
624,0.0847
625,0.0835
626,0.0816
627,0.0801
628,0.0792
629,0.0776
630,0.0758
631,0.0753
632,0.0728
633,0.0731
634,0.0709
635,0.0691
636,0.0687
637,0.0689
638,0.0689
639,0.0701
640,0.0709
641,0.0701
642,0.0710
643,0.0725
644,0.0741
645,0.0741
646,0.0764
647,0.0755
648,0.0789
649,0.0783
650,0.0784
651,0.0806
652,0.0813
653,0.0816
654,0.0809
655,0.0812
656,0.0806
657,0.0807
658,0.0808
659,0.0806
660,0.0805
661,0.0806
662,0.0787
663,0.0783
664,0.0771
665,0.0757
666,0.0738
667,0.0741
668,0.0725
669,0.0723
670,0.0696
671,0.0697
672,0.0677
673,0.0667
674,0.0656
675,0.0659
676,0.0655
677,0.0639
678,0.0631
679,0.0632
680,0.0643
681,0.0625
682,0.0641
683,0.0640
684,0.0648
685,0.0652
686,0.0655
687,0.0665
688,0.0698
689,0.0694
690,0.0709
691,0.0736
692,0.0732
693,0.0737
694,0.0753
695,0.0764
696,0.0779
697,0.0786
698,0.0794
699,0.0800
700,0.0808
701,0.0807
702,0.0796
703,0.0803
704,0.0790
705,0.0784
706,0.0787
707,0.0783
708,0.0768
709,0.0761
710,0.0760
711,0.0751
712,0.0736
713,0.0741
714,0.0705
715,0.0709
716,0.0688
717,0.0684
718,0.0661
719,0.0645
720,0.0640
721,0.0616
722,0.0602
723,0.0606
724,0.0588
725,0.0589
726,0.0596
727,0.0585
728,0.0575
729,0.0577
730,0.0571
731,0.0591
732,0.0592
733,0.0594
734,0.0607
735,0.0618
736,0.0614
737,0.0622
738,0.0635
739,0.0642
740,0.0642
741,0.0658
742,0.0664
743,0.0650
744,0.0674
745,0.0666
746,0.0674
747,0.0694
748,0.0703
749,0.0697
750,0.0701
751,0.0719
752,0.0716
753,0.0723
754,0.0737
755,0.0722
756,0.0714
757,0.0734
758,0.0704
759,0.0711
760,0.0700
761,0.0694
762,0.0674
763,0.0694
764,0.0665
765,0.0667
766,0.0659
767,0.0626
768,0.0640
769,0.0611
770,0.0598
771,0.0603
772,0.0591
773,0.0587
774,0.0585
775,0.0575
776,0.0574
777,0.0570
778,0.0560
779,0.0545
780,0.0559
781,0.0558
782,0.0564
783,0.0554
784,0.0560
785,0.0567
786,0.0574
787,0.0578
788,0.0574
789,0.0570
790,0.0576
791,0.0573
792,0.0599
793,0.0587
794,0.0601
795,0.0615
796,0.0619
797,0.0644
798,0.0637
799,0.0651
800,0.0679
801,0.0690
802,0.0681
803,0.0710
804,0.0714
805,0.0733
806,0.0736
807,0.0748
808,0.0766
809,0.0775
810,0.0793
811,0.0783
812,0.0780
813,0.0803
814,0.0777
815,0.0786
816,0.0787
817,0.0786
818,0.0771
819,0.0765
820,0.0774
821,0.0770
822,0.0751
823,0.0727
824,0.0753
825,0.0714
826,0.0728
827,0.0678
828,0.0685
829,0.0678
830,0.0650
831,0.0644
832,0.0623
833,0.0622
834,0.0596
835,0.0600
836,0.0586
837,0.0567
838,0.0564
839,0.0551
840,0.0522
841,0.0515
842,0.0524
843,0.0515
844,0.0511
845,0.0514
846,0.0499
847,0.0483
848,0.0499
849,0.0499
850,0.0509
851,0.0528
852,0.0502
853,0.0510
854,0.0521
855,0.0527
856,0.0524
857,0.0540
858,0.0543
859,0.0544
860,0.0546
861,0.0562
862,0.0578
863,0.0585
864,0.0582
865,0.0593
866,0.0584
867,0.0600
868,0.0609
869,0.0597
870,0.0608
871,0.0610
872,0.0601
873,0.0595
874,0.0616
875,0.0613
876,0.0620
877,0.0629
878,0.0618
879,0.0623
880,0.0644
881,0.0617
882,0.0632
883,0.0650
884,0.0662
885,0.0673
886,0.0689
887,0.0684
888,0.0668
889,0.0691
890,0.0706
891,0.0707
892,0.0715
893,0.0748
894,0.0721
895,0.0713
896,0.0740
897,0.0717
898,0.0726
899,0.0742
900,0.0732
901,0.0737
902,0.0707
903,0.0713
904,0.0744
905,0.0736
906,0.0737
907,0.0758
908,0.0753
909,0.0709
910,0.0738
911,0.0663
912,0.0687
913,0.0632
914,0.0655
915,0.0613
916,0.0604
917,0.0591
918,0.0545
919,0.0557
920,0.0567
921,0.0537
922,0.0522
923,0.0483
924,0.0481
925,0.0509
926,0.0454
927,0.0468
928,0.0442
929,0.0479
930,0.0420
931,0.0411
932,0.0399
933,0.0384
934,0.0397
935,0.0345
936,0.0276
937,0.0276
938,0.0246
939,0.0233
940,0.0184
941,0.0185
942,0.0152
943,0.0158
944,0.0133
945,0.0162
946,0.0142
947,0.0274
