382,NaN
383,1.0000
384,1.0000
385,1.0000
386,0.7253
387,0.3047
388,0.0491
389,0.0838
390,0.2498
391,0.1795
392,0.3653
393,0.3726
394,0.0335
395,0.1103
396,0.1967
397,0.1110
398,0.1336
399,0.1890
400,0.2982
401,0.3500
402,0.1247
403,0.2188
404,0.1614
405,0.1499
406,0.1412
407,0.1094
408,0.2020
409,0.1873
410,0.2871
411,0.2685
412,0.2355
413,0.2319
414,0.1537
415,0.1737
416,0.1545
417,0.1969
418,0.1354
419,0.1248
420,0.1139
421,0.1357
422,0.1518
423,0.1442
424,0.1014
425,0.0871
426,0.1793
427,0.1529
428,0.1419
429,0.1951
430,0.2028
431,0.1728
432,0.1974
433,0.1603
434,0.1633
435,0.2357
436,0.1596
437,0.1970
438,0.1754
439,0.1422
440,0.1565
441,0.1699
442,0.1602
443,0.1850
444,0.1579
445,0.1693
446,0.1463
447,0.1513
448,0.1553
449,0.1573
450,0.1731
451,0.1485
452,0.1440
453,0.1740
454,0.1643
455,0.1724
456,0.1717
457,0.1541
458,0.1515
459,0.1651
460,0.1668
461,0.1466
462,0.1517
463,0.1706
464,0.1634
465,0.1459
466,0.1548
467,0.1638
468,0.1749
469,0.1873
470,0.1600
471,0.1733
472,0.1895
473,0.1752
474,0.1849
475,0.1947
476,0.1909
477,0.1916
478,0.1865
479,0.2003
480,0.1898
481,0.1786
482,0.1966
483,0.1996
484,0.1884
485,0.2098
486,0.1954
487,0.2131
488,0.2178
489,0.2204
490,0.2212
491,0.2247
492,0.2412
493,0.2464
494,0.2490
495,0.2572
496,0.2444
497,0.2339
498,0.2439
499,0.2322
500,0.2330
501,0.2170
502,0.2109
503,0.1924
504,0.1820
505,0.1717
506,0.1658
507,0.1627
508,0.1560
509,0.1414
510,0.1402
511,0.1317
512,0.1260
513,0.1243
514,0.1214
515,0.1208
516,0.1224
517,0.1208
518,0.1185
519,0.1219
520,0.1292
521,0.1261
522,0.1290
523,0.1269
524,0.1352
525,0.1298
526,0.1331
527,0.1318
528,0.1282
529,0.1283
530,0.1242
531,0.1204
532,0.1189
533,0.1093
534,0.1085
535,0.1034
536,0.0991
537,0.0917
538,0.0904
539,0.0861
540,0.0830
541,0.0818
542,0.0798
543,0.0770
544,0.0767
545,0.0802
546,0.0824
547,0.0822
548,0.0826
549,0.0836
550,0.0900
551,0.0924
552,0.0970
553,0.1019
554,0.1052
555,0.1074
556,0.1129
557,0.1164
558,0.1184
559,0.1194
560,0.1204
561,0.1198
562,0.1200
563,0.1185
564,0.1168
565,0.1153
566,0.1106
567,0.1081
568,0.1063
569,0.1018
570,0.0967
571,0.0952
572,0.0891
573,0.0833
574,0.0810
575,0.0777
576,0.0749
577,0.0741
578,0.0690
579,0.0704
580,0.0686
581,0.0690
582,0.0700
583,0.0694
584,0.0720
585,0.0746
586,0.0773
587,0.0808
588,0.0839
589,0.0859
590,0.0905
591,0.0931
592,0.0973
593,0.0984
594,0.1035
595,0.1068
596,0.1088
597,0.1080
598,0.1110
599,0.1105
600,0.1129
601,0.1103
602,0.1105
603,0.1091
604,0.1070
605,0.1038
606,0.1017
607,0.0986
608,0.0955
609,0.0932
610,0.0898
611,0.0869
612,0.0832
613,0.0799
614,0.0751
615,0.0728
616,0.0677
617,0.0654
618,0.0653
619,0.0638
620,0.0614
621,0.0617
622,0.0613
623,0.0616
624,0.0623
625,0.0613
626,0.0635
627,0.0661
628,0.0691
629,0.0716
630,0.0738
631,0.0773
632,0.0807
633,0.0830
634,0.0869
635,0.0891
636,0.0915
637,0.0953
638,0.0971
639,0.1014
640,0.1046
641,0.1068
642,0.1068
643,0.1095
644,0.1087
645,0.1084
646,0.1075
647,0.1082
648,0.1081
649,0.1062
650,0.1030
651,0.1018
652,0.0988
653,0.0965
654,0.0920
655,0.0901
656,0.0852
657,0.0825
658,0.0799
659,0.0771
660,0.0734
661,0.0710
662,0.0675
663,0.0649
664,0.0622
665,0.0604
666,0.0578
667,0.0572
668,0.0555
669,0.0549
670,0.0547
671,0.0551
672,0.0543
673,0.0534
674,0.0546
675,0.0558
676,0.0577
677,0.0580
678,0.0607
679,0.0621
680,0.0647
681,0.0667
682,0.0695
683,0.0733
684,0.0759
685,0.0779
686,0.0814
687,0.0829
688,0.0860
689,0.0882
690,0.0910
691,0.0935
692,0.0953
693,0.0971
694,0.0993
695,0.0993
696,0.1009
697,0.1022
698,0.1017
699,0.1025
700,0.1014
701,0.1022
702,0.0999
703,0.0998
704,0.0971
705,0.0960
706,0.0952
707,0.0927
708,0.0901
709,0.0888
710,0.0866
711,0.0842
712,0.0813
713,0.0779
714,0.0750
715,0.0733
716,0.0704
717,0.0676
718,0.0640
719,0.0630
720,0.0604
721,0.0573
722,0.0560
723,0.0543
724,0.0530
725,0.0505
726,0.0494
727,0.0493
728,0.0486
729,0.0484
730,0.0492
731,0.0492
732,0.0504
733,0.0513
734,0.0518
735,0.0535
736,0.0542
737,0.0548
738,0.0555
739,0.0579
740,0.0593
741,0.0612
742,0.0642
743,0.0654
744,0.0668
745,0.0702
746,0.0695
747,0.0728
748,0.0753
749,0.0761
750,0.0780
751,0.0803
752,0.0806
753,0.0851
754,0.0858
755,0.0872
756,0.0874
757,0.0892
758,0.0891
759,0.0896
760,0.0902
761,0.0889
762,0.0885
763,0.0887
764,0.0885
765,0.0879
766,0.0867
767,0.0851
768,0.0856
769,0.0829
770,0.0807
771,0.0822
772,0.0784
773,0.0775
774,0.0790
775,0.0766
776,0.0743
777,0.0717
778,0.0699
779,0.0703
780,0.0671
781,0.0659
782,0.0627
783,0.0629
784,0.0594
785,0.0600
786,0.0591
787,0.0571
788,0.0552
789,0.0535
790,0.0523
791,0.0519
792,0.0518
793,0.0500
794,0.0491
795,0.0511
796,0.0482
797,0.0509
798,0.0489
799,0.0506
800,0.0518
801,0.0507
802,0.0516
803,0.0542
804,0.0553
805,0.0564
806,0.0570
807,0.0587
808,0.0608
809,0.0638
810,0.0650
811,0.0648
812,0.0658
813,0.0688
814,0.0693
815,0.0710
816,0.0744
817,0.0740
818,0.0764
819,0.0784
820,0.0816
821,0.0812
822,0.0814
823,0.0831
824,0.0836
825,0.0838
826,0.0868
827,0.0863
828,0.0849
829,0.0853
830,0.0870
831,0.0875
832,0.0865
833,0.0847
834,0.0857
835,0.0867
836,0.0851
837,0.0831
838,0.0829
839,0.0826
840,0.0792
841,0.0781
842,0.0792
843,0.0762
844,0.0762
845,0.0752
846,0.0750
847,0.0725
848,0.0733
849,0.0718
850,0.0701
851,0.0722
852,0.0696
853,0.0679
854,0.0672
855,0.0656
856,0.0643
857,0.0644
858,0.0611
859,0.0617
860,0.0595
861,0.0612
862,0.0586
863,0.0597
864,0.0555
865,0.0557
866,0.0572
867,0.0548
868,0.0548
869,0.0544
870,0.0536
871,0.0523
872,0.0501
873,0.0478
874,0.0493
875,0.0483
876,0.0483
877,0.0470
878,0.0471
879,0.0477
880,0.0462
881,0.0468
882,0.0488
883,0.0484
884,0.0487
885,0.0509
886,0.0490
887,0.0521
888,0.0511
889,0.0534
890,0.0579
891,0.0557
892,0.0575
893,0.0618
894,0.0643
895,0.0623
896,0.0653
897,0.0654
898,0.0662
899,0.0664
900,0.0712
901,0.0704
902,0.0717
903,0.0730
904,0.0780
905,0.0788
906,0.0788
907,0.0829
908,0.0833
909,0.0850
910,0.0808
911,0.0780
912,0.0812
913,0.0827
914,0.0847
915,0.0816
916,0.0838
917,0.0784
918,0.0791
919,0.0788
920,0.0760
921,0.0692
922,0.0710
923,0.0679
924,0.0671
925,0.0691
926,0.0646
927,0.0640
928,0.0603
929,0.0626
930,0.0594
931,0.0569
932,0.0547
933,0.0509
934,0.0498
935,0.0462
936,0.0394
937,0.0346
938,0.0339
939,0.0305
940,0.0259
941,0.0222
942,0.0186
943,0.0200
944,0.0190
945,0.0225
946,0.0179
947,0.0244
