382,NaN
383,1.0000
384,1.0000
385,1.0000
386,0.0000
387,0.1380
388,0.2321
389,0.1320
390,0.1936
391,0.1309
392,0.1979
393,0.2354
394,0.0228
395,0.1407
396,0.3192
397,0.2059
398,0.1283
399,0.2485
400,0.1681
401,0.3668
402,0.1071
403,0.2224
404,0.2884
405,0.1746
406,0.1263
407,0.1776
408,0.2045
409,0.1253
410,0.1517
411,0.1121
412,0.1607
413,0.1521
414,0.1193
415,0.1129
416,0.1857
417,0.1703
418,0.1549
419,0.1886
420,0.1786
421,0.1868
422,0.1563
423,0.1899
424,0.1283
425,0.1193
426,0.1725
427,0.1421
428,0.1253
429,0.0888
430,0.1624
431,0.1601
432,0.1340
433,0.1165
434,0.1432
435,0.1892
436,0.1916
437,0.1718
438,0.1974
439,0.2031
440,0.1965
441,0.1979
442,0.1842
443,0.2124
444,0.1862
445,0.1917
446,0.1584
447,0.1804
448,0.1463
449,0.1664
450,0.1577
451,0.1549
452,0.1182
453,0.1527
454,0.1435
455,0.1312
456,0.1454
457,0.1408
458,0.1579
459,0.1432
460,0.1593
461,0.1572
462,0.1745
463,0.1799
464,0.1768
465,0.1630
466,0.1758
467,0.1781
468,0.1848
469,0.1969
470,0.1671
471,0.1696
472,0.1816
473,0.1719
474,0.1760
475,0.1890
476,0.1783
477,0.1765
478,0.1807
479,0.1784
480,0.1787
481,0.1757
482,0.1908
483,0.2015
484,0.1927
485,0.2051
486,0.2110
487,0.2295
488,0.2304
489,0.2265
490,0.2327
491,0.2372
492,0.2358
493,0.2505
494,0.2398
495,0.2493
496,0.2396
497,0.2231
498,0.2293
499,0.2112
500,0.2146
501,0.2061
502,0.2009
503,0.1826
504,0.1788
505,0.1632
506,0.1685
507,0.1619
508,0.1612
509,0.1505
510,0.1445
511,0.1350
512,0.1354
513,0.1300
514,0.1316
515,0.1301
516,0.1293
517,0.1270
518,0.1234
519,0.1232
520,0.1276
521,0.1217
522,0.1215
523,0.1218
524,0.1187
525,0.1192
526,0.1220
527,0.1204
528,0.1176
529,0.1181
530,0.1123
531,0.1140
532,0.1105
533,0.1074
534,0.1096
535,0.1031
536,0.1033
537,0.0983
538,0.0979
539,0.0965
540,0.0927
541,0.0923
542,0.0906
543,0.0878
544,0.0884
545,0.0871
546,0.0878
547,0.0888
548,0.0881
549,0.0876
550,0.0890
551,0.0897
552,0.0920
553,0.0939
554,0.0945
555,0.0955
556,0.0977
557,0.0988
558,0.0999
559,0.1018
560,0.1023
561,0.1034
562,0.1071
563,0.1063
564,0.1062
565,0.1055
566,0.1038
567,0.1054
568,0.1046
569,0.1043
570,0.1037
571,0.1017
572,0.1000
573,0.0978
574,0.0963
575,0.0912
576,0.0934
577,0.0913
578,0.0876
579,0.0898
580,0.0871
581,0.0853
582,0.0816
583,0.0824
584,0.0818
585,0.0809
586,0.0803
587,0.0796
588,0.0791
589,0.0804
590,0.0818
591,0.0794
592,0.0809
593,0.0838
594,0.0847
595,0.0844
596,0.0853
597,0.0862
598,0.0886
599,0.0892
600,0.0906
601,0.0917
602,0.0927
603,0.0934
604,0.0939
605,0.0943
606,0.0936
607,0.0937
608,0.0954
609,0.0937
610,0.0938
611,0.0937
612,0.0931
613,0.0924
614,0.0915
615,0.0902
616,0.0881
617,0.0887
618,0.0872
619,0.0850
620,0.0850
621,0.0836
622,0.0828
623,0.0808
624,0.0805
625,0.0792
626,0.0774
627,0.0774
628,0.0767
629,0.0761
630,0.0753
631,0.0748
632,0.0732
633,0.0726
634,0.0732
635,0.0727
636,0.0736
637,0.0740
638,0.0736
639,0.0750
640,0.0775
641,0.0787
642,0.0785
643,0.0803
644,0.0815
645,0.0826
646,0.0820
647,0.0848
648,0.0853
649,0.0850
650,0.0874
651,0.0882
652,0.0864
653,0.0882
654,0.0877
655,0.0880
656,0.0885
657,0.0872
658,0.0877
659,0.0871
660,0.0877
661,0.0860
662,0.0864
663,0.0855
664,0.0847
665,0.0837
666,0.0830
667,0.0826
668,0.0820
669,0.0800
670,0.0796
671,0.0804
672,0.0766
673,0.0755
674,0.0726
675,0.0727
676,0.0726
677,0.0711
678,0.0703
679,0.0685
680,0.0693
681,0.0675
682,0.0669
683,0.0667
684,0.0666
685,0.0653
686,0.0660
687,0.0636
688,0.0650
689,0.0657
690,0.0660
691,0.0672
692,0.0680
693,0.0675
694,0.0683
695,0.0689
696,0.0696
697,0.0719
698,0.0724
699,0.0727
700,0.0750
701,0.0757
702,0.0757
703,0.0765
704,0.0766
705,0.0793
706,0.0774
707,0.0793
708,0.0799
709,0.0808
710,0.0810
711,0.0827
712,0.0827
713,0.0832
714,0.0833
715,0.0831
716,0.0848
717,0.0845
718,0.0834
719,0.0821
720,0.0824
721,0.0784
722,0.0789
723,0.0784
724,0.0753
725,0.0769
726,0.0758
727,0.0760
728,0.0752
729,0.0739
730,0.0724
731,0.0720
732,0.0708
733,0.0693
734,0.0702
735,0.0695
736,0.0677
737,0.0663
738,0.0655
739,0.0638
740,0.0635
741,0.0634
742,0.0630
743,0.0612
744,0.0612
745,0.0617
746,0.0604
747,0.0593
748,0.0604
749,0.0591
750,0.0581
751,0.0591
752,0.0595
753,0.0600
754,0.0595
755,0.0601
756,0.0593
757,0.0609
758,0.0594
759,0.0615
760,0.0607
761,0.0604
762,0.0613
763,0.0622
764,0.0623
765,0.0625
766,0.0626
767,0.0620
768,0.0635
769,0.0623
770,0.0642
771,0.0650
772,0.0652
773,0.0654
774,0.0684
775,0.0666
776,0.0681
777,0.0678
778,0.0697
779,0.0694
780,0.0684
781,0.0700
782,0.0711
783,0.0722
784,0.0717
785,0.0731
786,0.0730
787,0.0725
788,0.0730
789,0.0728
790,0.0723
791,0.0712
792,0.0717
793,0.0716
794,0.0707
795,0.0724
796,0.0713
797,0.0728
798,0.0709
799,0.0731
800,0.0734
801,0.0715
802,0.0724
803,0.0742
804,0.0728
805,0.0729
806,0.0728
807,0.0732
808,0.0738
809,0.0745
810,0.0756
811,0.0734
812,0.0723
813,0.0720
814,0.0727
815,0.0697
816,0.0703
817,0.0701
818,0.0700
819,0.0693
820,0.0709
821,0.0710
822,0.0677
823,0.0677
824,0.0675
825,0.0663
826,0.0667
827,0.0655
828,0.0630
829,0.0637
830,0.0631
831,0.0635
832,0.0606
833,0.0611
834,0.0599
835,0.0597
836,0.0593
837,0.0575
838,0.0599
839,0.0581
840,0.0560
841,0.0553
842,0.0577
843,0.0546
844,0.0550
845,0.0556
846,0.0553
847,0.0540
848,0.0559
849,0.0560
850,0.0565
851,0.0576
852,0.0567
853,0.0565
854,0.0582
855,0.0585
856,0.0574
857,0.0595
858,0.0573
859,0.0570
860,0.0591
861,0.0611
862,0.0601
863,0.0615
864,0.0585
865,0.0599
866,0.0599
867,0.0599
868,0.0592
869,0.0588
870,0.0610
871,0.0611
872,0.0605
873,0.0585
874,0.0609
875,0.0595
876,0.0606
877,0.0600
878,0.0605
879,0.0614
880,0.0616
881,0.0608
882,0.0635
883,0.0647
884,0.0651
885,0.0664
886,0.0658
887,0.0681
888,0.0673
889,0.0681
890,0.0704
891,0.0705
892,0.0707
893,0.0757
894,0.0762
895,0.0761
896,0.0775
897,0.0761
898,0.0760
899,0.0774
900,0.0792
901,0.0788
902,0.0779
903,0.0814
904,0.0814
905,0.0829
906,0.0834
907,0.0854
908,0.0857
909,0.0817
910,0.0821
911,0.0764
912,0.0745
913,0.0754
914,0.0746
915,0.0744
916,0.0722
917,0.0683
918,0.0678
919,0.0647
920,0.0666
921,0.0616
922,0.0591
923,0.0575
924,0.0566
925,0.0543
926,0.0518
927,0.0496
928,0.0528
929,0.0494
930,0.0485
931,0.0438
932,0.0419
933,0.0392
934,0.0378
935,0.0339
936,0.0315
937,0.0270
938,0.0237
939,0.0216
940,0.0188
941,0.0174
942,0.0163
943,0.0142
944,0.0149
945,0.0154
946,0.0153
947,0.0214
