382,NaN
383,0.1999
384,0.0000
385,1.0000
386,0.7228
387,0.4578
388,0.3183
389,0.1129
390,0.2005
391,0.2258
392,0.2809
393,0.2111
394,0.2006
395,0.0651
396,0.2495
397,0.0000
398,0.3803
399,0.2022
400,0.1963
401,0.4031
402,0.0533
403,0.2459
404,0.1561
405,0.1801
406,0.1027
407,0.2358
408,0.2215
409,0.1424
410,0.1629
411,0.1746
412,0.2880
413,0.2015
414,0.1013
415,0.2474
416,0.1846
417,0.1775
418,0.1781
419,0.1181
420,0.1556
421,0.1653
422,0.1215
423,0.1578
424,0.1282
425,0.1153
426,0.1569
427,0.1093
428,0.1250
429,0.1068
430,0.1806
431,0.1566
432,0.1559
433,0.1325
434,0.1340
435,0.1877
436,0.1838
437,0.1961
438,0.1889
439,0.2188
440,0.2297
441,0.1972
442,0.1998
443,0.2008
444,0.1925
445,0.2039
446,0.1786
447,0.1899
448,0.1697
449,0.1345
450,0.1337
451,0.1307
452,0.1206
453,0.1450
454,0.1415
455,0.1474
456,0.1230
457,0.1338
458,0.1365
459,0.1344
460,0.1332
461,0.1759
462,0.1708
463,0.1916
464,0.1591
465,0.1640
466,0.1949
467,0.1882
468,0.1961
469,0.1960
470,0.1828
471,0.1921
472,0.1918
473,0.1890
474,0.1750
475,0.1851
476,0.1798
477,0.1799
478,0.1754
479,0.1791
480,0.1747
481,0.1610
482,0.1624
483,0.1699
484,0.1687
485,0.1873
486,0.1845
487,0.2039
488,0.1998
489,0.1987
490,0.2152
491,0.2234
492,0.2347
493,0.2402
494,0.2472
495,0.2400
496,0.2434
497,0.2407
498,0.2524
499,0.2354
500,0.2423
501,0.2291
502,0.2355
503,0.2057
504,0.1991
505,0.1879
506,0.1775
507,0.1713
508,0.1579
509,0.1525
510,0.1380
511,0.1216
512,0.1203
513,0.1150
514,0.1115
515,0.1074
516,0.1069
517,0.1013
518,0.0998
519,0.1007
520,0.1014
521,0.0998
522,0.1051
523,0.1029
524,0.1099
525,0.1102
526,0.1116
527,0.1154
528,0.1184
529,0.1240
530,0.1231
531,0.1242
532,0.1251
533,0.1251
534,0.1222
535,0.1226
536,0.1220
537,0.1219
538,0.1192
539,0.1170
540,0.1111
541,0.1093
542,0.1056
543,0.0997
544,0.0953
545,0.0920
546,0.0915
547,0.0860
548,0.0828
549,0.0798
550,0.0773
551,0.0726
552,0.0731
553,0.0707
554,0.0694
555,0.0699
556,0.0712
557,0.0701
558,0.0719
559,0.0742
560,0.0751
561,0.0773
562,0.0828
563,0.0847
564,0.0865
565,0.0912
566,0.0930
567,0.0975
568,0.1007
569,0.1044
570,0.1086
571,0.1106
572,0.1134
573,0.1139
574,0.1151
575,0.1152
576,0.1157
577,0.1170
578,0.1154
579,0.1158
580,0.1145
581,0.1104
582,0.1083
583,0.1063
584,0.1023
585,0.0980
586,0.0971
587,0.0933
588,0.0899
589,0.0873
590,0.0829
591,0.0799
592,0.0768
593,0.0738
594,0.0704
595,0.0684
596,0.0650
597,0.0629
598,0.0631
599,0.0618
600,0.0612
601,0.0611
602,0.0605
603,0.0607
604,0.0616
605,0.0631
606,0.0638
607,0.0654
608,0.0676
609,0.0698
610,0.0712
611,0.0739
612,0.0774
613,0.0798
614,0.0823
615,0.0852
616,0.0870
617,0.0895
618,0.0925
619,0.0948
620,0.0977
621,0.0991
622,0.1021
623,0.1024
624,0.1044
625,0.1048
626,0.1024
627,0.1054
628,0.1060
629,0.1044
630,0.1035
631,0.1046
632,0.1003
633,0.0993
634,0.0961
635,0.0949
636,0.0922
637,0.0909
638,0.0870
639,0.0871
640,0.0848
641,0.0822
642,0.0801
643,0.0765
644,0.0745
645,0.0720
646,0.0688
647,0.0679
648,0.0658
649,0.0637
650,0.0611
651,0.0606
652,0.0599
653,0.0581
654,0.0572
655,0.0571
656,0.0566
657,0.0563
658,0.0573
659,0.0568
660,0.0584
661,0.0582
662,0.0595
663,0.0612
664,0.0639
665,0.0650
666,0.0668
667,0.0678
668,0.0700
669,0.0715
670,0.0727
671,0.0752
672,0.0766
673,0.0770
674,0.0786
675,0.0815
676,0.0834
677,0.0832
678,0.0857
679,0.0864
680,0.0879
681,0.0888
682,0.0900
683,0.0899
684,0.0906
685,0.0907
686,0.0910
687,0.0901
688,0.0931
689,0.0912
690,0.0904
691,0.0897
692,0.0904
693,0.0876
694,0.0878
695,0.0861
696,0.0839
697,0.0840
698,0.0826
699,0.0809
700,0.0790
701,0.0768
702,0.0748
703,0.0724
704,0.0714
705,0.0698
706,0.0668
707,0.0657
708,0.0645
709,0.0639
710,0.0611
711,0.0615
712,0.0595
713,0.0577
714,0.0570
715,0.0564
716,0.0543
717,0.0537
718,0.0537
719,0.0536
720,0.0526
721,0.0520
722,0.0511
723,0.0517
724,0.0521
725,0.0533
726,0.0537
727,0.0537
728,0.0537
729,0.0548
730,0.0568
731,0.0569
732,0.0595
733,0.0601
734,0.0604
735,0.0621
736,0.0631
737,0.0651
738,0.0675
739,0.0677
740,0.0687
741,0.0719
742,0.0728
743,0.0720
744,0.0738
745,0.0747
746,0.0753
747,0.0766
748,0.0789
749,0.0784
750,0.0787
751,0.0804
752,0.0821
753,0.0817
754,0.0824
755,0.0839
756,0.0835
757,0.0832
758,0.0816
759,0.0830
760,0.0816
761,0.0821
762,0.0796
763,0.0803
764,0.0796
765,0.0794
766,0.0763
767,0.0755
768,0.0730
769,0.0728
770,0.0712
771,0.0719
772,0.0687
773,0.0665
774,0.0669
775,0.0651
776,0.0632
777,0.0621
778,0.0597
779,0.0584
780,0.0585
781,0.0575
782,0.0560
783,0.0540
784,0.0517
785,0.0528
786,0.0521
787,0.0489
788,0.0500
789,0.0476
790,0.0480
791,0.0453
792,0.0449
793,0.0447
794,0.0453
795,0.0437
796,0.0443
797,0.0446
798,0.0446
799,0.0451
800,0.0459
801,0.0462
802,0.0478
803,0.0488
804,0.0511
805,0.0495
806,0.0506
807,0.0535
808,0.0539
809,0.0558
810,0.0599
811,0.0597
812,0.0600
813,0.0620
814,0.0641
815,0.0649
816,0.0680
817,0.0680
818,0.0712
819,0.0728
820,0.0726
821,0.0762
822,0.0765
823,0.0776
824,0.0784
825,0.0801
826,0.0795
827,0.0804
828,0.0795
829,0.0820
830,0.0809
831,0.0823
832,0.0839
833,0.0818
834,0.0817
835,0.0827
836,0.0825
837,0.0823
838,0.0816
839,0.0804
840,0.0806
841,0.0794
842,0.0770
843,0.0794
844,0.0773
845,0.0772
846,0.0767
847,0.0756
848,0.0761
849,0.0765
850,0.0741
851,0.0745
852,0.0736
853,0.0712
854,0.0703
855,0.0695
856,0.0692
857,0.0677
858,0.0661
859,0.0658
860,0.0659
861,0.0639
862,0.0637
863,0.0613
864,0.0611
865,0.0563
866,0.0583
867,0.0566
868,0.0528
869,0.0523
870,0.0511
871,0.0520
872,0.0495
873,0.0475
874,0.0459
875,0.0456
876,0.0436
877,0.0429
878,0.0421
879,0.0432
880,0.0410
881,0.0399
882,0.0403
883,0.0388
884,0.0382
885,0.0400
886,0.0396
887,0.0408
888,0.0386
889,0.0382
890,0.0411
891,0.0393
892,0.0404
893,0.0434
894,0.0427
895,0.0411
896,0.0408
897,0.0424
898,0.0419
899,0.0416
900,0.0480
901,0.0476
902,0.0460
903,0.0465
904,0.0501
905,0.0516
906,0.0513
907,0.0535
908,0.0543
909,0.0556
910,0.0558
911,0.0527
912,0.0582
913,0.0552
914,0.0576
915,0.0599
916,0.0609
917,0.0579
918,0.0568
919,0.0598
920,0.0604
921,0.0566
922,0.0577
923,0.0572
924,0.0549
925,0.0582
926,0.0569
927,0.0569
928,0.0551
929,0.0558
930,0.0508
931,0.0531
932,0.0519
933,0.0509
934,0.0481
935,0.0449
936,0.0387
937,0.0353
938,0.0340
939,0.0290
940,0.0267
941,0.0262
942,0.0222
943,0.0192
944,0.0212
945,0.0224
946,0.0216
947,0.0239
