382,NaN
383,1.0000
384,0.3388
385,1.0000
386,0.0000
387,0.1655
388,0.4219
389,0.1283
390,0.1733
391,0.1870
392,0.3014
393,0.2684
394,0.0477
395,0.0000
396,0.1082
397,0.0841
398,0.1320
399,0.1713
400,0.2181
401,0.2862
402,0.0189
403,0.2041
404,0.1817
405,0.1760
406,0.2630
407,0.1633
408,0.1454
409,0.1961
410,0.2290
411,0.2674
412,0.1668
413,0.2134
414,0.1499
415,0.2047
416,0.1578
417,0.1423
418,0.1198
419,0.1419
420,0.1386
421,0.0958
422,0.1586
423,0.1415
424,0.0761
425,0.1076
426,0.1487
427,0.1134
428,0.1030
429,0.1322
430,0.1595
431,0.1318
432,0.1800
433,0.1326
434,0.1673
435,0.1829
436,0.2204
437,0.2157
438,0.2100
439,0.1936
440,0.2271
441,0.2184
442,0.2108
443,0.2044
444,0.1866
445,0.1714
446,0.1612
447,0.1649
448,0.1200
449,0.1300
450,0.1149
451,0.1065
452,0.1101
453,0.1222
454,0.1054
455,0.1217
456,0.1177
457,0.1058
458,0.1295
459,0.1325
460,0.1489
461,0.1644
462,0.1730
463,0.1793
464,0.1843
465,0.1805
466,0.2159
467,0.1883
468,0.2280
469,0.2276
470,0.2030
471,0.2114
472,0.2339
473,0.2242
474,0.2062
475,0.2094
476,0.1865
477,0.1871
478,0.1786
479,0.1719
480,0.1633
481,0.1417
482,0.1342
483,0.1344
484,0.1244
485,0.1342
486,0.1239
487,0.1430
488,0.1313
489,0.1462
490,0.1649
491,0.1700
492,0.1783
493,0.2017
494,0.2175
495,0.2327
496,0.2349
497,0.2331
498,0.2657
499,0.2498
500,0.2695
501,0.2616
502,0.2735
503,0.2555
504,0.2578
505,0.2441
506,0.2387
507,0.2316
508,0.2238
509,0.2009
510,0.1877
511,0.1666
512,0.1553
513,0.1427
514,0.1324
515,0.1182
516,0.1048
517,0.0969
518,0.0849
519,0.0790
520,0.0757
521,0.0657
522,0.0646
523,0.0647
524,0.0645
525,0.0637
526,0.0664
527,0.0708
528,0.0748
529,0.0793
530,0.0841
531,0.0886
532,0.0945
533,0.0995
534,0.1074
535,0.1101
536,0.1182
537,0.1227
538,0.1270
539,0.1309
540,0.1305
541,0.1337
542,0.1327
543,0.1350
544,0.1366
545,0.1326
546,0.1328
547,0.1347
548,0.1294
549,0.1237
550,0.1215
551,0.1140
552,0.1090
553,0.1027
554,0.0975
555,0.0914
556,0.0861
557,0.0802
558,0.0740
559,0.0703
560,0.0646
561,0.0603
562,0.0574
563,0.0553
564,0.0519
565,0.0525
566,0.0500
567,0.0536
568,0.0541
569,0.0562
570,0.0583
571,0.0596
572,0.0631
573,0.0680
574,0.0727
575,0.0767
576,0.0814
577,0.0866
578,0.0892
579,0.0951
580,0.1013
581,0.1039
582,0.1078
583,0.1106
584,0.1152
585,0.1173
586,0.1197
587,0.1217
588,0.1229
589,0.1245
590,0.1229
591,0.1228
592,0.1228
593,0.1208
594,0.1208
595,0.1159
596,0.1142
597,0.1109
598,0.1070
599,0.1019
600,0.0985
601,0.0943
602,0.0907
603,0.0857
604,0.0799
605,0.0767
606,0.0713
607,0.0679
608,0.0631
609,0.0594
610,0.0563
611,0.0529
612,0.0494
613,0.0479
614,0.0466
615,0.0443
616,0.0432
617,0.0413
618,0.0437
619,0.0442
620,0.0461
621,0.0479
622,0.0495
623,0.0519
624,0.0545
625,0.0571
626,0.0614
627,0.0646
628,0.0685
629,0.0722
630,0.0752
631,0.0812
632,0.0830
633,0.0857
634,0.0895
635,0.0930
636,0.0965
637,0.1004
638,0.1009
639,0.1083
640,0.1103
641,0.1125
642,0.1143
643,0.1142
644,0.1167
645,0.1163
646,0.1158
647,0.1159
648,0.1160
649,0.1135
650,0.1114
651,0.1105
652,0.1083
653,0.1067
654,0.1029
655,0.0991
656,0.0969
657,0.0936
658,0.0909
659,0.0858
660,0.0825
661,0.0790
662,0.0752
663,0.0723
664,0.0669
665,0.0642
666,0.0610
667,0.0575
668,0.0538
669,0.0508
670,0.0491
671,0.0472
672,0.0438
673,0.0421
674,0.0388
675,0.0390
676,0.0378
677,0.0370
678,0.0364
679,0.0365
680,0.0368
681,0.0373
682,0.0374
683,0.0395
684,0.0404
685,0.0421
686,0.0450
687,0.0458
688,0.0479
689,0.0511
690,0.0552
691,0.0585
692,0.0620
693,0.0647
694,0.0667
695,0.0702
696,0.0741
697,0.0773
698,0.0801
699,0.0839
700,0.0880
701,0.0898
702,0.0920
703,0.0942
704,0.0942
705,0.0986
706,0.1002
707,0.1025
708,0.1045
709,0.1051
710,0.1049
711,0.1089
712,0.1062
713,0.1081
714,0.1062
715,0.1073
716,0.1071
717,0.1055
718,0.1048
719,0.1015
720,0.1004
721,0.0963
722,0.0944
723,0.0913
724,0.0900
725,0.0883
726,0.0840
727,0.0836
728,0.0788
729,0.0769
730,0.0733
731,0.0718
732,0.0699
733,0.0645
734,0.0640
735,0.0621
736,0.0572
737,0.0542
738,0.0535
739,0.0491
740,0.0476
741,0.0440
742,0.0425
743,0.0390
744,0.0390
745,0.0372
746,0.0361
747,0.0350
748,0.0333
749,0.0317
750,0.0312
751,0.0306
752,0.0295
753,0.0305
754,0.0303
755,0.0315
756,0.0317
757,0.0327
758,0.0322
759,0.0333
760,0.0353
761,0.0355
762,0.0363
763,0.0390
764,0.0412
765,0.0432
766,0.0436
767,0.0452
768,0.0482
769,0.0487
770,0.0513
771,0.0541
772,0.0560
773,0.0574
774,0.0626
775,0.0644
776,0.0665
777,0.0677
778,0.0710
779,0.0718
780,0.0739
781,0.0757
782,0.0780
783,0.0803
784,0.0810
785,0.0828
786,0.0867
787,0.0873
788,0.0882
789,0.0897
790,0.0889
791,0.0886
792,0.0910
793,0.0910
794,0.0916
795,0.0932
796,0.0936
797,0.0955
798,0.0943
799,0.0959
800,0.0966
801,0.0958
802,0.0955
803,0.0982
804,0.0959
805,0.0945
806,0.0945
807,0.0947
808,0.0948
809,0.0936
810,0.0936
811,0.0921
812,0.0888
813,0.0886
814,0.0850
815,0.0819
816,0.0803
817,0.0803
818,0.0786
819,0.0760
820,0.0737
821,0.0730
822,0.0704
823,0.0673
824,0.0637
825,0.0606
826,0.0586
827,0.0552
828,0.0519
829,0.0492
830,0.0476
831,0.0467
832,0.0444
833,0.0414
834,0.0390
835,0.0371
836,0.0353
837,0.0336
838,0.0325
839,0.0314
840,0.0298
841,0.0279
842,0.0282
843,0.0250
844,0.0274
845,0.0251
846,0.0253
847,0.0261
848,0.0245
849,0.0253
850,0.0251
851,0.0275
852,0.0264
853,0.0269
854,0.0287
855,0.0287
856,0.0285
857,0.0308
858,0.0305
859,0.0314
860,0.0328
861,0.0352
862,0.0364
863,0.0381
864,0.0396
865,0.0391
866,0.0416
867,0.0426
868,0.0443
869,0.0458
870,0.0459
871,0.0487
872,0.0508
873,0.0507
874,0.0528
875,0.0539
876,0.0559
877,0.0559
878,0.0579
879,0.0618
880,0.0630
881,0.0636
882,0.0663
883,0.0699
884,0.0692
885,0.0740
886,0.0782
887,0.0794
888,0.0823
889,0.0829
890,0.0860
891,0.0885
892,0.0907
893,0.0952
894,0.0965
895,0.0981
896,0.1017
897,0.1005
898,0.1013
899,0.1037
900,0.1083
901,0.1085
902,0.1065
903,0.1091
904,0.1117
905,0.1138
906,0.1144
907,0.1152
908,0.1164
909,0.1136
910,0.1118
911,0.1071
912,0.1068
913,0.1058
914,0.1017
915,0.1034
916,0.0972
917,0.0933
918,0.0906
919,0.0865
920,0.0830
921,0.0778
922,0.0748
923,0.0727
924,0.0714
925,0.0669
926,0.0633
927,0.0618
928,0.0570
929,0.0541
930,0.0528
931,0.0485
932,0.0455
933,0.0421
934,0.0389
935,0.0347
936,0.0291
937,0.0280
938,0.0241
939,0.0198
940,0.0162
941,0.0120
942,0.0128
943,0.0121
944,0.0120
945,0.0120
946,0.0095
947,0.0152
