382,NaN
383,1.0000
384,1.0000
385,1.0000
386,0.6516
387,0.2166
388,0.2035
389,0.2001
390,0.2913
391,0.1963
392,0.4228
393,0.2304
394,0.2509
395,0.0788
396,0.0705
397,0.0397
398,0.0442
399,0.2260
400,0.2217
401,0.3144
402,0.0598
403,0.2418
404,0.1721
405,0.0974
406,0.1562
407,0.1264
408,0.1166
409,0.1492
410,0.1647
411,0.2081
412,0.1522
413,0.2119
414,0.1810
415,0.2109
416,0.1642
417,0.1969
418,0.1630
419,0.1401
420,0.1776
421,0.2214
422,0.1478
423,0.1446
424,0.1248
425,0.1776
426,0.1717
427,0.1521
428,0.1070
429,0.0774
430,0.1492
431,0.1283
432,0.1079
433,0.0786
434,0.1258
435,0.1448
436,0.1562
437,0.1619
438,0.1620
439,0.1628
440,0.2026
441,0.1796
442,0.2178
443,0.2462
444,0.2137
445,0.2285
446,0.1892
447,0.2371
448,0.2003
449,0.2025
450,0.1819
451,0.1544
452,0.1621
453,0.1571
454,0.1482
455,0.1383
456,0.1340
457,0.1278
458,0.0941
459,0.1055
460,0.1175
461,0.1043
462,0.1011
463,0.1303
464,0.1103
465,0.1155
466,0.1279
467,0.1292
468,0.1520
469,0.1856
470,0.1770
471,0.1893
472,0.2014
473,0.2061
474,0.2201
475,0.2377
476,0.2463
477,0.2555
478,0.2529
479,0.2635
480,0.2598
481,0.2465
482,0.2532
483,0.2471
484,0.2300
485,0.2313
486,0.2099
487,0.2159
488,0.1847
489,0.1730
490,0.1621
491,0.1483
492,0.1393
493,0.1386
494,0.1367
495,0.1356
496,0.1304
497,0.1314
498,0.1449
499,0.1430
500,0.1526
501,0.1588
502,0.1679
503,0.1678
504,0.1728
505,0.1814
506,0.1878
507,0.1955
508,0.2000
509,0.1961
510,0.1982
511,0.1937
512,0.1939
513,0.1867
514,0.1882
515,0.1823
516,0.1768
517,0.1652
518,0.1527
519,0.1516
520,0.1486
521,0.1327
522,0.1278
523,0.1193
524,0.1108
525,0.1024
526,0.0986
527,0.0924
528,0.0864
529,0.0804
530,0.0743
531,0.0694
532,0.0699
533,0.0643
534,0.0639
535,0.0612
536,0.0634
537,0.0635
538,0.0643
539,0.0669
540,0.0696
541,0.0715
542,0.0757
543,0.0797
544,0.0845
545,0.0876
546,0.0965
547,0.0989
548,0.1026
549,0.1057
550,0.1105
551,0.1149
552,0.1172
553,0.1220
554,0.1240
555,0.1224
556,0.1256
557,0.1258
558,0.1270
559,0.1259
560,0.1250
561,0.1238
562,0.1209
563,0.1192
564,0.1139
565,0.1097
566,0.1065
567,0.1039
568,0.1018
569,0.0965
570,0.0936
571,0.0892
572,0.0845
573,0.0792
574,0.0746
575,0.0711
576,0.0698
577,0.0656
578,0.0623
579,0.0617
580,0.0590
581,0.0576
582,0.0549
583,0.0551
584,0.0561
585,0.0575
586,0.0578
587,0.0584
588,0.0587
589,0.0629
590,0.0650
591,0.0673
592,0.0711
593,0.0723
594,0.0770
595,0.0803
596,0.0828
597,0.0860
598,0.0887
599,0.0921
600,0.0950
601,0.0980
602,0.1018
603,0.1029
604,0.1053
605,0.1073
606,0.1086
607,0.1088
608,0.1087
609,0.1112
610,0.1094
611,0.1108
612,0.1091
613,0.1096
614,0.1088
615,0.1074
616,0.1052
617,0.1017
618,0.1000
619,0.0987
620,0.0965
621,0.0938
622,0.0899
623,0.0879
624,0.0831
625,0.0804
626,0.0771
627,0.0744
628,0.0715
629,0.0684
630,0.0654
631,0.0640
632,0.0598
633,0.0565
634,0.0553
635,0.0530
636,0.0519
637,0.0513
638,0.0485
639,0.0493
640,0.0497
641,0.0503
642,0.0492
643,0.0508
644,0.0516
645,0.0521
646,0.0537
647,0.0564
648,0.0585
649,0.0579
650,0.0621
651,0.0640
652,0.0657
653,0.0687
654,0.0698
655,0.0725
656,0.0750
657,0.0777
658,0.0796
659,0.0799
660,0.0837
661,0.0862
662,0.0892
663,0.0906
664,0.0915
665,0.0946
666,0.0957
667,0.0981
668,0.0989
669,0.0991
670,0.0990
671,0.1011
672,0.0995
673,0.0993
674,0.0992
675,0.0996
676,0.1000
677,0.0969
678,0.0964
679,0.0950
680,0.0932
681,0.0928
682,0.0907
683,0.0900
684,0.0866
685,0.0847
686,0.0831
687,0.0793
688,0.0793
689,0.0777
690,0.0752
691,0.0724
692,0.0696
693,0.0679
694,0.0655
695,0.0634
696,0.0612
697,0.0602
698,0.0572
699,0.0553
700,0.0549
701,0.0526
702,0.0510
703,0.0493
704,0.0472
705,0.0467
706,0.0460
707,0.0444
708,0.0442
709,0.0450
710,0.0439
711,0.0445
712,0.0440
713,0.0445
714,0.0453
715,0.0468
716,0.0459
717,0.0471
718,0.0475
719,0.0491
720,0.0493
721,0.0501
722,0.0511
723,0.0548
724,0.0546
725,0.0557
726,0.0583
727,0.0587
728,0.0610
729,0.0622
730,0.0640
731,0.0656
732,0.0686
733,0.0696
734,0.0717
735,0.0738
736,0.0759
737,0.0779
738,0.0779
739,0.0789
740,0.0804
741,0.0813
742,0.0824
743,0.0834
744,0.0864
745,0.0854
746,0.0842
747,0.0865
748,0.0869
749,0.0873
750,0.0881
751,0.0874
752,0.0883
753,0.0896
754,0.0898
755,0.0896
756,0.0885
757,0.0874
758,0.0870
759,0.0862
760,0.0848
761,0.0834
762,0.0812
763,0.0805
764,0.0790
765,0.0778
766,0.0755
767,0.0733
768,0.0717
769,0.0704
770,0.0680
771,0.0667
772,0.0644
773,0.0637
774,0.0618
775,0.0603
776,0.0577
777,0.0563
778,0.0551
779,0.0532
780,0.0511
781,0.0499
782,0.0480
783,0.0472
784,0.0459
785,0.0448
786,0.0435
787,0.0432
788,0.0424
789,0.0406
790,0.0390
791,0.0381
792,0.0379
793,0.0376
794,0.0376
795,0.0368
796,0.0364
797,0.0373
798,0.0369
799,0.0374
800,0.0373
801,0.0386
802,0.0386
803,0.0402
804,0.0398
805,0.0407
806,0.0428
807,0.0435
808,0.0450
809,0.0454
810,0.0496
811,0.0500
812,0.0509
813,0.0528
814,0.0530
815,0.0551
816,0.0573
817,0.0582
818,0.0611
819,0.0634
820,0.0650
821,0.0654
822,0.0682
823,0.0689
824,0.0704
825,0.0736
826,0.0731
827,0.0734
828,0.0749
829,0.0759
830,0.0782
831,0.0786
832,0.0788
833,0.0788
834,0.0799
835,0.0828
836,0.0799
837,0.0808
838,0.0802
839,0.0788
840,0.0795
841,0.0779
842,0.0807
843,0.0790
844,0.0785
845,0.0785
846,0.0794
847,0.0777
848,0.0775
849,0.0787
850,0.0789
851,0.0787
852,0.0781
853,0.0762
854,0.0777
855,0.0761
856,0.0747
857,0.0765
858,0.0741
859,0.0729
860,0.0723
861,0.0714
862,0.0723
863,0.0722
864,0.0698
865,0.0690
866,0.0684
867,0.0672
868,0.0653
869,0.0623
870,0.0645
871,0.0594
872,0.0605
873,0.0577
874,0.0564
875,0.0552
876,0.0543
877,0.0524
878,0.0522
879,0.0532
880,0.0517
881,0.0475
882,0.0493
883,0.0492
884,0.0475
885,0.0482
886,0.0466
887,0.0473
888,0.0455
889,0.0457
890,0.0452
891,0.0438
892,0.0431
893,0.0445
894,0.0439
895,0.0408
896,0.0425
897,0.0426
898,0.0400
899,0.0405
900,0.0403
901,0.0401
902,0.0389
903,0.0383
904,0.0413
905,0.0422
906,0.0404
907,0.0417
908,0.0409
909,0.0418
910,0.0414
911,0.0383
912,0.0397
913,0.0393
914,0.0376
915,0.0398
916,0.0392
917,0.0364
918,0.0394
919,0.0356
920,0.0402
921,0.0344
922,0.0349
923,0.0355
924,0.0367
925,0.0362
926,0.0327
927,0.0348
928,0.0338
929,0.0364
930,0.0337
931,0.0341
932,0.0319
933,0.0312
934,0.0307
935,0.0288
936,0.0260
937,0.0243
938,0.0233
939,0.0180
940,0.0188
941,0.0175
942,0.0164
943,0.0141
944,0.0146
945,0.0144
946,0.0132
947,0.0232
