382,NaN
383,0.6510
384,0.5190
385,1.0000
386,0.0000
387,0.2367
388,0.3250
389,0.1766
390,0.2066
391,0.1762
392,0.3344
393,0.1883
394,0.1232
395,0.0061
396,0.2258
397,0.1518
398,0.1996
399,0.3115
400,0.1968
401,0.4413
402,0.0179
403,0.1609
404,0.2422
405,0.0650
406,0.1670
407,0.1446
408,0.1700
409,0.1144
410,0.2160
411,0.2341
412,0.1666
413,0.1929
414,0.1762
415,0.1796
416,0.1894
417,0.2283
418,0.2093
419,0.2035
420,0.1745
421,0.2157
422,0.1620
423,0.2019
424,0.1017
425,0.0829
426,0.1592
427,0.0714
428,0.0820
429,0.1129
430,0.1787
431,0.1509
432,0.1222
433,0.1004
434,0.1012
435,0.1571
436,0.1600
437,0.1512
438,0.1743
439,0.1533
440,0.1802
441,0.2047
442,0.2144
443,0.2227
444,0.2071
445,0.2050
446,0.1909
447,0.2144
448,0.1807
449,0.2085
450,0.1948
451,0.1723
452,0.1589
453,0.1784
454,0.1651
455,0.1495
456,0.1374
457,0.1433
458,0.1280
459,0.1075
460,0.1177
461,0.1120
462,0.1309
463,0.1169
464,0.1087
465,0.1102
466,0.1292
467,0.1266
468,0.1425
469,0.1630
470,0.1534
471,0.1630
472,0.1748
473,0.1779
474,0.1821
475,0.2029
476,0.2115
477,0.2157
478,0.2279
479,0.2419
480,0.2415
481,0.2332
482,0.2360
483,0.2452
484,0.2380
485,0.2482
486,0.2395
487,0.2371
488,0.2326
489,0.2235
490,0.2203
491,0.2111
492,0.2019
493,0.2081
494,0.1958
495,0.1870
496,0.1790
497,0.1653
498,0.1670
499,0.1588
500,0.1707
501,0.1594
502,0.1621
503,0.1515
504,0.1557
505,0.1555
506,0.1634
507,0.1615
508,0.1617
509,0.1560
510,0.1548
511,0.1525
512,0.1556
513,0.1535
514,0.1511
515,0.1489
516,0.1471
517,0.1405
518,0.1347
519,0.1392
520,0.1361
521,0.1300
522,0.1272
523,0.1243
524,0.1207
525,0.1168
526,0.1150
527,0.1129
528,0.1068
529,0.1067
530,0.1036
531,0.0987
532,0.0977
533,0.0945
534,0.0950
535,0.0881
536,0.0907
537,0.0881
538,0.0869
539,0.0850
540,0.0859
541,0.0848
542,0.0828
543,0.0846
544,0.0849
545,0.0859
546,0.0868
547,0.0893
548,0.0874
549,0.0887
550,0.0896
551,0.0902
552,0.0925
553,0.0940
554,0.0944
555,0.0935
556,0.0962
557,0.0962
558,0.0969
559,0.1003
560,0.0972
561,0.0990
562,0.1005
563,0.0987
564,0.0989
565,0.0982
566,0.0973
567,0.1010
568,0.0992
569,0.0975
570,0.0980
571,0.0967
572,0.0956
573,0.0950
574,0.0942
575,0.0920
576,0.0928
577,0.0901
578,0.0893
579,0.0893
580,0.0877
581,0.0860
582,0.0847
583,0.0843
584,0.0838
585,0.0832
586,0.0821
587,0.0815
588,0.0804
589,0.0793
590,0.0804
591,0.0805
592,0.0802
593,0.0814
594,0.0814
595,0.0800
596,0.0805
597,0.0800
598,0.0812
599,0.0817
600,0.0817
601,0.0827
602,0.0828
603,0.0822
604,0.0833
605,0.0831
606,0.0831
607,0.0833
608,0.0828
609,0.0836
610,0.0823
611,0.0841
612,0.0838
613,0.0826
614,0.0831
615,0.0835
616,0.0830
617,0.0819
618,0.0823
619,0.0828
620,0.0824
621,0.0833
622,0.0827
623,0.0826
624,0.0826
625,0.0815
626,0.0816
627,0.0807
628,0.0804
629,0.0807
630,0.0798
631,0.0795
632,0.0776
633,0.0787
634,0.0777
635,0.0773
636,0.0769
637,0.0777
638,0.0760
639,0.0776
640,0.0778
641,0.0779
642,0.0764
643,0.0763
644,0.0768
645,0.0771
646,0.0760
647,0.0784
648,0.0783
649,0.0757
650,0.0765
651,0.0772
652,0.0774
653,0.0784
654,0.0773
655,0.0770
656,0.0773
657,0.0775
658,0.0776
659,0.0762
660,0.0768
661,0.0770
662,0.0756
663,0.0770
664,0.0760
665,0.0766
666,0.0752
667,0.0773
668,0.0759
669,0.0756
670,0.0750
671,0.0759
672,0.0738
673,0.0735
674,0.0737
675,0.0738
676,0.0723
677,0.0712
678,0.0720
679,0.0699
680,0.0698
681,0.0690
682,0.0690
683,0.0694
684,0.0689
685,0.0690
686,0.0670
687,0.0669
688,0.0681
689,0.0685
690,0.0683
691,0.0675
692,0.0681
693,0.0666
694,0.0666
695,0.0666
696,0.0683
697,0.0675
698,0.0676
699,0.0676
700,0.0684
701,0.0674
702,0.0670
703,0.0677
704,0.0671
705,0.0670
706,0.0687
707,0.0676
708,0.0683
709,0.0689
710,0.0688
711,0.0702
712,0.0708
713,0.0706
714,0.0694
715,0.0708
716,0.0701
717,0.0724
718,0.0707
719,0.0700
720,0.0703
721,0.0684
722,0.0690
723,0.0713
724,0.0694
725,0.0698
726,0.0711
727,0.0703
728,0.0711
729,0.0708
730,0.0696
731,0.0704
732,0.0716
733,0.0706
734,0.0718
735,0.0723
736,0.0709
737,0.0714
738,0.0708
739,0.0702
740,0.0696
741,0.0700
742,0.0710
743,0.0695
744,0.0694
745,0.0693
746,0.0673
747,0.0671
748,0.0683
749,0.0661
750,0.0660
751,0.0669
752,0.0658
753,0.0655
754,0.0663
755,0.0657
756,0.0651
757,0.0646
758,0.0636
759,0.0636
760,0.0610
761,0.0610
762,0.0602
763,0.0604
764,0.0589
765,0.0593
766,0.0569
767,0.0556
768,0.0557
769,0.0551
770,0.0558
771,0.0554
772,0.0540
773,0.0540
774,0.0541
775,0.0545
776,0.0539
777,0.0532
778,0.0533
779,0.0530
780,0.0518
781,0.0520
782,0.0531
783,0.0527
784,0.0524
785,0.0532
786,0.0534
787,0.0524
788,0.0535
789,0.0532
790,0.0528
791,0.0527
792,0.0534
793,0.0540
794,0.0539
795,0.0552
796,0.0565
797,0.0571
798,0.0565
799,0.0579
800,0.0592
801,0.0602
802,0.0603
803,0.0635
804,0.0641
805,0.0649
806,0.0649
807,0.0668
808,0.0696
809,0.0686
810,0.0712
811,0.0714
812,0.0716
813,0.0716
814,0.0733
815,0.0726
816,0.0761
817,0.0777
818,0.0768
819,0.0770
820,0.0789
821,0.0816
822,0.0806
823,0.0793
824,0.0813
825,0.0812
826,0.0800
827,0.0796
828,0.0780
829,0.0788
830,0.0779
831,0.0768
832,0.0767
833,0.0756
834,0.0723
835,0.0746
836,0.0741
837,0.0719
838,0.0723
839,0.0698
840,0.0692
841,0.0689
842,0.0683
843,0.0658
844,0.0656
845,0.0656
846,0.0640
847,0.0617
848,0.0622
849,0.0620
850,0.0606
851,0.0622
852,0.0587
853,0.0573
854,0.0594
855,0.0563
856,0.0560
857,0.0564
858,0.0546
859,0.0531
860,0.0539
861,0.0521
862,0.0550
863,0.0524
864,0.0499
865,0.0499
866,0.0502
867,0.0486
868,0.0474
869,0.0449
870,0.0469
871,0.0450
872,0.0443
873,0.0443
874,0.0429
875,0.0431
876,0.0433
877,0.0416
878,0.0417
879,0.0417
880,0.0434
881,0.0396
882,0.0433
883,0.0415
884,0.0404
885,0.0431
886,0.0449
887,0.0441
888,0.0449
889,0.0450
890,0.0481
891,0.0464
892,0.0475
893,0.0508
894,0.0496
895,0.0490
896,0.0504
897,0.0518
898,0.0515
899,0.0517
900,0.0544
901,0.0511
902,0.0533
903,0.0569
904,0.0577
905,0.0596
906,0.0593
907,0.0613
908,0.0605
909,0.0621
910,0.0614
911,0.0578
912,0.0619
913,0.0606
914,0.0624
915,0.0599
916,0.0602
917,0.0583
918,0.0596
919,0.0575
920,0.0588
921,0.0564
922,0.0555
923,0.0547
924,0.0540
925,0.0552
926,0.0521
927,0.0519
928,0.0509
929,0.0492
930,0.0488
931,0.0459
932,0.0456
933,0.0432
934,0.0429
935,0.0377
936,0.0327
937,0.0302
938,0.0284
939,0.0227
940,0.0204
941,0.0190
942,0.0195
943,0.0173
944,0.0171
945,0.0171
946,0.0176
947,0.0266
