382,NaN
383,1.0000
384,1.0000
385,1.0000
386,1.0000
387,0.3597
388,0.1701
389,0.2211
390,0.2453
391,0.2976
392,0.4112
393,0.0969
394,0.1258
395,0.0000
396,0.2552
397,0.0039
398,0.2161
399,0.2375
400,0.2313
401,0.3438
402,0.0823
403,0.1708
404,0.2095
405,0.2145
406,0.0713
407,0.2168
408,0.1736
409,0.1456
410,0.2275
411,0.2389
412,0.2048
413,0.1561
414,0.1581
415,0.1570
416,0.1589
417,0.1903
418,0.1095
419,0.1107
420,0.1371
421,0.1421
422,0.1456
423,0.2060
424,0.1686
425,0.1504
426,0.2112
427,0.1446
428,0.1574
429,0.1518
430,0.1780
431,0.1655
432,0.1545
433,0.1521
434,0.1544
435,0.1578
436,0.1304
437,0.1464
438,0.1375
439,0.1356
440,0.1751
441,0.1521
442,0.1344
443,0.1620
444,0.1541
445,0.1567
446,0.1465
447,0.1541
448,0.1598
449,0.1737
450,0.1700
451,0.1536
452,0.1484
453,0.1614
454,0.1650
455,0.1686
456,0.1558
457,0.1584
458,0.1548
459,0.1647
460,0.1551
461,0.1678
462,0.1527
463,0.1720
464,0.1572
465,0.1412
466,0.1502
467,0.1359
468,0.1555
469,0.1608
470,0.1426
471,0.1395
472,0.1509
473,0.1566
474,0.1687
475,0.1666
476,0.1760
477,0.1724
478,0.1746
479,0.1965
480,0.1906
481,0.1959
482,0.2128
483,0.2058
484,0.2114
485,0.2256
486,0.2179
487,0.2400
488,0.2315
489,0.2253
490,0.2333
491,0.2236
492,0.2292
493,0.2276
494,0.2285
495,0.2295
496,0.2199
497,0.1973
498,0.2088
499,0.1968
500,0.2034
501,0.1889
502,0.1882
503,0.1717
504,0.1646
505,0.1610
506,0.1552
507,0.1502
508,0.1487
509,0.1389
510,0.1382
511,0.1274
512,0.1298
513,0.1251
514,0.1275
515,0.1206
516,0.1183
517,0.1178
518,0.1125
519,0.1121
520,0.1152
521,0.1080
522,0.1126
523,0.1080
524,0.1102
525,0.1078
526,0.1104
527,0.1117
528,0.1087
529,0.1100
530,0.1085
531,0.1083
532,0.1083
533,0.1047
534,0.1082
535,0.1037
536,0.1034
537,0.1033
538,0.0994
539,0.0997
540,0.0990
541,0.0971
542,0.0948
543,0.0927
544,0.0917
545,0.0916
546,0.0918
547,0.0889
548,0.0858
549,0.0857
550,0.0851
551,0.0817
552,0.0832
553,0.0826
554,0.0827
555,0.0797
556,0.0817
557,0.0823
558,0.0814
559,0.0815
560,0.0811
561,0.0812
562,0.0818
563,0.0827
564,0.0839
565,0.0833
566,0.0833
567,0.0857
568,0.0880
569,0.0890
570,0.0906
571,0.0912
572,0.0921
573,0.0953
574,0.0944
575,0.0953
576,0.0944
577,0.0959
578,0.0959
579,0.0982
580,0.0961
581,0.0970
582,0.0959
583,0.0943
584,0.0951
585,0.0935
586,0.0927
587,0.0906
588,0.0910
589,0.0903
590,0.0883
591,0.0857
592,0.0869
593,0.0848
594,0.0837
595,0.0825
596,0.0810
597,0.0795
598,0.0785
599,0.0785
600,0.0758
601,0.0746
602,0.0759
603,0.0731
604,0.0732
605,0.0728
606,0.0697
607,0.0718
608,0.0701
609,0.0682
610,0.0690
611,0.0681
612,0.0700
613,0.0693
614,0.0688
615,0.0704
616,0.0707
617,0.0705
618,0.0718
619,0.0725
620,0.0731
621,0.0714
622,0.0742
623,0.0757
624,0.0771
625,0.0782
626,0.0780
627,0.0800
628,0.0819
629,0.0811
630,0.0819
631,0.0824
632,0.0826
633,0.0840
634,0.0823
635,0.0825
636,0.0841
637,0.0856
638,0.0846
639,0.0857
640,0.0859
641,0.0878
642,0.0871
643,0.0863
644,0.0862
645,0.0853
646,0.0851
647,0.0843
648,0.0846
649,0.0823
650,0.0825
651,0.0808
652,0.0798
653,0.0784
654,0.0786
655,0.0769
656,0.0756
657,0.0760
658,0.0737
659,0.0722
660,0.0724
661,0.0703
662,0.0702
663,0.0693
664,0.0681
665,0.0677
666,0.0656
667,0.0667
668,0.0646
669,0.0638
670,0.0632
671,0.0631
672,0.0623
673,0.0614
674,0.0600
675,0.0611
676,0.0613
677,0.0595
678,0.0600
679,0.0600
680,0.0594
681,0.0588
682,0.0605
683,0.0604
684,0.0608
685,0.0608
686,0.0616
687,0.0604
688,0.0620
689,0.0620
690,0.0636
691,0.0638
692,0.0641
693,0.0656
694,0.0674
695,0.0685
696,0.0684
697,0.0701
698,0.0707
699,0.0710
700,0.0732
701,0.0730
702,0.0729
703,0.0735
704,0.0744
705,0.0749
706,0.0746
707,0.0758
708,0.0772
709,0.0778
710,0.0774
711,0.0785
712,0.0772
713,0.0787
714,0.0791
715,0.0789
716,0.0777
717,0.0762
718,0.0768
719,0.0769
720,0.0751
721,0.0730
722,0.0727
723,0.0729
724,0.0720
725,0.0707
726,0.0707
727,0.0695
728,0.0689
729,0.0680
730,0.0680
731,0.0665
732,0.0669
733,0.0651
734,0.0639
735,0.0648
736,0.0637
737,0.0621
738,0.0622
739,0.0621
740,0.0604
741,0.0601
742,0.0591
743,0.0580
744,0.0573
745,0.0574
746,0.0560
747,0.0564
748,0.0553
749,0.0552
750,0.0553
751,0.0554
752,0.0543
753,0.0536
754,0.0528
755,0.0533
756,0.0546
757,0.0539
758,0.0536
759,0.0533
760,0.0521
761,0.0522
762,0.0521
763,0.0512
764,0.0515
765,0.0536
766,0.0505
767,0.0515
768,0.0520
769,0.0512
770,0.0504
771,0.0533
772,0.0510
773,0.0519
774,0.0541
775,0.0535
776,0.0541
777,0.0540
778,0.0543
779,0.0565
780,0.0556
781,0.0570
782,0.0578
783,0.0567
784,0.0590
785,0.0592
786,0.0582
787,0.0606
788,0.0600
789,0.0605
790,0.0595
791,0.0607
792,0.0618
793,0.0611
794,0.0617
795,0.0621
796,0.0632
797,0.0640
798,0.0635
799,0.0654
800,0.0671
801,0.0671
802,0.0680
803,0.0699
804,0.0699
805,0.0705
806,0.0702
807,0.0728
808,0.0715
809,0.0743
810,0.0759
811,0.0734
812,0.0749
813,0.0738
814,0.0743
815,0.0744
816,0.0753
817,0.0745
818,0.0751
819,0.0744
820,0.0762
821,0.0756
822,0.0749
823,0.0742
824,0.0731
825,0.0732
826,0.0721
827,0.0704
828,0.0687
829,0.0700
830,0.0689
831,0.0669
832,0.0666
833,0.0632
834,0.0619
835,0.0621
836,0.0609
837,0.0604
838,0.0598
839,0.0581
840,0.0552
841,0.0545
842,0.0545
843,0.0517
844,0.0523
845,0.0525
846,0.0512
847,0.0495
848,0.0493
849,0.0488
850,0.0484
851,0.0490
852,0.0484
853,0.0467
854,0.0482
855,0.0460
856,0.0450
857,0.0456
858,0.0445
859,0.0425
860,0.0442
861,0.0447
862,0.0449
863,0.0447
864,0.0428
865,0.0420
866,0.0421
867,0.0436
868,0.0438
869,0.0424
870,0.0401
871,0.0405
872,0.0421
873,0.0396
874,0.0413
875,0.0407
876,0.0408
877,0.0401
878,0.0417
879,0.0425
880,0.0439
881,0.0437
882,0.0443
883,0.0440
884,0.0448
885,0.0449
886,0.0483
887,0.0505
888,0.0485
889,0.0511
890,0.0538
891,0.0540
892,0.0548
893,0.0558
894,0.0573
895,0.0593
896,0.0597
897,0.0618
898,0.0624
899,0.0624
900,0.0666
901,0.0647
902,0.0646
903,0.0678
904,0.0731
905,0.0701
906,0.0740
907,0.0730
908,0.0763
909,0.0745
910,0.0780
911,0.0720
912,0.0733
913,0.0713
914,0.0710
915,0.0730
916,0.0717
917,0.0674
918,0.0667
919,0.0670
920,0.0686
921,0.0619
922,0.0601
923,0.0590
924,0.0589
925,0.0596
926,0.0568
927,0.0540
928,0.0516
929,0.0524
930,0.0494
931,0.0480
932,0.0444
933,0.0453
934,0.0431
935,0.0392
936,0.0351
937,0.0312
938,0.0287
939,0.0234
940,0.0214
941,0.0201
942,0.0175
943,0.0177
944,0.0154
945,0.0182
946,0.0163
947,0.0257
