382,NaN
383,0.2483
384,1.0000
385,1.0000
386,0.1637
387,0.3931
388,0.2884
389,0.0656
390,0.1194
391,0.1282
392,0.2462
393,0.1476
394,0.1070
395,0.0000
396,0.2671
397,0.1148
398,0.1354
399,0.1709
400,0.1803
401,0.2478
402,0.0489
403,0.1289
404,0.1444
405,0.2039
406,0.1273
407,0.1442
408,0.2236
409,0.1509
410,0.1397
411,0.1874
412,0.2133
413,0.2234
414,0.2053
415,0.2068
416,0.1524
417,0.1835
418,0.0923
419,0.1450
420,0.1359
421,0.1328
422,0.1784
423,0.1636
424,0.1538
425,0.1466
426,0.1719
427,0.1121
428,0.1722
429,0.1517
430,0.1387
431,0.1988
432,0.1879
433,0.1188
434,0.1785
435,0.1377
436,0.1383
437,0.1752
438,0.1648
439,0.1757
440,0.1791
441,0.1554
442,0.1709
443,0.1871
444,0.1485
445,0.1589
446,0.1593
447,0.1426
448,0.1626
449,0.1702
450,0.1533
451,0.1446
452,0.1496
453,0.1740
454,0.1516
455,0.1725
456,0.1659
457,0.1455
458,0.1476
459,0.1420
460,0.1524
461,0.1542
462,0.1503
463,0.1643
464,0.1448
465,0.1310
466,0.1443
467,0.1467
468,0.1604
469,0.1610
470,0.1584
471,0.1475
472,0.1579
473,0.1567
474,0.1639
475,0.1730
476,0.1821
477,0.1866
478,0.1830
479,0.2051
480,0.1991
481,0.1925
482,0.2102
483,0.2119
484,0.2034
485,0.2312
486,0.2093
487,0.2314
488,0.2105
489,0.2170
490,0.2171
491,0.2185
492,0.2121
493,0.2171
494,0.2162
495,0.2196
496,0.2081
497,0.1973
498,0.2001
499,0.1858
500,0.1954
501,0.1814
502,0.1875
503,0.1734
504,0.1651
505,0.1636
506,0.1612
507,0.1597
508,0.1549
509,0.1504
510,0.1483
511,0.1375
512,0.1345
513,0.1324
514,0.1328
515,0.1265
516,0.1227
517,0.1245
518,0.1170
519,0.1188
520,0.1182
521,0.1129
522,0.1143
523,0.1131
524,0.1103
525,0.1083
526,0.1068
527,0.1082
528,0.1063
529,0.1074
530,0.1033
531,0.1035
532,0.1020
533,0.0995
534,0.1019
535,0.0986
536,0.0967
537,0.0968
538,0.0961
539,0.0959
540,0.0947
541,0.0942
542,0.0896
543,0.0907
544,0.0896
545,0.0885
546,0.0899
547,0.0898
548,0.0875
549,0.0865
550,0.0877
551,0.0852
552,0.0858
553,0.0867
554,0.0862
555,0.0841
556,0.0862
557,0.0858
558,0.0860
559,0.0868
560,0.0857
561,0.0869
562,0.0882
563,0.0881
564,0.0881
565,0.0882
566,0.0886
567,0.0896
568,0.0905
569,0.0921
570,0.0918
571,0.0919
572,0.0924
573,0.0927
574,0.0936
575,0.0903
576,0.0915
577,0.0923
578,0.0898
579,0.0912
580,0.0896
581,0.0901
582,0.0889
583,0.0897
584,0.0889
585,0.0858
586,0.0860
587,0.0857
588,0.0839
589,0.0841
590,0.0828
591,0.0813
592,0.0804
593,0.0816
594,0.0801
595,0.0786
596,0.0783
597,0.0782
598,0.0769
599,0.0771
600,0.0754
601,0.0761
602,0.0752
603,0.0756
604,0.0745
605,0.0745
606,0.0735
607,0.0735
608,0.0739
609,0.0753
610,0.0734
611,0.0742
612,0.0756
613,0.0754
614,0.0752
615,0.0762
616,0.0755
617,0.0753
618,0.0755
619,0.0770
620,0.0770
621,0.0790
622,0.0796
623,0.0798
624,0.0796
625,0.0793
626,0.0813
627,0.0813
628,0.0819
629,0.0819
630,0.0820
631,0.0834
632,0.0802
633,0.0813
634,0.0816
635,0.0811
636,0.0818
637,0.0804
638,0.0803
639,0.0822
640,0.0818
641,0.0823
642,0.0818
643,0.0813
644,0.0803
645,0.0799
646,0.0791
647,0.0791
648,0.0781
649,0.0781
650,0.0757
651,0.0746
652,0.0750
653,0.0747
654,0.0736
655,0.0726
656,0.0712
657,0.0703
658,0.0703
659,0.0693
660,0.0683
661,0.0673
662,0.0678
663,0.0666
664,0.0665
665,0.0662
666,0.0656
667,0.0660
668,0.0649
669,0.0659
670,0.0648
671,0.0653
672,0.0634
673,0.0640
674,0.0629
675,0.0644
676,0.0634
677,0.0637
678,0.0637
679,0.0628
680,0.0641
681,0.0634
682,0.0640
683,0.0656
684,0.0660
685,0.0649
686,0.0655
687,0.0646
688,0.0677
689,0.0678
690,0.0689
691,0.0684
692,0.0684
693,0.0695
694,0.0699
695,0.0698
696,0.0710
697,0.0719
698,0.0724
699,0.0731
700,0.0724
701,0.0718
702,0.0735
703,0.0730
704,0.0728
705,0.0728
706,0.0736
707,0.0743
708,0.0733
709,0.0737
710,0.0731
711,0.0742
712,0.0736
713,0.0738
714,0.0736
715,0.0738
716,0.0724
717,0.0734
718,0.0699
719,0.0703
720,0.0712
721,0.0695
722,0.0688
723,0.0668
724,0.0666
725,0.0662
726,0.0650
727,0.0658
728,0.0641
729,0.0633
730,0.0633
731,0.0636
732,0.0634
733,0.0618
734,0.0616
735,0.0618
736,0.0612
737,0.0612
738,0.0617
739,0.0593
740,0.0592
741,0.0587
742,0.0594
743,0.0578
744,0.0572
745,0.0578
746,0.0568
747,0.0571
748,0.0574
749,0.0558
750,0.0559
751,0.0561
752,0.0554
753,0.0566
754,0.0564
755,0.0563
756,0.0566
757,0.0557
758,0.0562
759,0.0564
760,0.0561
761,0.0558
762,0.0566
763,0.0572
764,0.0565
765,0.0565
766,0.0561
767,0.0559
768,0.0554
769,0.0569
770,0.0553
771,0.0568
772,0.0562
773,0.0577
774,0.0587
775,0.0583
776,0.0584
777,0.0566
778,0.0589
779,0.0602
780,0.0589
781,0.0582
782,0.0592
783,0.0598
784,0.0588
785,0.0601
786,0.0592
787,0.0601
788,0.0626
789,0.0599
790,0.0614
791,0.0608
792,0.0609
793,0.0607
794,0.0613
795,0.0605
796,0.0617
797,0.0628
798,0.0618
799,0.0614
800,0.0635
801,0.0632
802,0.0640
803,0.0644
804,0.0646
805,0.0666
806,0.0648
807,0.0673
808,0.0688
809,0.0666
810,0.0699
811,0.0683
812,0.0683
813,0.0680
814,0.0687
815,0.0676
816,0.0683
817,0.0675
818,0.0691
819,0.0691
820,0.0699
821,0.0690
822,0.0686
823,0.0681
824,0.0677
825,0.0675
826,0.0664
827,0.0656
828,0.0634
829,0.0629
830,0.0624
831,0.0621
832,0.0604
833,0.0596
834,0.0592
835,0.0592
836,0.0576
837,0.0562
838,0.0565
839,0.0550
840,0.0542
841,0.0534
842,0.0532
843,0.0514
844,0.0502
845,0.0498
846,0.0507
847,0.0489
848,0.0495
849,0.0491
850,0.0495
851,0.0487
852,0.0483
853,0.0481
854,0.0486
855,0.0482
856,0.0469
857,0.0483
858,0.0475
859,0.0467
860,0.0475
861,0.0468
862,0.0462
863,0.0471
864,0.0460
865,0.0455
866,0.0474
867,0.0459
868,0.0463
869,0.0445
870,0.0453
871,0.0455
872,0.0463
873,0.0446
874,0.0447
875,0.0457
876,0.0463
877,0.0454
878,0.0454
879,0.0477
880,0.0479
881,0.0475
882,0.0484
883,0.0486
884,0.0493
885,0.0507
886,0.0517
887,0.0540
888,0.0532
889,0.0543
890,0.0551
891,0.0570
892,0.0568
893,0.0635
894,0.0609
895,0.0630
896,0.0634
897,0.0632
898,0.0627
899,0.0649
900,0.0667
901,0.0712
902,0.0662
903,0.0705
904,0.0708
905,0.0724
906,0.0728
907,0.0768
908,0.0713
909,0.0737
910,0.0752
911,0.0708
912,0.0725
913,0.0693
914,0.0725
915,0.0687
916,0.0709
917,0.0649
918,0.0659
919,0.0618
920,0.0666
921,0.0605
922,0.0596
923,0.0577
924,0.0558
925,0.0564
926,0.0518
927,0.0517
928,0.0513
929,0.0479
930,0.0464
931,0.0441
932,0.0414
933,0.0406
934,0.0389
935,0.0359
936,0.0316
937,0.0296
938,0.0278
939,0.0232
940,0.0210
941,0.0192
942,0.0185
943,0.0148
944,0.0138
945,0.0150
946,0.0139
947,0.0197
