382,NaN
383,0.0939
384,0.0000
385,1.0000
386,0.0000
387,0.3257
388,0.4234
389,0.0658
390,0.0000
391,0.1839
392,0.0931
393,0.2438
394,0.1055
395,0.0642
396,0.3245
397,0.0246
398,0.0515
399,0.1238
400,0.1811
401,0.4976
402,0.1887
403,0.4152
404,0.2235
405,0.2945
406,0.1966
407,0.3256
408,0.2799
409,0.2259
410,0.2196
411,0.2333
412,0.1248
413,0.1819
414,0.1046
415,0.1128
416,0.1146
417,0.1184
418,0.1247
419,0.0945
420,0.1273
421,0.1026
422,0.0681
423,0.1111
424,0.1131
425,0.1149
426,0.1734
427,0.1697
428,0.2007
429,0.1729
430,0.2358
431,0.2145
432,0.2338
433,0.2094
434,0.2253
435,0.2066
436,0.2111
437,0.1821
438,0.1898
439,0.1693
440,0.1946
441,0.1678
442,0.1517
443,0.1523
444,0.1493
445,0.1271
446,0.1113
447,0.1260
448,0.0899
449,0.1071
450,0.1057
451,0.0955
452,0.0977
453,0.1130
454,0.1192
455,0.1290
456,0.1307
457,0.1225
458,0.1303
459,0.1424
460,0.1523
461,0.1615
462,0.1654
463,0.1936
464,0.1816
465,0.1855
466,0.2055
467,0.2002
468,0.2189
469,0.2193
470,0.2181
471,0.2286
472,0.2300
473,0.2080
474,0.2116
475,0.2139
476,0.2224
477,0.2156
478,0.1962
479,0.2081
480,0.1985
481,0.1705
482,0.1835
483,0.1682
484,0.1654
485,0.1628
486,0.1529
487,0.1480
488,0.1385
489,0.1389
490,0.1353
491,0.1369
492,0.1355
493,0.1450
494,0.1391
495,0.1513
496,0.1497
497,0.1499
498,0.1678
499,0.1656
500,0.1745
501,0.1725
502,0.1799
503,0.1784
504,0.1841
505,0.1897
506,0.1876
507,0.1982
508,0.1968
509,0.1992
510,0.1944
511,0.1867
512,0.1880
513,0.1817
514,0.1803
515,0.1752
516,0.1709
517,0.1594
518,0.1539
519,0.1493
520,0.1451
521,0.1336
522,0.1338
523,0.1217
524,0.1194
525,0.1111
526,0.1093
527,0.1028
528,0.0982
529,0.0903
530,0.0876
531,0.0799
532,0.0796
533,0.0737
534,0.0725
535,0.0669
536,0.0665
537,0.0672
538,0.0624
539,0.0610
540,0.0618
541,0.0601
542,0.0628
543,0.0613
544,0.0633
545,0.0658
546,0.0702
547,0.0716
548,0.0722
549,0.0744
550,0.0768
551,0.0802
552,0.0840
553,0.0868
554,0.0899
555,0.0919
556,0.0946
557,0.0974
558,0.1007
559,0.1045
560,0.1061
561,0.1083
562,0.1117
563,0.1131
564,0.1135
565,0.1181
566,0.1169
567,0.1166
568,0.1178
569,0.1182
570,0.1178
571,0.1158
572,0.1173
573,0.1164
574,0.1142
575,0.1112
576,0.1088
577,0.1075
578,0.1017
579,0.1008
580,0.0985
581,0.0954
582,0.0921
583,0.0881
584,0.0861
585,0.0827
586,0.0802
587,0.0762
588,0.0742
589,0.0698
590,0.0677
591,0.0652
592,0.0620
593,0.0614
594,0.0587
595,0.0572
596,0.0560
597,0.0546
598,0.0532
599,0.0541
600,0.0537
601,0.0519
602,0.0535
603,0.0531
604,0.0543
605,0.0529
606,0.0548
607,0.0567
608,0.0573
609,0.0585
610,0.0604
611,0.0631
612,0.0651
613,0.0670
614,0.0692
615,0.0703
616,0.0716
617,0.0738
618,0.0775
619,0.0804
620,0.0829
621,0.0847
622,0.0878
623,0.0901
624,0.0921
625,0.0935
626,0.0949
627,0.0966
628,0.0979
629,0.0985
630,0.1001
631,0.1015
632,0.1013
633,0.1024
634,0.1018
635,0.1013
636,0.1019
637,0.1029
638,0.1008
639,0.1019
640,0.1020
641,0.1012
642,0.1007
643,0.0989
644,0.0980
645,0.0962
646,0.0936
647,0.0922
648,0.0913
649,0.0878
650,0.0866
651,0.0845
652,0.0810
653,0.0807
654,0.0766
655,0.0753
656,0.0734
657,0.0691
658,0.0678
659,0.0656
660,0.0647
661,0.0608
662,0.0592
663,0.0584
664,0.0558
665,0.0543
666,0.0525
667,0.0524
668,0.0513
669,0.0489
670,0.0488
671,0.0478
672,0.0464
673,0.0454
674,0.0444
675,0.0450
676,0.0448
677,0.0443
678,0.0444
679,0.0440
680,0.0448
681,0.0444
682,0.0446
683,0.0475
684,0.0474
685,0.0482
686,0.0489
687,0.0490
688,0.0516
689,0.0537
690,0.0540
691,0.0558
692,0.0580
693,0.0587
694,0.0618
695,0.0619
696,0.0634
697,0.0680
698,0.0683
699,0.0698
700,0.0719
701,0.0720
702,0.0728
703,0.0751
704,0.0764
705,0.0782
706,0.0800
707,0.0810
708,0.0820
709,0.0829
710,0.0857
711,0.0869
712,0.0871
713,0.0878
714,0.0883
715,0.0909
716,0.0903
717,0.0900
718,0.0897
719,0.0889
720,0.0893
721,0.0884
722,0.0875
723,0.0874
724,0.0856
725,0.0861
726,0.0861
727,0.0848
728,0.0828
729,0.0833
730,0.0827
731,0.0827
732,0.0812
733,0.0803
734,0.0806
735,0.0788
736,0.0768
737,0.0764
738,0.0759
739,0.0740
740,0.0716
741,0.0712
742,0.0689
743,0.0670
744,0.0669
745,0.0658
746,0.0631
747,0.0612
748,0.0615
749,0.0587
750,0.0577
751,0.0570
752,0.0554
753,0.0538
754,0.0534
755,0.0525
756,0.0502
757,0.0500
758,0.0466
759,0.0468
760,0.0464
761,0.0442
762,0.0441
763,0.0429
764,0.0404
765,0.0416
766,0.0390
767,0.0378
768,0.0372
769,0.0386
770,0.0363
771,0.0359
772,0.0357
773,0.0346
774,0.0357
775,0.0355
776,0.0363
777,0.0347
778,0.0347
779,0.0357
780,0.0356
781,0.0371
782,0.0361
783,0.0379
784,0.0367
785,0.0376
786,0.0385
787,0.0399
788,0.0413
789,0.0416
790,0.0418
791,0.0415
792,0.0439
793,0.0437
794,0.0451
795,0.0463
796,0.0468
797,0.0499
798,0.0500
799,0.0524
800,0.0551
801,0.0546
802,0.0556
803,0.0591
804,0.0598
805,0.0618
806,0.0632
807,0.0664
808,0.0693
809,0.0692
810,0.0722
811,0.0728
812,0.0726
813,0.0765
814,0.0762
815,0.0777
816,0.0793
817,0.0822
818,0.0821
819,0.0846
820,0.0871
821,0.0843
822,0.0880
823,0.0870
824,0.0879
825,0.0888
826,0.0887
827,0.0880
828,0.0886
829,0.0878
830,0.0889
831,0.0875
832,0.0871
833,0.0847
834,0.0869
835,0.0851
836,0.0838
837,0.0826
838,0.0824
839,0.0816
840,0.0812
841,0.0791
842,0.0787
843,0.0773
844,0.0757
845,0.0752
846,0.0757
847,0.0724
848,0.0742
849,0.0723
850,0.0699
851,0.0713
852,0.0698
853,0.0680
854,0.0694
855,0.0671
856,0.0640
857,0.0664
858,0.0647
859,0.0624
860,0.0618
861,0.0602
862,0.0619
863,0.0602
864,0.0570
865,0.0543
866,0.0559
867,0.0531
868,0.0529
869,0.0507
870,0.0486
871,0.0457
872,0.0481
873,0.0456
874,0.0456
875,0.0427
876,0.0428
877,0.0410
878,0.0412
879,0.0404
880,0.0389
881,0.0371
882,0.0376
883,0.0383
884,0.0373
885,0.0368
886,0.0365
887,0.0355
888,0.0350
889,0.0354
890,0.0363
891,0.0354
892,0.0338
893,0.0360
894,0.0352
895,0.0343
896,0.0358
897,0.0349
898,0.0320
899,0.0346
900,0.0340
901,0.0349
902,0.0324
903,0.0323
904,0.0350
905,0.0355
906,0.0336
907,0.0401
908,0.0356
909,0.0356
910,0.0363
911,0.0327
912,0.0357
913,0.0344
914,0.0360
915,0.0353
916,0.0342
917,0.0326
918,0.0335
919,0.0366
920,0.0339
921,0.0320
922,0.0332
923,0.0324
924,0.0338
925,0.0340
926,0.0326
927,0.0333
928,0.0315
929,0.0311
930,0.0334
931,0.0314
932,0.0298
933,0.0289
934,0.0297
935,0.0261
936,0.0259
937,0.0211
938,0.0191
939,0.0160
940,0.0178
941,0.0151
942,0.0135
943,0.0110
944,0.0155
945,0.0162
946,0.0127
947,0.0179
