382,NaN
383,1.0000
384,1.0000
385,1.0000
386,0.0000
387,0.5121
388,0.0936
389,0.1935
390,0.0000
391,0.2145
392,0.2517
393,0.1825
394,0.1588
395,0.0000
396,0.1566
397,0.0718
398,0.1858
399,0.0723
400,0.2108
401,0.3497
402,0.0378
403,0.2323
404,0.1975
405,0.2114
406,0.2174
407,0.1049
408,0.1866
409,0.1486
410,0.2045
411,0.2391
412,0.2410
413,0.1437
414,0.1659
415,0.1556
416,0.1231
417,0.1684
418,0.1000
419,0.1177
420,0.1190
421,0.0910
422,0.1567
423,0.1601
424,0.1253
425,0.0912
426,0.1363
427,0.1657
428,0.1458
429,0.1444
430,0.1843
431,0.1808
432,0.1939
433,0.1691
434,0.1627
435,0.1980
436,0.1609
437,0.1862
438,0.1643
439,0.1537
440,0.1931
441,0.1872
442,0.1749
443,0.1907
444,0.1633
445,0.1507
446,0.1419
447,0.1437
448,0.1344
449,0.1324
450,0.1452
451,0.1101
452,0.1182
453,0.1519
454,0.1344
455,0.1330
456,0.1325
457,0.1215
458,0.1304
459,0.1251
460,0.1350
461,0.1514
462,0.1387
463,0.1637
464,0.1516
465,0.1527
466,0.1743
467,0.1737
468,0.2048
469,0.1904
470,0.1900
471,0.1901
472,0.2061
473,0.1955
474,0.1999
475,0.2026
476,0.2050
477,0.2060
478,0.1987
479,0.2158
480,0.2070
481,0.1929
482,0.1943
483,0.1975
484,0.1909
485,0.1931
486,0.1821
487,0.1852
488,0.1782
489,0.1683
490,0.1694
491,0.1640
492,0.1608
493,0.1692
494,0.1638
495,0.1667
496,0.1632
497,0.1548
498,0.1645
499,0.1536
500,0.1692
501,0.1724
502,0.1700
503,0.1629
504,0.1652
505,0.1670
506,0.1737
507,0.1755
508,0.1750
509,0.1768
510,0.1760
511,0.1696
512,0.1722
513,0.1634
514,0.1645
515,0.1610
516,0.1571
517,0.1551
518,0.1459
519,0.1452
520,0.1435
521,0.1352
522,0.1281
523,0.1214
524,0.1229
525,0.1140
526,0.1125
527,0.1051
528,0.1022
529,0.0992
530,0.0930
531,0.0873
532,0.0886
533,0.0801
534,0.0824
535,0.0758
536,0.0766
537,0.0716
538,0.0715
539,0.0693
540,0.0666
541,0.0675
542,0.0649
543,0.0670
544,0.0656
545,0.0663
546,0.0688
547,0.0714
548,0.0730
549,0.0740
550,0.0754
551,0.0753
552,0.0806
553,0.0827
554,0.0855
555,0.0883
556,0.0918
557,0.0935
558,0.0967
559,0.1011
560,0.1025
561,0.1045
562,0.1086
563,0.1069
564,0.1113
565,0.1129
566,0.1088
567,0.1136
568,0.1159
569,0.1175
570,0.1153
571,0.1151
572,0.1165
573,0.1134
574,0.1107
575,0.1085
576,0.1079
577,0.1055
578,0.1023
579,0.1019
580,0.0986
581,0.0940
582,0.0922
583,0.0887
584,0.0855
585,0.0825
586,0.0801
587,0.0771
588,0.0731
589,0.0707
590,0.0697
591,0.0655
592,0.0631
593,0.0621
594,0.0598
595,0.0580
596,0.0560
597,0.0552
598,0.0542
599,0.0529
600,0.0532
601,0.0539
602,0.0536
603,0.0541
604,0.0532
605,0.0546
606,0.0548
607,0.0560
608,0.0586
609,0.0596
610,0.0604
611,0.0618
612,0.0646
613,0.0668
614,0.0689
615,0.0713
616,0.0734
617,0.0748
618,0.0781
619,0.0799
620,0.0832
621,0.0867
622,0.0877
623,0.0911
624,0.0923
625,0.0952
626,0.0957
627,0.0981
628,0.1002
629,0.1013
630,0.1018
631,0.1023
632,0.1003
633,0.1030
634,0.1017
635,0.1024
636,0.1018
637,0.1017
638,0.1008
639,0.1008
640,0.1006
641,0.0999
642,0.0980
643,0.0955
644,0.0957
645,0.0931
646,0.0902
647,0.0873
648,0.0882
649,0.0842
650,0.0811
651,0.0810
652,0.0770
653,0.0744
654,0.0707
655,0.0701
656,0.0679
657,0.0651
658,0.0632
659,0.0606
660,0.0596
661,0.0565
662,0.0550
663,0.0545
664,0.0504
665,0.0506
666,0.0485
667,0.0482
668,0.0473
669,0.0454
670,0.0451
671,0.0446
672,0.0436
673,0.0438
674,0.0425
675,0.0431
676,0.0432
677,0.0433
678,0.0440
679,0.0430
680,0.0436
681,0.0448
682,0.0456
683,0.0470
684,0.0486
685,0.0493
686,0.0510
687,0.0509
688,0.0540
689,0.0551
690,0.0572
691,0.0596
692,0.0611
693,0.0623
694,0.0652
695,0.0670
696,0.0684
697,0.0717
698,0.0726
699,0.0739
700,0.0778
701,0.0781
702,0.0804
703,0.0810
704,0.0822
705,0.0838
706,0.0847
707,0.0860
708,0.0876
709,0.0892
710,0.0899
711,0.0916
712,0.0911
713,0.0918
714,0.0930
715,0.0937
716,0.0929
717,0.0926
718,0.0927
719,0.0914
720,0.0899
721,0.0878
722,0.0882
723,0.0873
724,0.0845
725,0.0840
726,0.0833
727,0.0826
728,0.0800
729,0.0802
730,0.0779
731,0.0763
732,0.0768
733,0.0748
734,0.0743
735,0.0736
736,0.0711
737,0.0699
738,0.0681
739,0.0667
740,0.0647
741,0.0629
742,0.0615
743,0.0596
744,0.0594
745,0.0570
746,0.0537
747,0.0534
748,0.0521
749,0.0509
750,0.0486
751,0.0496
752,0.0475
753,0.0465
754,0.0452
755,0.0447
756,0.0425
757,0.0418
758,0.0398
759,0.0394
760,0.0379
761,0.0381
762,0.0370
763,0.0365
764,0.0360
765,0.0365
766,0.0353
767,0.0338
768,0.0342
769,0.0337
770,0.0331
771,0.0334
772,0.0327
773,0.0333
774,0.0342
775,0.0366
776,0.0348
777,0.0352
778,0.0364
779,0.0374
780,0.0375
781,0.0381
782,0.0395
783,0.0408
784,0.0406
785,0.0417
786,0.0436
787,0.0447
788,0.0461
789,0.0464
790,0.0470
791,0.0481
792,0.0499
793,0.0502
794,0.0517
795,0.0528
796,0.0550
797,0.0563
798,0.0581
799,0.0599
800,0.0630
801,0.0629
802,0.0650
803,0.0661
804,0.0692
805,0.0714
806,0.0711
807,0.0744
808,0.0768
809,0.0789
810,0.0819
811,0.0819
812,0.0824
813,0.0842
814,0.0826
815,0.0851
816,0.0865
817,0.0881
818,0.0886
819,0.0893
820,0.0920
821,0.0923
822,0.0931
823,0.0935
824,0.0941
825,0.0913
826,0.0929
827,0.0918
828,0.0908
829,0.0907
830,0.0910
831,0.0895
832,0.0863
833,0.0851
834,0.0857
835,0.0837
836,0.0818
837,0.0813
838,0.0796
839,0.0778
840,0.0752
841,0.0746
842,0.0733
843,0.0720
844,0.0706
845,0.0719
846,0.0704
847,0.0662
848,0.0647
849,0.0644
850,0.0631
851,0.0636
852,0.0616
853,0.0598
854,0.0599
855,0.0587
856,0.0557
857,0.0564
858,0.0547
859,0.0510
860,0.0527
861,0.0505
862,0.0500
863,0.0477
864,0.0470
865,0.0462
866,0.0437
867,0.0434
868,0.0425
869,0.0382
870,0.0404
871,0.0379
872,0.0373
873,0.0366
874,0.0353
875,0.0335
876,0.0336
877,0.0331
878,0.0319
879,0.0324
880,0.0305
881,0.0296
882,0.0300
883,0.0302
884,0.0301
885,0.0284
886,0.0301
887,0.0298
888,0.0294
889,0.0297
890,0.0304
891,0.0279
892,0.0293
893,0.0311
894,0.0307
895,0.0307
896,0.0314
897,0.0307
898,0.0313
899,0.0312
900,0.0346
901,0.0353
902,0.0322
903,0.0340
904,0.0347
905,0.0354
906,0.0394
907,0.0399
908,0.0395
909,0.0395
910,0.0398
911,0.0366
912,0.0411
913,0.0410
914,0.0422
915,0.0391
916,0.0429
917,0.0395
918,0.0399
919,0.0397
920,0.0420
921,0.0394
922,0.0391
923,0.0376
924,0.0411
925,0.0410
926,0.0394
927,0.0399
928,0.0379
929,0.0408
930,0.0383
931,0.0360
932,0.0397
933,0.0358
934,0.0364
935,0.0341
936,0.0289
937,0.0270
938,0.0252
939,0.0191
940,0.0195
941,0.0178
942,0.0173
943,0.0153
944,0.0160
945,0.0158
946,0.0167
947,0.0230
