382,NaN
383,1.0000
384,1.0000
385,1.0000
386,0.0000
387,0.2765
388,0.3905
389,0.3482
390,0.1546
391,0.0980
392,0.3447
393,0.2901
394,0.1343
395,0.0000
396,0.2981
397,0.0947
398,0.1567
399,0.1751
400,0.1779
401,0.3793
402,0.0235
403,0.2026
404,0.1149
405,0.0482
406,0.1704
407,0.1184
408,0.1389
409,0.1494
410,0.2191
411,0.2370
412,0.1881
413,0.1427
414,0.1675
415,0.1533
416,0.1383
417,0.1715
418,0.1387
419,0.2217
420,0.1638
421,0.1015
422,0.1023
423,0.1502
424,0.1977
425,0.1626
426,0.1753
427,0.1712
428,0.1293
429,0.1171
430,0.1703
431,0.1493
432,0.1569
433,0.1443
434,0.1332
435,0.1424
436,0.1563
437,0.1733
438,0.1402
439,0.1569
440,0.1641
441,0.1496
442,0.1423
443,0.1694
444,0.1301
445,0.1373
446,0.1433
447,0.1337
448,0.1403
449,0.1495
450,0.1361
451,0.1506
452,0.1410
453,0.1747
454,0.1686
455,0.1520
456,0.1677
457,0.1545
458,0.1658
459,0.1645
460,0.1536
461,0.1607
462,0.1728
463,0.1762
464,0.1680
465,0.1489
466,0.1713
467,0.1514
468,0.1759
469,0.1623
470,0.1430
471,0.1541
472,0.1542
473,0.1418
474,0.1613
475,0.1528
476,0.1536
477,0.1647
478,0.1503
479,0.1657
480,0.1673
481,0.1527
482,0.1676
483,0.1791
484,0.1719
485,0.1808
486,0.1832
487,0.1936
488,0.1932
489,0.1915
490,0.2015
491,0.2061
492,0.2086
493,0.2187
494,0.2146
495,0.2250
496,0.2126
497,0.2039
498,0.2188
499,0.2068
500,0.2175
501,0.2080
502,0.2067
503,0.1919
504,0.1888
505,0.1877
506,0.1834
507,0.1834
508,0.1782
509,0.1626
510,0.1614
511,0.1488
512,0.1434
513,0.1347
514,0.1349
515,0.1291
516,0.1233
517,0.1175
518,0.1118
519,0.1084
520,0.1079
521,0.1001
522,0.0971
523,0.0938
524,0.0934
525,0.0896
526,0.0914
527,0.0877
528,0.0852
529,0.0838
530,0.0840
531,0.0814
532,0.0864
533,0.0834
534,0.0847
535,0.0845
536,0.0861
537,0.0862
538,0.0898
539,0.0901
540,0.0880
541,0.0921
542,0.0899
543,0.0915
544,0.0920
545,0.0942
546,0.0978
547,0.0977
548,0.0972
549,0.0955
550,0.0986
551,0.0970
552,0.0975
553,0.0978
554,0.1006
555,0.0959
556,0.0996
557,0.0977
558,0.0983
559,0.0977
560,0.0962
561,0.0944
562,0.0956
563,0.0952
564,0.0923
565,0.0923
566,0.0900
567,0.0894
568,0.0894
569,0.0886
570,0.0879
571,0.0851
572,0.0839
573,0.0832
574,0.0824
575,0.0797
576,0.0789
577,0.0787
578,0.0760
579,0.0767
580,0.0753
581,0.0741
582,0.0733
583,0.0714
584,0.0720
585,0.0711
586,0.0718
587,0.0705
588,0.0707
589,0.0718
590,0.0710
591,0.0709
592,0.0723
593,0.0720
594,0.0724
595,0.0721
596,0.0721
597,0.0746
598,0.0750
599,0.0755
600,0.0756
601,0.0771
602,0.0763
603,0.0776
604,0.0790
605,0.0789
606,0.0799
607,0.0809
608,0.0815
609,0.0816
610,0.0833
611,0.0854
612,0.0838
613,0.0852
614,0.0843
615,0.0846
616,0.0864
617,0.0854
618,0.0872
619,0.0859
620,0.0865
621,0.0872
622,0.0865
623,0.0862
624,0.0863
625,0.0851
626,0.0835
627,0.0833
628,0.0840
629,0.0831
630,0.0826
631,0.0814
632,0.0793
633,0.0787
634,0.0758
635,0.0761
636,0.0748
637,0.0748
638,0.0741
639,0.0714
640,0.0729
641,0.0709
642,0.0707
643,0.0700
644,0.0684
645,0.0678
646,0.0665
647,0.0655
648,0.0642
649,0.0638
650,0.0635
651,0.0631
652,0.0619
653,0.0612
654,0.0611
655,0.0598
656,0.0602
657,0.0588
658,0.0601
659,0.0592
660,0.0591
661,0.0592
662,0.0598
663,0.0605
664,0.0598
665,0.0600
666,0.0598
667,0.0613
668,0.0624
669,0.0620
670,0.0629
671,0.0645
672,0.0630
673,0.0640
674,0.0649
675,0.0668
676,0.0676
677,0.0659
678,0.0674
679,0.0677
680,0.0688
681,0.0676
682,0.0702
683,0.0708
684,0.0701
685,0.0727
686,0.0705
687,0.0714
688,0.0749
689,0.0740
690,0.0753
691,0.0752
692,0.0748
693,0.0754
694,0.0761
695,0.0763
696,0.0761
697,0.0778
698,0.0771
699,0.0773
700,0.0780
701,0.0772
702,0.0760
703,0.0760
704,0.0749
705,0.0749
706,0.0752
707,0.0749
708,0.0744
709,0.0736
710,0.0729
711,0.0731
712,0.0728
713,0.0719
714,0.0699
715,0.0707
716,0.0688
717,0.0688
718,0.0668
719,0.0660
720,0.0649
721,0.0630
722,0.0623
723,0.0620
724,0.0599
725,0.0599
726,0.0588
727,0.0582
728,0.0565
729,0.0572
730,0.0557
731,0.0554
732,0.0554
733,0.0535
734,0.0545
735,0.0542
736,0.0534
737,0.0521
738,0.0526
739,0.0510
740,0.0508
741,0.0507
742,0.0512
743,0.0496
744,0.0493
745,0.0502
746,0.0495
747,0.0500
748,0.0508
749,0.0505
750,0.0486
751,0.0503
752,0.0505
753,0.0508
754,0.0508
755,0.0516
756,0.0513
757,0.0521
758,0.0522
759,0.0533
760,0.0527
761,0.0536
762,0.0520
763,0.0545
764,0.0545
765,0.0550
766,0.0538
767,0.0543
768,0.0545
769,0.0558
770,0.0552
771,0.0559
772,0.0559
773,0.0558
774,0.0576
775,0.0579
776,0.0576
777,0.0577
778,0.0581
779,0.0597
780,0.0593
781,0.0609
782,0.0602
783,0.0602
784,0.0589
785,0.0611
786,0.0616
787,0.0621
788,0.0617
789,0.0614
790,0.0616
791,0.0611
792,0.0611
793,0.0625
794,0.0612
795,0.0623
796,0.0626
797,0.0630
798,0.0620
799,0.0630
800,0.0662
801,0.0641
802,0.0653
803,0.0650
804,0.0663
805,0.0654
806,0.0675
807,0.0665
808,0.0694
809,0.0685
810,0.0697
811,0.0710
812,0.0662
813,0.0689
814,0.0671
815,0.0685
816,0.0682
817,0.0686
818,0.0681
819,0.0677
820,0.0695
821,0.0694
822,0.0674
823,0.0675
824,0.0665
825,0.0665
826,0.0657
827,0.0639
828,0.0623
829,0.0632
830,0.0630
831,0.0613
832,0.0621
833,0.0589
834,0.0569
835,0.0578
836,0.0575
837,0.0560
838,0.0556
839,0.0527
840,0.0510
841,0.0509
842,0.0516
843,0.0498
844,0.0494
845,0.0488
846,0.0486
847,0.0467
848,0.0482
849,0.0464
850,0.0458
851,0.0474
852,0.0450
853,0.0459
854,0.0457
855,0.0444
856,0.0438
857,0.0452
858,0.0442
859,0.0424
860,0.0431
861,0.0422
862,0.0434
863,0.0444
864,0.0430
865,0.0411
866,0.0436
867,0.0431
868,0.0419
869,0.0407
870,0.0426
871,0.0411
872,0.0420
873,0.0406
874,0.0387
875,0.0400
876,0.0409
877,0.0398
878,0.0403
879,0.0419
880,0.0438
881,0.0403
882,0.0421
883,0.0462
884,0.0415
885,0.0451
886,0.0457
887,0.0477
888,0.0458
889,0.0480
890,0.0513
891,0.0511
892,0.0535
893,0.0550
894,0.0551
895,0.0568
896,0.0563
897,0.0583
898,0.0580
899,0.0582
900,0.0610
901,0.0616
902,0.0594
903,0.0634
904,0.0666
905,0.0666
906,0.0662
907,0.0708
908,0.0678
909,0.0677
910,0.0677
911,0.0682
912,0.0681
913,0.0635
914,0.0660
915,0.0639
916,0.0634
917,0.0628
918,0.0607
919,0.0600
920,0.0606
921,0.0569
922,0.0572
923,0.0509
924,0.0530
925,0.0513
926,0.0521
927,0.0517
928,0.0484
929,0.0493
930,0.0467
931,0.0441
932,0.0437
933,0.0393
934,0.0394
935,0.0365
936,0.0326
937,0.0284
938,0.0248
939,0.0229
940,0.0187
941,0.0169
942,0.0149
943,0.0171
944,0.0138
945,0.0180
946,0.0162
947,0.0200
