382,NaN
383,0.7239
384,0.5679
385,1.0000
386,0.0000
387,0.2625
388,0.2859
389,0.2230
390,0.3140
391,0.3319
392,0.2301
393,0.2189
394,0.0000
395,0.0494
396,0.1757
397,0.1447
398,0.1887
399,0.1457
400,0.2444
401,0.4895
402,0.0000
403,0.2493
404,0.1245
405,0.1589
406,0.1797
407,0.1943
408,0.1840
409,0.1830
410,0.1869
411,0.1899
412,0.2158
413,0.1471
414,0.0910
415,0.2048
416,0.1619
417,0.1738
418,0.1577
419,0.1180
420,0.1395
421,0.1297
422,0.1150
423,0.1293
424,0.1516
425,0.1069
426,0.2045
427,0.1338
428,0.2021
429,0.1433
430,0.1631
431,0.1912
432,0.1832
433,0.1690
434,0.1849
435,0.1746
436,0.1765
437,0.1758
438,0.1707
439,0.1788
440,0.1823
441,0.1759
442,0.1643
443,0.1891
444,0.1504
445,0.1713
446,0.1401
447,0.1271
448,0.1271
449,0.1318
450,0.1225
451,0.1009
452,0.1085
453,0.1262
454,0.1444
455,0.1371
456,0.1133
457,0.1294
458,0.1274
459,0.1220
460,0.1296
461,0.1487
462,0.1561
463,0.1479
464,0.1602
465,0.1439
466,0.1802
467,0.1631
468,0.1997
469,0.2017
470,0.1932
471,0.1836
472,0.2161
473,0.2135
474,0.2192
475,0.2187
476,0.2265
477,0.2173
478,0.2205
479,0.2296
480,0.2273
481,0.1991
482,0.2165
483,0.2139
484,0.1905
485,0.2110
486,0.1976
487,0.1976
488,0.1801
489,0.1726
490,0.1674
491,0.1631
492,0.1561
493,0.1541
494,0.1551
495,0.1450
496,0.1433
497,0.1328
498,0.1451
499,0.1357
500,0.1410
501,0.1349
502,0.1390
503,0.1357
504,0.1401
505,0.1405
506,0.1471
507,0.1547
508,0.1524
509,0.1574
510,0.1573
511,0.1501
512,0.1546
513,0.1561
514,0.1597
515,0.1541
516,0.1528
517,0.1533
518,0.1460
519,0.1510
520,0.1475
521,0.1444
522,0.1413
523,0.1357
524,0.1363
525,0.1311
526,0.1307
527,0.1250
528,0.1222
529,0.1175
530,0.1129
531,0.1132
532,0.1075
533,0.1045
534,0.0995
535,0.0941
536,0.0938
537,0.0882
538,0.0856
539,0.0810
540,0.0802
541,0.0759
542,0.0728
543,0.0689
544,0.0666
545,0.0656
546,0.0654
547,0.0655
548,0.0633
549,0.0598
550,0.0608
551,0.0600
552,0.0599
553,0.0622
554,0.0627
555,0.0630
556,0.0649
557,0.0680
558,0.0684
559,0.0706
560,0.0725
561,0.0767
562,0.0784
563,0.0802
564,0.0838
565,0.0852
566,0.0885
567,0.0912
568,0.0948
569,0.0972
570,0.1004
571,0.1026
572,0.1059
573,0.1062
574,0.1073
575,0.1081
576,0.1098
577,0.1112
578,0.1110
579,0.1126
580,0.1116
581,0.1101
582,0.1098
583,0.1107
584,0.1088
585,0.1082
586,0.1068
587,0.1032
588,0.1022
589,0.1000
590,0.0987
591,0.0957
592,0.0949
593,0.0916
594,0.0901
595,0.0870
596,0.0848
597,0.0836
598,0.0819
599,0.0775
600,0.0765
601,0.0746
602,0.0712
603,0.0702
604,0.0661
605,0.0650
606,0.0622
607,0.0615
608,0.0601
609,0.0578
610,0.0568
611,0.0561
612,0.0544
613,0.0541
614,0.0531
615,0.0521
616,0.0510
617,0.0504
618,0.0514
619,0.0515
620,0.0517
621,0.0532
622,0.0537
623,0.0540
624,0.0558
625,0.0564
626,0.0573
627,0.0591
628,0.0601
629,0.0618
630,0.0631
631,0.0649
632,0.0648
633,0.0667
634,0.0687
635,0.0694
636,0.0713
637,0.0742
638,0.0755
639,0.0773
640,0.0805
641,0.0824
642,0.0829
643,0.0849
644,0.0869
645,0.0882
646,0.0887
647,0.0911
648,0.0912
649,0.0916
650,0.0921
651,0.0931
652,0.0924
653,0.0931
654,0.0935
655,0.0942
656,0.0929
657,0.0922
658,0.0940
659,0.0933
660,0.0927
661,0.0924
662,0.0919
663,0.0909
664,0.0896
665,0.0907
666,0.0890
667,0.0881
668,0.0869
669,0.0864
670,0.0830
671,0.0840
672,0.0803
673,0.0800
674,0.0780
675,0.0768
676,0.0759
677,0.0728
678,0.0716
679,0.0705
680,0.0691
681,0.0677
682,0.0653
683,0.0642
684,0.0622
685,0.0607
686,0.0597
687,0.0577
688,0.0564
689,0.0557
690,0.0555
691,0.0528
692,0.0514
693,0.0496
694,0.0505
695,0.0489
696,0.0470
697,0.0476
698,0.0458
699,0.0462
700,0.0454
701,0.0446
702,0.0448
703,0.0440
704,0.0427
705,0.0433
706,0.0430
707,0.0428
708,0.0439
709,0.0431
710,0.0436
711,0.0451
712,0.0456
713,0.0450
714,0.0454
715,0.0463
716,0.0467
717,0.0479
718,0.0485
719,0.0490
720,0.0495
721,0.0498
722,0.0490
723,0.0515
724,0.0518
725,0.0536
726,0.0535
727,0.0549
728,0.0564
729,0.0574
730,0.0578
731,0.0592
732,0.0616
733,0.0617
734,0.0635
735,0.0656
736,0.0658
737,0.0676
738,0.0693
739,0.0697
740,0.0696
741,0.0712
742,0.0717
743,0.0715
744,0.0741
745,0.0748
746,0.0748
747,0.0752
748,0.0784
749,0.0775
750,0.0777
751,0.0803
752,0.0807
753,0.0799
754,0.0834
755,0.0833
756,0.0815
757,0.0826
758,0.0834
759,0.0844
760,0.0826
761,0.0819
762,0.0819
763,0.0813
764,0.0818
765,0.0810
766,0.0797
767,0.0788
768,0.0775
769,0.0773
770,0.0768
771,0.0763
772,0.0744
773,0.0742
774,0.0746
775,0.0735
776,0.0723
777,0.0691
778,0.0703
779,0.0705
780,0.0663
781,0.0673
782,0.0645
783,0.0650
784,0.0639
785,0.0624
786,0.0605
787,0.0596
788,0.0585
789,0.0576
790,0.0551
791,0.0537
792,0.0546
793,0.0521
794,0.0519
795,0.0505
796,0.0485
797,0.0489
798,0.0474
799,0.0460
800,0.0468
801,0.0460
802,0.0444
803,0.0452
804,0.0447
805,0.0429
806,0.0420
807,0.0422
808,0.0434
809,0.0414
810,0.0422
811,0.0409
812,0.0393
813,0.0401
814,0.0394
815,0.0389
816,0.0393
817,0.0375
818,0.0395
819,0.0373
820,0.0390
821,0.0389
822,0.0384
823,0.0380
824,0.0389
825,0.0389
826,0.0369
827,0.0382
828,0.0369
829,0.0369
830,0.0381
831,0.0392
832,0.0377
833,0.0374
834,0.0390
835,0.0384
836,0.0381
837,0.0384
838,0.0386
839,0.0397
840,0.0376
841,0.0402
842,0.0408
843,0.0409
844,0.0409
845,0.0429
846,0.0424
847,0.0419
848,0.0448
849,0.0445
850,0.0453
851,0.0461
852,0.0474
853,0.0472
854,0.0507
855,0.0484
856,0.0509
857,0.0525
858,0.0532
859,0.0509
860,0.0537
861,0.0540
862,0.0553
863,0.0567
864,0.0563
865,0.0566
866,0.0567
867,0.0595
868,0.0578
869,0.0561
870,0.0574
871,0.0593
872,0.0598
873,0.0614
874,0.0596
875,0.0597
876,0.0590
877,0.0611
878,0.0611
879,0.0655
880,0.0665
881,0.0640
882,0.0653
883,0.0679
884,0.0690
885,0.0689
886,0.0714
887,0.0718
888,0.0717
889,0.0752
890,0.0782
891,0.0775
892,0.0779
893,0.0828
894,0.0820
895,0.0825
896,0.0850
897,0.0835
898,0.0847
899,0.0842
900,0.0892
901,0.0891
902,0.0891
903,0.0903
904,0.0906
905,0.0940
906,0.0914
907,0.0951
908,0.0934
909,0.0931
910,0.0915
911,0.0870
912,0.0867
913,0.0829
914,0.0855
915,0.0823
916,0.0821
917,0.0741
918,0.0724
919,0.0710
920,0.0719
921,0.0649
922,0.0639
923,0.0601
924,0.0591
925,0.0571
926,0.0558
927,0.0509
928,0.0520
929,0.0487
930,0.0481
931,0.0436
932,0.0419
933,0.0399
934,0.0366
935,0.0345
936,0.0301
937,0.0270
938,0.0235
939,0.0193
940,0.0181
941,0.0156
942,0.0148
943,0.0121
944,0.0120
945,0.0142
946,0.0115
947,0.0175
