382,NaN
383,1.0000
384,0.1842
385,1.0000
386,0.0000
387,0.1700
388,0.2503
389,0.0915
390,0.2286
391,0.1862
392,0.3369
393,0.3010
394,0.1225
395,0.0638
396,0.3302
397,0.1325
398,0.1519
399,0.1234
400,0.2092
401,0.3109
402,0.0993
403,0.2456
404,0.1876
405,0.2751
406,0.1047
407,0.2058
408,0.0995
409,0.1427
410,0.2050
411,0.1890
412,0.2343
413,0.1261
414,0.0813
415,0.1686
416,0.1417
417,0.2188
418,0.1550
419,0.1407
420,0.2052
421,0.1580
422,0.1194
423,0.1334
424,0.1533
425,0.1735
426,0.1657
427,0.1214
428,0.1437
429,0.1455
430,0.1916
431,0.1736
432,0.1559
433,0.1682
434,0.1242
435,0.1614
436,0.1833
437,0.1893
438,0.1320
439,0.1230
440,0.1454
441,0.1789
442,0.1507
443,0.1616
444,0.1405
445,0.1273
446,0.1162
447,0.1302
448,0.1298
449,0.1418
450,0.1478
451,0.1144
452,0.1245
453,0.1525
454,0.1731
455,0.1637
456,0.1621
457,0.1521
458,0.1580
459,0.1398
460,0.1750
461,0.1631
462,0.1648
463,0.1688
464,0.1650
465,0.1562
466,0.1774
467,0.1699
468,0.1815
469,0.1874
470,0.1777
471,0.1767
472,0.1846
473,0.1837
474,0.1834
475,0.1795
476,0.1918
477,0.1892
478,0.1894
479,0.2008
480,0.2004
481,0.1718
482,0.1859
483,0.1876
484,0.1772
485,0.1848
486,0.1764
487,0.1798
488,0.1718
489,0.1714
490,0.1711
491,0.1657
492,0.1652
493,0.1781
494,0.1673
495,0.1753
496,0.1723
497,0.1632
498,0.1729
499,0.1630
500,0.1759
501,0.1733
502,0.1767
503,0.1690
504,0.1720
505,0.1674
506,0.1734
507,0.1734
508,0.1759
509,0.1689
510,0.1666
511,0.1620
512,0.1574
513,0.1566
514,0.1563
515,0.1540
516,0.1474
517,0.1428
518,0.1410
519,0.1376
520,0.1342
521,0.1290
522,0.1272
523,0.1210
524,0.1226
525,0.1122
526,0.1126
527,0.1102
528,0.1075
529,0.1021
530,0.0988
531,0.0970
532,0.0944
533,0.0897
534,0.0893
535,0.0834
536,0.0835
537,0.0799
538,0.0796
539,0.0780
540,0.0761
541,0.0739
542,0.0732
543,0.0718
544,0.0719
545,0.0711
546,0.0730
547,0.0713
548,0.0711
549,0.0702
550,0.0711
551,0.0721
552,0.0728
553,0.0747
554,0.0769
555,0.0756
556,0.0797
557,0.0816
558,0.0839
559,0.0848
560,0.0861
561,0.0869
562,0.0907
563,0.0927
564,0.0940
565,0.0944
566,0.0957
567,0.0972
568,0.0995
569,0.1017
570,0.1011
571,0.1023
572,0.1042
573,0.1031
574,0.1054
575,0.1042
576,0.1042
577,0.1035
578,0.1036
579,0.1030
580,0.1052
581,0.1019
582,0.0993
583,0.0980
584,0.0988
585,0.0971
586,0.0944
587,0.0936
588,0.0916
589,0.0899
590,0.0881
591,0.0852
592,0.0830
593,0.0821
594,0.0807
595,0.0792
596,0.0765
597,0.0756
598,0.0735
599,0.0729
600,0.0700
601,0.0699
602,0.0668
603,0.0658
604,0.0645
605,0.0635
606,0.0614
607,0.0620
608,0.0619
609,0.0609
610,0.0595
611,0.0588
612,0.0590
613,0.0596
614,0.0587
615,0.0579
616,0.0591
617,0.0582
618,0.0597
619,0.0610
620,0.0601
621,0.0623
622,0.0632
623,0.0637
624,0.0645
625,0.0661
626,0.0662
627,0.0685
628,0.0699
629,0.0713
630,0.0716
631,0.0728
632,0.0738
633,0.0731
634,0.0753
635,0.0755
636,0.0787
637,0.0802
638,0.0802
639,0.0818
640,0.0840
641,0.0853
642,0.0851
643,0.0860
644,0.0871
645,0.0862
646,0.0877
647,0.0876
648,0.0878
649,0.0895
650,0.0888
651,0.0889
652,0.0900
653,0.0889
654,0.0883
655,0.0879
656,0.0865
657,0.0855
658,0.0866
659,0.0859
660,0.0854
661,0.0832
662,0.0834
663,0.0821
664,0.0810
665,0.0803
666,0.0796
667,0.0810
668,0.0791
669,0.0784
670,0.0760
671,0.0771
672,0.0744
673,0.0727
674,0.0716
675,0.0702
676,0.0700
677,0.0681
678,0.0672
679,0.0657
680,0.0654
681,0.0627
682,0.0629
683,0.0610
684,0.0598
685,0.0582
686,0.0570
687,0.0569
688,0.0561
689,0.0564
690,0.0551
691,0.0550
692,0.0542
693,0.0526
694,0.0529
695,0.0517
696,0.0505
697,0.0509
698,0.0513
699,0.0501
700,0.0510
701,0.0508
702,0.0481
703,0.0488
704,0.0482
705,0.0484
706,0.0490
707,0.0486
708,0.0500
709,0.0504
710,0.0514
711,0.0527
712,0.0519
713,0.0518
714,0.0534
715,0.0538
716,0.0537
717,0.0552
718,0.0545
719,0.0552
720,0.0561
721,0.0547
722,0.0544
723,0.0571
724,0.0551
725,0.0567
726,0.0588
727,0.0596
728,0.0600
729,0.0601
730,0.0612
731,0.0619
732,0.0639
733,0.0637
734,0.0661
735,0.0665
736,0.0668
737,0.0677
738,0.0667
739,0.0680
740,0.0677
741,0.0701
742,0.0708
743,0.0702
744,0.0715
745,0.0722
746,0.0727
747,0.0728
748,0.0744
749,0.0733
750,0.0749
751,0.0736
752,0.0766
753,0.0756
754,0.0772
755,0.0775
756,0.0773
757,0.0769
758,0.0775
759,0.0770
760,0.0770
761,0.0765
762,0.0743
763,0.0760
764,0.0766
765,0.0758
766,0.0745
767,0.0736
768,0.0732
769,0.0711
770,0.0697
771,0.0716
772,0.0698
773,0.0689
774,0.0681
775,0.0672
776,0.0668
777,0.0653
778,0.0653
779,0.0642
780,0.0622
781,0.0644
782,0.0611
783,0.0616
784,0.0598
785,0.0589
786,0.0581
787,0.0580
788,0.0559
789,0.0562
790,0.0545
791,0.0530
792,0.0520
793,0.0512
794,0.0509
795,0.0503
796,0.0502
797,0.0497
798,0.0491
799,0.0472
800,0.0473
801,0.0463
802,0.0460
803,0.0478
804,0.0447
805,0.0453
806,0.0440
807,0.0449
808,0.0460
809,0.0451
810,0.0465
811,0.0440
812,0.0429
813,0.0445
814,0.0441
815,0.0432
816,0.0450
817,0.0436
818,0.0433
819,0.0438
820,0.0432
821,0.0431
822,0.0442
823,0.0411
824,0.0425
825,0.0440
826,0.0438
827,0.0424
828,0.0422
829,0.0418
830,0.0425
831,0.0446
832,0.0439
833,0.0419
834,0.0428
835,0.0431
836,0.0433
837,0.0433
838,0.0439
839,0.0436
840,0.0434
841,0.0425
842,0.0440
843,0.0425
844,0.0448
845,0.0441
846,0.0470
847,0.0441
848,0.0449
849,0.0473
850,0.0475
851,0.0476
852,0.0485
853,0.0485
854,0.0495
855,0.0496
856,0.0505
857,0.0529
858,0.0515
859,0.0511
860,0.0520
861,0.0534
862,0.0542
863,0.0548
864,0.0553
865,0.0551
866,0.0553
867,0.0561
868,0.0554
869,0.0545
870,0.0576
871,0.0589
872,0.0567
873,0.0558
874,0.0562
875,0.0582
876,0.0573
877,0.0584
878,0.0592
879,0.0632
880,0.0614
881,0.0611
882,0.0601
883,0.0631
884,0.0626
885,0.0655
886,0.0660
887,0.0681
888,0.0681
889,0.0677
890,0.0726
891,0.0718
892,0.0738
893,0.0757
894,0.0777
895,0.0791
896,0.0778
897,0.0806
898,0.0782
899,0.0793
900,0.0840
901,0.0827
902,0.0831
903,0.0815
904,0.0868
905,0.0877
906,0.0865
907,0.0862
908,0.0872
909,0.0875
910,0.0862
911,0.0799
912,0.0830
913,0.0765
914,0.0799
915,0.0769
916,0.0753
917,0.0734
918,0.0713
919,0.0672
920,0.0692
921,0.0629
922,0.0594
923,0.0603
924,0.0563
925,0.0574
926,0.0513
927,0.0520
928,0.0478
929,0.0475
930,0.0457
931,0.0434
932,0.0425
933,0.0353
934,0.0352
935,0.0309
936,0.0267
937,0.0252
938,0.0220
939,0.0188
940,0.0162
941,0.0163
942,0.0152
943,0.0105
944,0.0135
945,0.0127
946,0.0124
947,0.0187
