382,NaN
383,0.0077
384,0.0000
385,0.0000
386,0.0000
387,0.2044
388,0.2564
389,0.1924
390,0.0000
391,0.1170
392,0.0800
393,0.0811
394,0.2287
395,0.0000
396,0.0879
397,0.0675
398,0.2170
399,0.1567
400,0.2925
401,0.3379
402,0.0000
403,0.3450
404,0.2274
405,0.2254
406,0.2637
407,0.3222
408,0.3534
409,0.2557
410,0.1947
411,0.2498
412,0.1972
413,0.2483
414,0.2005
415,0.1275
416,0.1126
417,0.1549
418,0.0923
419,0.0557
420,0.0629
421,0.0136
422,0.0987
423,0.0778
424,0.0743
425,0.1010
426,0.0866
427,0.0661
428,0.1097
429,0.1069
430,0.1521
431,0.1383
432,0.1926
433,0.1744
434,0.2186
435,0.2105
436,0.2657
437,0.2494
438,0.2468
439,0.2437
440,0.2563
441,0.2514
442,0.2967
443,0.2750
444,0.2398
445,0.2602
446,0.2182
447,0.2199
448,0.1845
449,0.1815
450,0.1688
451,0.1200
452,0.1178
453,0.1147
454,0.1175
455,0.1098
456,0.0793
457,0.0654
458,0.0618
459,0.0517
460,0.0643
461,0.0768
462,0.0430
463,0.0859
464,0.0525
465,0.0597
466,0.0818
467,0.0861
468,0.1150
469,0.1370
470,0.1224
471,0.1443
472,0.1669
473,0.1770
474,0.2025
475,0.2331
476,0.2400
477,0.2461
478,0.2711
479,0.2984
480,0.2956
481,0.2962
482,0.3291
483,0.3434
484,0.3303
485,0.3237
486,0.3397
487,0.3287
488,0.3232
489,0.3048
490,0.2888
491,0.2706
492,0.2570
493,0.2498
494,0.2271
495,0.2049
496,0.1809
497,0.1525
498,0.1446
499,0.1138
500,0.1105
501,0.0908
502,0.0830
503,0.0695
504,0.0642
505,0.0543
506,0.0555
507,0.0541
508,0.0546
509,0.0570
510,0.0604
511,0.0605
512,0.0672
513,0.0705
514,0.0776
515,0.0845
516,0.0874
517,0.0986
518,0.0995
519,0.1083
520,0.1177
521,0.1198
522,0.1309
523,0.1328
524,0.1370
525,0.1410
526,0.1474
527,0.1505
528,0.1547
529,0.1537
530,0.1563
531,0.1527
532,0.1557
533,0.1539
534,0.1570
535,0.1514
536,0.1509
537,0.1476
538,0.1443
539,0.1376
540,0.1354
541,0.1327
542,0.1234
543,0.1167
544,0.1130
545,0.1032
546,0.0986
547,0.0939
548,0.0876
549,0.0804
550,0.0725
551,0.0673
552,0.0627
553,0.0566
554,0.0534
555,0.0490
556,0.0448
557,0.0421
558,0.0384
559,0.0360
560,0.0346
561,0.0327
562,0.0324
563,0.0327
564,0.0335
565,0.0343
566,0.0355
567,0.0374
568,0.0407
569,0.0443
570,0.0484
571,0.0518
572,0.0561
573,0.0617
574,0.0654
575,0.0686
576,0.0753
577,0.0803
578,0.0825
579,0.0886
580,0.0931
581,0.0967
582,0.1009
583,0.1041
584,0.1083
585,0.1108
586,0.1159
587,0.1168
588,0.1198
589,0.1202
590,0.1243
591,0.1253
592,0.1269
593,0.1257
594,0.1269
595,0.1253
596,0.1253
597,0.1243
598,0.1235
599,0.1231
600,0.1216
601,0.1191
602,0.1166
603,0.1118
604,0.1123
605,0.1065
606,0.1025
607,0.1013
608,0.0966
609,0.0924
610,0.0897
611,0.0859
612,0.0822
613,0.0783
614,0.0736
615,0.0701
616,0.0668
617,0.0624
618,0.0598
619,0.0557
620,0.0512
621,0.0480
622,0.0467
623,0.0434
624,0.0401
625,0.0381
626,0.0355
627,0.0335
628,0.0331
629,0.0321
630,0.0297
631,0.0306
632,0.0285
633,0.0293
634,0.0291
635,0.0296
636,0.0314
637,0.0337
638,0.0341
639,0.0350
640,0.0382
641,0.0410
642,0.0419
643,0.0441
644,0.0471
645,0.0501
646,0.0530
647,0.0563
648,0.0602
649,0.0621
650,0.0651
651,0.0670
652,0.0708
653,0.0740
654,0.0761
655,0.0787
656,0.0817
657,0.0846
658,0.0865
659,0.0892
660,0.0904
661,0.0934
662,0.0946
663,0.0972
664,0.0986
665,0.1020
666,0.1020
667,0.1070
668,0.1063
669,0.1059
670,0.1072
671,0.1083
672,0.1076
673,0.1073
674,0.1065
675,0.1071
676,0.1089
677,0.1066
678,0.1051
679,0.1049
680,0.1048
681,0.1031
682,0.1024
683,0.1004
684,0.0976
685,0.0964
686,0.0947
687,0.0926
688,0.0925
689,0.0897
690,0.0873
691,0.0844
692,0.0830
693,0.0791
694,0.0769
695,0.0737
696,0.0722
697,0.0706
698,0.0678
699,0.0632
700,0.0632
701,0.0587
702,0.0551
703,0.0526
704,0.0498
705,0.0473
706,0.0459
707,0.0424
708,0.0417
709,0.0401
710,0.0362
711,0.0361
712,0.0334
713,0.0320
714,0.0301
715,0.0295
716,0.0281
717,0.0273
718,0.0267
719,0.0265
720,0.0247
721,0.0234
722,0.0230
723,0.0236
724,0.0241
725,0.0242
726,0.0241
727,0.0250
728,0.0255
729,0.0268
730,0.0271
731,0.0279
732,0.0298
733,0.0308
734,0.0330
735,0.0343
736,0.0344
737,0.0370
738,0.0383
739,0.0404
740,0.0404
741,0.0445
742,0.0454
743,0.0468
744,0.0494
745,0.0524
746,0.0525
747,0.0555
748,0.0590
749,0.0600
750,0.0620
751,0.0646
752,0.0671
753,0.0698
754,0.0712
755,0.0731
756,0.0741
757,0.0772
758,0.0772
759,0.0802
760,0.0817
761,0.0820
762,0.0834
763,0.0844
764,0.0853
765,0.0880
766,0.0891
767,0.0879
768,0.0897
769,0.0894
770,0.0897
771,0.0916
772,0.0909
773,0.0911
774,0.0923
775,0.0933
776,0.0923
777,0.0923
778,0.0921
779,0.0924
780,0.0923
781,0.0929
782,0.0918
783,0.0898
784,0.0893
785,0.0889
786,0.0885
787,0.0884
788,0.0873
789,0.0848
790,0.0846
791,0.0794
792,0.0808
793,0.0795
794,0.0773
795,0.0768
796,0.0745
797,0.0757
798,0.0723
799,0.0727
800,0.0716
801,0.0710
802,0.0684
803,0.0697
804,0.0668
805,0.0658
806,0.0630
807,0.0624
808,0.0614
809,0.0594
810,0.0601
811,0.0579
812,0.0557
813,0.0544
814,0.0522
815,0.0495
816,0.0483
817,0.0472
818,0.0453
819,0.0451
820,0.0434
821,0.0426
822,0.0393
823,0.0370
824,0.0349
825,0.0350
826,0.0340
827,0.0319
828,0.0312
829,0.0287
830,0.0278
831,0.0274
832,0.0259
833,0.0248
834,0.0245
835,0.0237
836,0.0215
837,0.0221
838,0.0215
839,0.0202
840,0.0195
841,0.0201
842,0.0205
843,0.0196
844,0.0208
845,0.0197
846,0.0198
847,0.0201
848,0.0216
849,0.0224
850,0.0212
851,0.0229
852,0.0233
853,0.0241
854,0.0252
855,0.0246
856,0.0240
857,0.0270
858,0.0275
859,0.0271
860,0.0280
861,0.0299
862,0.0305
863,0.0332
864,0.0333
865,0.0334
866,0.0359
867,0.0366
868,0.0360
869,0.0378
870,0.0392
871,0.0416
872,0.0417
873,0.0406
874,0.0446
875,0.0433
876,0.0446
877,0.0460
878,0.0477
879,0.0488
880,0.0523
881,0.0521
882,0.0534
883,0.0560
884,0.0563
885,0.0597
886,0.0595
887,0.0650
888,0.0662
889,0.0686
890,0.0703
891,0.0714
892,0.0734
893,0.0771
894,0.0794
895,0.0830
896,0.0836
897,0.0816
898,0.0850
899,0.0882
900,0.0917
901,0.0939
902,0.0919
903,0.0945
904,0.0970
905,0.1021
906,0.1033
907,0.1064
908,0.1034
909,0.1030
910,0.1060
911,0.1014
912,0.0993
913,0.0986
914,0.1007
915,0.0975
916,0.0977
917,0.0924
918,0.0929
919,0.0883
920,0.0877
921,0.0850
922,0.0821
923,0.0761
924,0.0782
925,0.0757
926,0.0727
927,0.0715
928,0.0689
929,0.0692
930,0.0653
931,0.0605
932,0.0580
933,0.0564
934,0.0520
935,0.0492
936,0.0426
937,0.0392
938,0.0323
939,0.0258
940,0.0256
941,0.0226
942,0.0199
943,0.0202
944,0.0186
945,0.0192
946,0.0178
947,0.0248
