382,NaN
383,1.0000
384,1.0000
385,0.0000
386,1.0000
387,0.2637
388,0.4455
389,0.2406
390,0.0675
391,0.2096
392,0.4282
393,0.4744
394,0.0863
395,0.0030
396,0.1895
397,0.0000
398,0.2784
399,0.2254
400,0.2592
401,0.3277
402,0.0334
403,0.2318
404,0.1453
405,0.1600
406,0.1363
407,0.1090
408,0.2021
409,0.0920
410,0.2418
411,0.0888
412,0.2191
413,0.1537
414,0.1406
415,0.2136
416,0.1645
417,0.2864
418,0.1718
419,0.1907
420,0.1899
421,0.1502
422,0.1893
423,0.1687
424,0.1787
425,0.1574
426,0.2188
427,0.1370
428,0.2033
429,0.1428
430,0.1712
431,0.1901
432,0.1556
433,0.1430
434,0.1386
435,0.1588
436,0.1397
437,0.1252
438,0.1446
439,0.0786
440,0.1342
441,0.1158
442,0.1149
443,0.1525
444,0.1088
445,0.1304
446,0.1065
447,0.1250
448,0.0969
449,0.1269
450,0.1673
451,0.1196
452,0.1348
453,0.1603
454,0.1710
455,0.1702
456,0.1667
457,0.1567
458,0.1766
459,0.1709
460,0.1741
461,0.1695
462,0.1914
463,0.1959
464,0.1923
465,0.1701
466,0.1869
467,0.1752
468,0.1743
469,0.1790
470,0.1759
471,0.1685
472,0.1685
473,0.1719
474,0.1585
475,0.1542
476,0.1661
477,0.1746
478,0.1637
479,0.1767
480,0.1695
481,0.1455
482,0.1547
483,0.1511
484,0.1589
485,0.1704
486,0.1620
487,0.1681
488,0.1651
489,0.1635
490,0.1789
491,0.1829
492,0.1798
493,0.1864
494,0.1933
495,0.1931
496,0.1967
497,0.1893
498,0.2009
499,0.1935
500,0.2016
501,0.1995
502,0.2075
503,0.1952
504,0.1932
505,0.1920
506,0.1932
507,0.1909
508,0.1898
509,0.1843
510,0.1750
511,0.1650
512,0.1600
513,0.1576
514,0.1551
515,0.1484
516,0.1395
517,0.1325
518,0.1268
519,0.1229
520,0.1222
521,0.1143
522,0.1094
523,0.1022
524,0.1019
525,0.0958
526,0.0937
527,0.0907
528,0.0866
529,0.0856
530,0.0827
531,0.0791
532,0.0791
533,0.0766
534,0.0774
535,0.0746
536,0.0734
537,0.0719
538,0.0743
539,0.0746
540,0.0737
541,0.0740
542,0.0736
543,0.0747
544,0.0745
545,0.0773
546,0.0801
547,0.0806
548,0.0807
549,0.0826
550,0.0842
551,0.0847
552,0.0885
553,0.0913
554,0.0934
555,0.0915
556,0.0944
557,0.0967
558,0.0983
559,0.1007
560,0.1010
561,0.1025
562,0.1042
563,0.1031
564,0.1034
565,0.1039
566,0.1035
567,0.1042
568,0.1053
569,0.1063
570,0.1053
571,0.1049
572,0.1047
573,0.1008
574,0.1010
575,0.0974
576,0.0978
577,0.0968
578,0.0941
579,0.0932
580,0.0916
581,0.0891
582,0.0864
583,0.0833
584,0.0826
585,0.0800
586,0.0787
587,0.0747
588,0.0738
589,0.0717
590,0.0713
591,0.0691
592,0.0681
593,0.0666
594,0.0651
595,0.0628
596,0.0628
597,0.0604
598,0.0614
599,0.0593
600,0.0589
601,0.0586
602,0.0598
603,0.0587
604,0.0595
605,0.0601
606,0.0589
607,0.0606
608,0.0594
609,0.0612
610,0.0619
611,0.0641
612,0.0641
613,0.0663
614,0.0673
615,0.0687
616,0.0690
617,0.0700
618,0.0715
619,0.0727
620,0.0746
621,0.0762
622,0.0793
623,0.0811
624,0.0822
625,0.0819
626,0.0845
627,0.0850
628,0.0869
629,0.0878
630,0.0893
631,0.0904
632,0.0886
633,0.0903
634,0.0891
635,0.0904
636,0.0910
637,0.0927
638,0.0917
639,0.0927
640,0.0916
641,0.0932
642,0.0916
643,0.0911
644,0.0913
645,0.0901
646,0.0889
647,0.0886
648,0.0876
649,0.0864
650,0.0853
651,0.0854
652,0.0826
653,0.0819
654,0.0791
655,0.0778
656,0.0760
657,0.0748
658,0.0747
659,0.0725
660,0.0716
661,0.0690
662,0.0680
663,0.0663
664,0.0658
665,0.0639
666,0.0618
667,0.0624
668,0.0607
669,0.0603
670,0.0584
671,0.0584
672,0.0556
673,0.0564
674,0.0535
675,0.0528
676,0.0521
677,0.0516
678,0.0517
679,0.0499
680,0.0497
681,0.0502
682,0.0496
683,0.0495
684,0.0490
685,0.0486
686,0.0485
687,0.0472
688,0.0489
689,0.0493
690,0.0494
691,0.0494
692,0.0502
693,0.0505
694,0.0518
695,0.0519
696,0.0521
697,0.0545
698,0.0552
699,0.0563
700,0.0556
701,0.0582
702,0.0571
703,0.0596
704,0.0600
705,0.0605
706,0.0635
707,0.0625
708,0.0636
709,0.0650
710,0.0665
711,0.0673
712,0.0681
713,0.0695
714,0.0705
715,0.0716
716,0.0727
717,0.0726
718,0.0734
719,0.0732
720,0.0731
721,0.0719
722,0.0720
723,0.0736
724,0.0726
725,0.0741
726,0.0739
727,0.0753
728,0.0746
729,0.0742
730,0.0743
731,0.0755
732,0.0757
733,0.0756
734,0.0773
735,0.0762
736,0.0762
737,0.0761
738,0.0761
739,0.0759
740,0.0749
741,0.0750
742,0.0752
743,0.0728
744,0.0736
745,0.0728
746,0.0726
747,0.0723
748,0.0725
749,0.0699
750,0.0701
751,0.0706
752,0.0698
753,0.0696
754,0.0693
755,0.0684
756,0.0653
757,0.0673
758,0.0654
759,0.0648
760,0.0637
761,0.0614
762,0.0616
763,0.0610
764,0.0607
765,0.0600
766,0.0561
767,0.0566
768,0.0545
769,0.0535
770,0.0527
771,0.0517
772,0.0503
773,0.0497
774,0.0493
775,0.0476
776,0.0484
777,0.0459
778,0.0453
779,0.0444
780,0.0440
781,0.0439
782,0.0424
783,0.0431
784,0.0416
785,0.0418
786,0.0407
787,0.0406
788,0.0403
789,0.0391
790,0.0377
791,0.0374
792,0.0375
793,0.0376
794,0.0376
795,0.0370
796,0.0382
797,0.0379
798,0.0376
799,0.0384
800,0.0388
801,0.0384
802,0.0391
803,0.0396
804,0.0399
805,0.0407
806,0.0410
807,0.0426
808,0.0433
809,0.0437
810,0.0468
811,0.0461
812,0.0459
813,0.0471
814,0.0469
815,0.0477
816,0.0501
817,0.0507
818,0.0514
819,0.0550
820,0.0559
821,0.0555
822,0.0553
823,0.0563
824,0.0550
825,0.0567
826,0.0599
827,0.0579
828,0.0582
829,0.0594
830,0.0593
831,0.0612
832,0.0603
833,0.0622
834,0.0615
835,0.0621
836,0.0621
837,0.0630
838,0.0633
839,0.0616
840,0.0623
841,0.0617
842,0.0635
843,0.0624
844,0.0637
845,0.0620
846,0.0635
847,0.0633
848,0.0660
849,0.0636
850,0.0641
851,0.0675
852,0.0662
853,0.0653
854,0.0669
855,0.0662
856,0.0670
857,0.0672
858,0.0667
859,0.0672
860,0.0681
861,0.0688
862,0.0686
863,0.0679
864,0.0667
865,0.0676
866,0.0668
867,0.0662
868,0.0659
869,0.0659
870,0.0649
871,0.0634
872,0.0643
873,0.0614
874,0.0619
875,0.0608
876,0.0597
877,0.0609
878,0.0616
879,0.0629
880,0.0628
881,0.0610
882,0.0605
883,0.0618
884,0.0619
885,0.0630
886,0.0617
887,0.0659
888,0.0636
889,0.0649
890,0.0661
891,0.0650
892,0.0659
893,0.0666
894,0.0657
895,0.0673
896,0.0668
897,0.0625
898,0.0664
899,0.0668
900,0.0683
901,0.0676
902,0.0630
903,0.0641
904,0.0659
905,0.0664
906,0.0631
907,0.0642
908,0.0624
909,0.0652
910,0.0620
911,0.0555
912,0.0581
913,0.0544
914,0.0537
915,0.0532
916,0.0500
917,0.0481
918,0.0460
919,0.0452
920,0.0449
921,0.0401
922,0.0405
923,0.0372
924,0.0358
925,0.0352
926,0.0340
927,0.0336
928,0.0311
929,0.0306
930,0.0283
931,0.0278
932,0.0263
933,0.0210
934,0.0224
935,0.0205
936,0.0165
937,0.0124
938,0.0143
939,0.0115
940,0.0110
941,0.0077
942,0.0092
943,0.0080
944,0.0060
945,0.0064
946,0.0063
947,0.0129
