382,NaN
383,0.0747
384,0.7267
385,1.0000
386,1.0000
387,0.1692
388,0.3590
389,0.1233
390,0.0000
391,0.1798
392,0.3076
393,0.1567
394,0.0000
395,0.0000
396,0.2965
397,0.1057
398,0.1157
399,0.1666
400,0.3106
401,0.3095
402,0.0442
403,0.1493
404,0.1610
405,0.0944
406,0.2123
407,0.2241
408,0.2022
409,0.1888
410,0.2836
411,0.1885
412,0.1818
413,0.2047
414,0.1853
415,0.2038
416,0.2245
417,0.2171
418,0.1085
419,0.1276
420,0.1691
421,0.1034
422,0.0927
423,0.1136
424,0.0900
425,0.0985
426,0.1513
427,0.0936
428,0.1620
429,0.0936
430,0.1343
431,0.1248
432,0.1618
433,0.0993
434,0.0992
435,0.1416
436,0.1558
437,0.1767
438,0.1689
439,0.1577
440,0.1985
441,0.1876
442,0.1589
443,0.1920
444,0.1831
445,0.1918
446,0.1804
447,0.1930
448,0.1816
449,0.1867
450,0.1646
451,0.1541
452,0.1579
453,0.1972
454,0.1893
455,0.1715
456,0.1717
457,0.1465
458,0.1386
459,0.1348
460,0.1391
461,0.1396
462,0.1323
463,0.1439
464,0.1313
465,0.1096
466,0.1368
467,0.1092
468,0.1171
469,0.1327
470,0.1274
471,0.1172
472,0.1360
473,0.1338
474,0.1403
475,0.1374
476,0.1567
477,0.1658
478,0.1612
479,0.1918
480,0.1812
481,0.1812
482,0.1935
483,0.2017
484,0.1982
485,0.2275
486,0.2338
487,0.2367
488,0.2273
489,0.2442
490,0.2374
491,0.2444
492,0.2398
493,0.2604
494,0.2482
495,0.2416
496,0.2421
497,0.2239
498,0.2310
499,0.2115
500,0.2145
501,0.2123
502,0.2057
503,0.1802
504,0.1765
505,0.1723
506,0.1723
507,0.1620
508,0.1565
509,0.1443
510,0.1387
511,0.1259
512,0.1191
513,0.1151
514,0.1136
515,0.1117
516,0.1006
517,0.1016
518,0.0933
519,0.0943
520,0.0925
521,0.0864
522,0.0870
523,0.0840
524,0.0857
525,0.0849
526,0.0862
527,0.0877
528,0.0882
529,0.0867
530,0.0882
531,0.0885
532,0.0896
533,0.0883
534,0.0909
535,0.0917
536,0.0928
537,0.0951
538,0.0950
539,0.0957
540,0.0961
541,0.0991
542,0.0980
543,0.0982
544,0.0991
545,0.1007
546,0.1025
547,0.1003
548,0.1019
549,0.1016
550,0.1033
551,0.1013
552,0.1027
553,0.1030
554,0.1003
555,0.0991
556,0.0990
557,0.0996
558,0.0988
559,0.0965
560,0.0934
561,0.0924
562,0.0934
563,0.0928
564,0.0915
565,0.0891
566,0.0851
567,0.0854
568,0.0845
569,0.0840
570,0.0833
571,0.0822
572,0.0799
573,0.0796
574,0.0772
575,0.0769
576,0.0769
577,0.0762
578,0.0723
579,0.0727
580,0.0737
581,0.0700
582,0.0709
583,0.0686
584,0.0712
585,0.0695
586,0.0706
587,0.0691
588,0.0689
589,0.0683
590,0.0709
591,0.0692
592,0.0707
593,0.0704
594,0.0735
595,0.0706
596,0.0711
597,0.0707
598,0.0724
599,0.0743
600,0.0761
601,0.0750
602,0.0772
603,0.0769
604,0.0778
605,0.0780
606,0.0773
607,0.0798
608,0.0806
609,0.0800
610,0.0811
611,0.0819
612,0.0837
613,0.0836
614,0.0834
615,0.0851
616,0.0835
617,0.0841
618,0.0857
619,0.0853
620,0.0850
621,0.0847
622,0.0853
623,0.0855
624,0.0855
625,0.0862
626,0.0844
627,0.0852
628,0.0851
629,0.0846
630,0.0843
631,0.0843
632,0.0810
633,0.0799
634,0.0789
635,0.0770
636,0.0771
637,0.0773
638,0.0759
639,0.0760
640,0.0761
641,0.0745
642,0.0735
643,0.0723
644,0.0726
645,0.0707
646,0.0706
647,0.0695
648,0.0695
649,0.0669
650,0.0660
651,0.0668
652,0.0647
653,0.0638
654,0.0638
655,0.0626
656,0.0625
657,0.0610
658,0.0623
659,0.0610
660,0.0606
661,0.0597
662,0.0592
663,0.0591
664,0.0596
665,0.0606
666,0.0590
667,0.0600
668,0.0594
669,0.0595
670,0.0609
671,0.0615
672,0.0605
673,0.0602
674,0.0595
675,0.0607
676,0.0618
677,0.0618
678,0.0621
679,0.0608
680,0.0629
681,0.0627
682,0.0639
683,0.0638
684,0.0641
685,0.0651
686,0.0654
687,0.0650
688,0.0666
689,0.0671
690,0.0678
691,0.0685
692,0.0681
693,0.0688
694,0.0686
695,0.0701
696,0.0705
697,0.0710
698,0.0709
699,0.0726
700,0.0731
701,0.0715
702,0.0719
703,0.0720
704,0.0712
705,0.0728
706,0.0719
707,0.0722
708,0.0727
709,0.0719
710,0.0717
711,0.0727
712,0.0730
713,0.0726
714,0.0712
715,0.0704
716,0.0704
717,0.0709
718,0.0701
719,0.0696
720,0.0679
721,0.0656
722,0.0656
723,0.0650
724,0.0647
725,0.0638
726,0.0638
727,0.0641
728,0.0625
729,0.0612
730,0.0613
731,0.0609
732,0.0612
733,0.0595
734,0.0609
735,0.0607
736,0.0589
737,0.0602
738,0.0590
739,0.0581
740,0.0578
741,0.0580
742,0.0575
743,0.0564
744,0.0560
745,0.0566
746,0.0554
747,0.0548
748,0.0565
749,0.0551
750,0.0541
751,0.0542
752,0.0548
753,0.0550
754,0.0562
755,0.0559
756,0.0549
757,0.0547
758,0.0542
759,0.0551
760,0.0540
761,0.0534
762,0.0534
763,0.0530
764,0.0547
765,0.0529
766,0.0525
767,0.0525
768,0.0520
769,0.0523
770,0.0517
771,0.0522
772,0.0513
773,0.0514
774,0.0519
775,0.0517
776,0.0529
777,0.0512
778,0.0524
779,0.0539
780,0.0524
781,0.0531
782,0.0519
783,0.0534
784,0.0529
785,0.0541
786,0.0545
787,0.0541
788,0.0541
789,0.0543
790,0.0539
791,0.0526
792,0.0552
793,0.0543
794,0.0549
795,0.0552
796,0.0545
797,0.0561
798,0.0550
799,0.0557
800,0.0586
801,0.0574
802,0.0566
803,0.0602
804,0.0590
805,0.0603
806,0.0599
807,0.0634
808,0.0616
809,0.0624
810,0.0657
811,0.0641
812,0.0647
813,0.0653
814,0.0650
815,0.0647
816,0.0653
817,0.0666
818,0.0661
819,0.0666
820,0.0675
821,0.0702
822,0.0675
823,0.0673
824,0.0672
825,0.0680
826,0.0673
827,0.0658
828,0.0650
829,0.0660
830,0.0648
831,0.0632
832,0.0614
833,0.0617
834,0.0610
835,0.0616
836,0.0595
837,0.0587
838,0.0591
839,0.0572
840,0.0580
841,0.0571
842,0.0590
843,0.0552
844,0.0559
845,0.0542
846,0.0545
847,0.0539
848,0.0533
849,0.0533
850,0.0526
851,0.0537
852,0.0514
853,0.0520
854,0.0523
855,0.0520
856,0.0504
857,0.0527
858,0.0494
859,0.0490
860,0.0496
861,0.0506
862,0.0495
863,0.0491
864,0.0487
865,0.0462
866,0.0496
867,0.0468
868,0.0474
869,0.0466
870,0.0456
871,0.0466
872,0.0456
873,0.0442
874,0.0449
875,0.0432
876,0.0436
877,0.0446
878,0.0439
879,0.0441
880,0.0452
881,0.0418
882,0.0430
883,0.0438
884,0.0450
885,0.0467
886,0.0460
887,0.0483
888,0.0457
889,0.0476
890,0.0502
891,0.0493
892,0.0487
893,0.0521
894,0.0531
895,0.0510
896,0.0524
897,0.0529
898,0.0530
899,0.0534
900,0.0552
901,0.0576
902,0.0549
903,0.0540
904,0.0560
905,0.0550
906,0.0582
907,0.0606
908,0.0582
909,0.0574
910,0.0608
911,0.0564
912,0.0563
913,0.0513
914,0.0559
915,0.0556
916,0.0525
917,0.0505
918,0.0511
919,0.0489
920,0.0530
921,0.0451
922,0.0452
923,0.0436
924,0.0455
925,0.0437
926,0.0417
927,0.0433
928,0.0414
929,0.0397
930,0.0392
931,0.0370
932,0.0353
933,0.0347
934,0.0350
935,0.0296
936,0.0268
937,0.0242
938,0.0232
939,0.0196
940,0.0169
941,0.0152
942,0.0143
943,0.0136
944,0.0124
945,0.0148
946,0.0115
947,0.0218
