382,NaN
383,0.3747
384,1.0000
385,1.0000
386,1.0000
387,0.1587
388,0.3103
389,0.2040
390,0.1341
391,0.4128
392,0.2500
393,0.1584
394,0.1111
395,0.0000
396,0.1537
397,0.0430
398,0.0136
399,0.0654
400,0.1165
401,0.2686
402,0.1085
403,0.2111
404,0.1576
405,0.1979
406,0.1793
407,0.1430
408,0.1520
409,0.1917
410,0.0931
411,0.1691
412,0.2307
413,0.2698
414,0.2093
415,0.2472
416,0.2012
417,0.2202
418,0.1933
419,0.1903
420,0.1964
421,0.1885
422,0.2209
423,0.2107
424,0.1687
425,0.1618
426,0.2012
427,0.1396
428,0.1748
429,0.1273
430,0.1706
431,0.0985
432,0.1515
433,0.0810
434,0.1033
435,0.0993
436,0.1061
437,0.1030
438,0.0982
439,0.0721
440,0.1031
441,0.1035
442,0.0917
443,0.0906
444,0.1018
445,0.0988
446,0.0989
447,0.1040
448,0.0770
449,0.1415
450,0.1603
451,0.1158
452,0.1391
453,0.1733
454,0.1909
455,0.2037
456,0.1892
457,0.2156
458,0.2072
459,0.2139
460,0.2093
461,0.2326
462,0.2404
463,0.2427
464,0.2318
465,0.2229
466,0.2443
467,0.2296
468,0.2410
469,0.2250
470,0.1992
471,0.2019
472,0.1978
473,0.1902
474,0.1834
475,0.1780
476,0.1713
477,0.1676
478,0.1449
479,0.1455
480,0.1278
481,0.1165
482,0.1055
483,0.1003
484,0.0809
485,0.0845
486,0.0788
487,0.0887
488,0.0709
489,0.0715
490,0.0847
491,0.0780
492,0.0813
493,0.1010
494,0.1012
495,0.1112
496,0.1182
497,0.1164
498,0.1379
499,0.1389
500,0.1536
501,0.1600
502,0.1762
503,0.1776
504,0.1823
505,0.1884
506,0.1975
507,0.2026
508,0.2158
509,0.2068
510,0.2088
511,0.2070
512,0.2068
513,0.2018
514,0.2086
515,0.1994
516,0.1938
517,0.1877
518,0.1805
519,0.1780
520,0.1738
521,0.1647
522,0.1620
523,0.1530
524,0.1467
525,0.1418
526,0.1354
527,0.1294
528,0.1232
529,0.1138
530,0.1058
531,0.1006
532,0.0949
533,0.0894
534,0.0839
535,0.0763
536,0.0713
537,0.0657
538,0.0599
539,0.0550
540,0.0528
541,0.0491
542,0.0440
543,0.0412
544,0.0387
545,0.0370
546,0.0368
547,0.0361
548,0.0356
549,0.0339
550,0.0363
551,0.0360
552,0.0375
553,0.0391
554,0.0418
555,0.0438
556,0.0448
557,0.0490
558,0.0534
559,0.0578
560,0.0597
561,0.0648
562,0.0682
563,0.0731
564,0.0765
565,0.0823
566,0.0841
567,0.0904
568,0.0963
569,0.0993
570,0.1028
571,0.1069
572,0.1110
573,0.1134
574,0.1166
575,0.1178
576,0.1211
577,0.1234
578,0.1237
579,0.1273
580,0.1260
581,0.1292
582,0.1277
583,0.1263
584,0.1273
585,0.1272
586,0.1257
587,0.1238
588,0.1237
589,0.1184
590,0.1185
591,0.1145
592,0.1126
593,0.1114
594,0.1088
595,0.1048
596,0.1035
597,0.0999
598,0.0975
599,0.0933
600,0.0900
601,0.0867
602,0.0837
603,0.0792
604,0.0762
605,0.0729
606,0.0670
607,0.0666
608,0.0621
609,0.0589
610,0.0558
611,0.0539
612,0.0504
613,0.0481
614,0.0441
615,0.0426
616,0.0399
617,0.0370
618,0.0360
619,0.0341
620,0.0333
621,0.0322
622,0.0312
623,0.0306
624,0.0311
625,0.0304
626,0.0296
627,0.0303
628,0.0306
629,0.0313
630,0.0325
631,0.0348
632,0.0347
633,0.0353
634,0.0368
635,0.0385
636,0.0411
637,0.0434
638,0.0445
639,0.0471
640,0.0506
641,0.0528
642,0.0546
643,0.0577
644,0.0601
645,0.0631
646,0.0660
647,0.0683
648,0.0718
649,0.0727
650,0.0745
651,0.0783
652,0.0812
653,0.0820
654,0.0835
655,0.0860
656,0.0869
657,0.0890
658,0.0911
659,0.0926
660,0.0935
661,0.0948
662,0.0973
663,0.0982
664,0.0996
665,0.1020
666,0.1014
667,0.1042
668,0.1027
669,0.1032
670,0.1052
671,0.1059
672,0.1031
673,0.1024
674,0.1027
675,0.1032
676,0.1029
677,0.1012
678,0.1006
679,0.0986
680,0.0986
681,0.0986
682,0.0977
683,0.0956
684,0.0940
685,0.0927
686,0.0916
687,0.0884
688,0.0891
689,0.0886
690,0.0847
691,0.0833
692,0.0800
693,0.0782
694,0.0768
695,0.0741
696,0.0730
697,0.0719
698,0.0688
699,0.0656
700,0.0644
701,0.0625
702,0.0601
703,0.0585
704,0.0547
705,0.0526
706,0.0504
707,0.0478
708,0.0468
709,0.0452
710,0.0430
711,0.0412
712,0.0395
713,0.0376
714,0.0363
715,0.0352
716,0.0326
717,0.0315
718,0.0301
719,0.0296
720,0.0273
721,0.0260
722,0.0254
723,0.0250
724,0.0240
725,0.0237
726,0.0233
727,0.0234
728,0.0225
729,0.0231
730,0.0227
731,0.0233
732,0.0245
733,0.0230
734,0.0256
735,0.0250
736,0.0258
737,0.0259
738,0.0271
739,0.0280
740,0.0291
741,0.0294
742,0.0313
743,0.0315
744,0.0331
745,0.0352
746,0.0362
747,0.0369
748,0.0393
749,0.0405
750,0.0418
751,0.0446
752,0.0465
753,0.0480
754,0.0501
755,0.0517
756,0.0520
757,0.0555
758,0.0571
759,0.0581
760,0.0590
761,0.0601
762,0.0622
763,0.0645
764,0.0667
765,0.0663
766,0.0676
767,0.0697
768,0.0709
769,0.0718
770,0.0722
771,0.0751
772,0.0754
773,0.0751
774,0.0786
775,0.0782
776,0.0796
777,0.0789
778,0.0818
779,0.0824
780,0.0823
781,0.0842
782,0.0844
783,0.0848
784,0.0839
785,0.0847
786,0.0868
787,0.0863
788,0.0868
789,0.0870
790,0.0865
791,0.0843
792,0.0852
793,0.0872
794,0.0852
795,0.0862
796,0.0841
797,0.0863
798,0.0839
799,0.0862
800,0.0871
801,0.0859
802,0.0864
803,0.0863
804,0.0870
805,0.0870
806,0.0857
807,0.0861
808,0.0867
809,0.0857
810,0.0871
811,0.0862
812,0.0847
813,0.0833
814,0.0830
815,0.0807
816,0.0818
817,0.0808
818,0.0762
819,0.0781
820,0.0780
821,0.0749
822,0.0736
823,0.0711
824,0.0709
825,0.0678
826,0.0688
827,0.0636
828,0.0625
829,0.0611
830,0.0588
831,0.0569
832,0.0556
833,0.0517
834,0.0521
835,0.0496
836,0.0475
837,0.0459
838,0.0440
839,0.0424
840,0.0399
841,0.0392
842,0.0371
843,0.0353
844,0.0346
845,0.0331
846,0.0330
847,0.0303
848,0.0302
849,0.0289
850,0.0297
851,0.0272
852,0.0257
853,0.0258
854,0.0243
855,0.0229
856,0.0239
857,0.0235
858,0.0223
859,0.0211
860,0.0206
861,0.0201
862,0.0191
863,0.0223
864,0.0178
865,0.0189
866,0.0197
867,0.0196
868,0.0180
869,0.0167
870,0.0173
871,0.0176
872,0.0184
873,0.0175
874,0.0181
875,0.0181
876,0.0185
877,0.0190
878,0.0170
879,0.0195
880,0.0193
881,0.0206
882,0.0211
883,0.0201
884,0.0207
885,0.0245
886,0.0253
887,0.0251
888,0.0238
889,0.0258
890,0.0266
891,0.0272
892,0.0288
893,0.0321
894,0.0345
895,0.0323
896,0.0359
897,0.0382
898,0.0347
899,0.0388
900,0.0390
901,0.0436
902,0.0426
903,0.0425
904,0.0463
905,0.0478
906,0.0476
907,0.0503
908,0.0545
909,0.0530
910,0.0566
911,0.0529
912,0.0559
913,0.0533
914,0.0561
915,0.0566
916,0.0591
917,0.0537
918,0.0558
919,0.0562
920,0.0537
921,0.0539
922,0.0541
923,0.0528
924,0.0542
925,0.0534
926,0.0535
927,0.0526
928,0.0491
929,0.0503
930,0.0492
931,0.0487
932,0.0466
933,0.0465
934,0.0441
935,0.0402
936,0.0387
937,0.0325
938,0.0295
939,0.0244
940,0.0241
941,0.0221
942,0.0191
943,0.0183
944,0.0205
945,0.0191
946,0.0193
947,0.0208
