382,NaN
383,1.0000
384,1.0000
385,1.0000
386,0.6723
387,0.2084
388,0.1967
389,0.4811
390,0.1061
391,0.1626
392,0.3936
393,0.0236
394,0.1056
395,0.0352
396,0.3022
397,0.0386
398,0.1024
399,0.2088
400,0.2218
401,0.3386
402,0.0000
403,0.1083
404,0.1454
405,0.1735
406,0.2142
407,0.1556
408,0.1859
409,0.1459
410,0.1535
411,0.1611
412,0.1762
413,0.1896
414,0.1407
415,0.1557
416,0.1151
417,0.1100
418,0.1195
419,0.1655
420,0.1445
421,0.1210
422,0.0881
423,0.1298
424,0.1710
425,0.1093
426,0.1734
427,0.1235
428,0.2144
429,0.1193
430,0.1699
431,0.1975
432,0.1615
433,0.1463
434,0.1540
435,0.1425
436,0.1448
437,0.1779
438,0.1678
439,0.1520
440,0.1592
441,0.1555
442,0.1535
443,0.1739
444,0.1435
445,0.1515
446,0.1566
447,0.1447
448,0.1482
449,0.1434
450,0.1404
451,0.1203
452,0.1305
453,0.1391
454,0.1523
455,0.1288
456,0.1336
457,0.1237
458,0.1374
459,0.1254
460,0.1324
461,0.1398
462,0.1155
463,0.1377
464,0.1331
465,0.1260
466,0.1250
467,0.1382
468,0.1495
469,0.1506
470,0.1369
471,0.1382
472,0.1511
473,0.1525
474,0.1393
475,0.1560
476,0.1592
477,0.1653
478,0.1672
479,0.1918
480,0.1865
481,0.1668
482,0.1960
483,0.1910
484,0.1831
485,0.2131
486,0.2003
487,0.2163
488,0.2166
489,0.2045
490,0.2198
491,0.2168
492,0.2224
493,0.2212
494,0.2216
495,0.2194
496,0.2166
497,0.2095
498,0.2133
499,0.2010
500,0.2113
501,0.1997
502,0.1954
503,0.1904
504,0.1752
505,0.1771
506,0.1738
507,0.1682
508,0.1639
509,0.1599
510,0.1486
511,0.1385
512,0.1396
513,0.1327
514,0.1301
515,0.1261
516,0.1196
517,0.1104
518,0.1103
519,0.1051
520,0.1049
521,0.0973
522,0.0958
523,0.0907
524,0.0909
525,0.0879
526,0.0869
527,0.0846
528,0.0835
529,0.0793
530,0.0788
531,0.0788
532,0.0769
533,0.0760
534,0.0755
535,0.0730
536,0.0759
537,0.0728
538,0.0747
539,0.0743
540,0.0750
541,0.0750
542,0.0752
543,0.0755
544,0.0770
545,0.0774
546,0.0807
547,0.0811
548,0.0793
549,0.0791
550,0.0789
551,0.0815
552,0.0832
553,0.0838
554,0.0864
555,0.0851
556,0.0866
557,0.0879
558,0.0878
559,0.0911
560,0.0901
561,0.0910
562,0.0933
563,0.0927
564,0.0962
565,0.0963
566,0.0952
567,0.0945
568,0.0983
569,0.0977
570,0.0981
571,0.0996
572,0.0973
573,0.0986
574,0.0985
575,0.0979
576,0.0988
577,0.0975
578,0.0975
579,0.0983
580,0.0950
581,0.0955
582,0.0945
583,0.0926
584,0.0919
585,0.0902
586,0.0915
587,0.0882
588,0.0865
589,0.0861
590,0.0850
591,0.0821
592,0.0819
593,0.0804
594,0.0795
595,0.0774
596,0.0777
597,0.0753
598,0.0738
599,0.0733
600,0.0710
601,0.0713
602,0.0683
603,0.0670
604,0.0678
605,0.0661
606,0.0629
607,0.0628
608,0.0628
609,0.0610
610,0.0601
611,0.0605
612,0.0596
613,0.0590
614,0.0586
615,0.0572
616,0.0559
617,0.0564
618,0.0562
619,0.0565
620,0.0549
621,0.0547
622,0.0568
623,0.0564
624,0.0557
625,0.0554
626,0.0554
627,0.0568
628,0.0563
629,0.0572
630,0.0558
631,0.0577
632,0.0579
633,0.0575
634,0.0560
635,0.0566
636,0.0581
637,0.0582
638,0.0585
639,0.0603
640,0.0614
641,0.0621
642,0.0629
643,0.0631
644,0.0648
645,0.0649
646,0.0657
647,0.0676
648,0.0685
649,0.0677
650,0.0687
651,0.0693
652,0.0699
653,0.0714
654,0.0710
655,0.0713
656,0.0728
657,0.0724
658,0.0740
659,0.0757
660,0.0752
661,0.0755
662,0.0768
663,0.0780
664,0.0775
665,0.0776
666,0.0786
667,0.0812
668,0.0799
669,0.0817
670,0.0805
671,0.0824
672,0.0812
673,0.0825
674,0.0808
675,0.0836
676,0.0835
677,0.0826
678,0.0823
679,0.0812
680,0.0822
681,0.0830
682,0.0811
683,0.0820
684,0.0818
685,0.0804
686,0.0814
687,0.0796
688,0.0804
689,0.0815
690,0.0801
691,0.0797
692,0.0778
693,0.0782
694,0.0786
695,0.0778
696,0.0763
697,0.0770
698,0.0758
699,0.0747
700,0.0741
701,0.0727
702,0.0721
703,0.0700
704,0.0693
705,0.0685
706,0.0681
707,0.0670
708,0.0661
709,0.0663
710,0.0623
711,0.0634
712,0.0626
713,0.0599
714,0.0597
715,0.0587
716,0.0572
717,0.0560
718,0.0543
719,0.0533
720,0.0528
721,0.0496
722,0.0484
723,0.0485
724,0.0465
725,0.0467
726,0.0446
727,0.0453
728,0.0431
729,0.0423
730,0.0421
731,0.0406
732,0.0419
733,0.0399
734,0.0404
735,0.0396
736,0.0382
737,0.0384
738,0.0388
739,0.0374
740,0.0371
741,0.0377
742,0.0360
743,0.0370
744,0.0367
745,0.0364
746,0.0364
747,0.0362
748,0.0374
749,0.0357
750,0.0358
751,0.0377
752,0.0366
753,0.0378
754,0.0370
755,0.0375
756,0.0380
757,0.0386
758,0.0383
759,0.0400
760,0.0385
761,0.0396
762,0.0390
763,0.0415
764,0.0410
765,0.0419
766,0.0409
767,0.0417
768,0.0426
769,0.0430
770,0.0422
771,0.0446
772,0.0444
773,0.0442
774,0.0453
775,0.0469
776,0.0469
777,0.0481
778,0.0478
779,0.0486
780,0.0481
781,0.0507
782,0.0512
783,0.0522
784,0.0523
785,0.0545
786,0.0544
787,0.0538
788,0.0556
789,0.0554
790,0.0555
791,0.0547
792,0.0565
793,0.0569
794,0.0580
795,0.0583
796,0.0585
797,0.0618
798,0.0615
799,0.0630
800,0.0643
801,0.0649
802,0.0641
803,0.0674
804,0.0683
805,0.0710
806,0.0693
807,0.0724
808,0.0728
809,0.0739
810,0.0758
811,0.0742
812,0.0764
813,0.0755
814,0.0767
815,0.0777
816,0.0790
817,0.0792
818,0.0794
819,0.0808
820,0.0832
821,0.0824
822,0.0820
823,0.0811
824,0.0816
825,0.0802
826,0.0824
827,0.0790
828,0.0801
829,0.0785
830,0.0794
831,0.0791
832,0.0772
833,0.0766
834,0.0767
835,0.0762
836,0.0735
837,0.0743
838,0.0718
839,0.0720
840,0.0692
841,0.0699
842,0.0696
843,0.0672
844,0.0674
845,0.0672
846,0.0653
847,0.0650
848,0.0652
849,0.0629
850,0.0622
851,0.0639
852,0.0631
853,0.0620
854,0.0624
855,0.0600
856,0.0610
857,0.0602
858,0.0590
859,0.0576
860,0.0559
861,0.0579
862,0.0571
863,0.0559
864,0.0539
865,0.0525
866,0.0536
867,0.0530
868,0.0513
869,0.0494
870,0.0501
871,0.0477
872,0.0484
873,0.0472
874,0.0460
875,0.0445
876,0.0474
877,0.0448
878,0.0438
879,0.0443
880,0.0436
881,0.0430
882,0.0421
883,0.0435
884,0.0422
885,0.0410
886,0.0429
887,0.0429
888,0.0425
889,0.0428
890,0.0412
891,0.0434
892,0.0423
893,0.0430
894,0.0442
895,0.0429
896,0.0415
897,0.0411
898,0.0425
899,0.0404
900,0.0439
901,0.0446
902,0.0403
903,0.0399
904,0.0418
905,0.0406
906,0.0399
907,0.0425
908,0.0414
909,0.0384
910,0.0408
911,0.0366
912,0.0350
913,0.0322
914,0.0349
915,0.0327
916,0.0337
917,0.0312
918,0.0303
919,0.0281
920,0.0312
921,0.0274
922,0.0262
923,0.0249
924,0.0253
925,0.0240
926,0.0258
927,0.0225
928,0.0205
929,0.0213
930,0.0206
931,0.0194
932,0.0178
933,0.0158
934,0.0184
935,0.0149
936,0.0123
937,0.0112
938,0.0128
939,0.0103
940,0.0097
941,0.0089
942,0.0066
943,0.0055
944,0.0073
945,0.0068
946,0.0082
947,0.0151
