382,NaN
383,0.7568
384,1.0000
385,1.0000
386,0.0000
387,0.3100
388,0.1903
389,0.2559
390,0.0779
391,0.2278
392,0.3315
393,0.2895
394,0.2285
395,0.0972
396,0.3185
397,0.1060
398,0.1988
399,0.2626
400,0.2610
401,0.3582
402,0.0000
403,0.1919
404,0.3075
405,0.2226
406,0.0642
407,0.2111
408,0.2000
409,0.0948
410,0.1976
411,0.2057
412,0.1212
413,0.1493
414,0.1280
415,0.1536
416,0.1402
417,0.1344
418,0.0916
419,0.0685
420,0.0938
421,0.0513
422,0.0550
423,0.0716
424,0.1041
425,0.0625
426,0.1230
427,0.0582
428,0.1202
429,0.1082
430,0.1487
431,0.1290
432,0.1054
433,0.0952
434,0.1194
435,0.1545
436,0.1710
437,0.1659
438,0.1721
439,0.1897
440,0.2063
441,0.1843
442,0.1711
443,0.1826
444,0.1674
445,0.1774
446,0.1719
447,0.1915
448,0.1663
449,0.1803
450,0.1689
451,0.1545
452,0.1460
453,0.1787
454,0.1863
455,0.1896
456,0.1676
457,0.1704
458,0.1641
459,0.1475
460,0.1591
461,0.1502
462,0.1498
463,0.1607
464,0.1303
465,0.1198
466,0.1352
467,0.1130
468,0.1293
469,0.1344
470,0.1097
471,0.1231
472,0.1250
473,0.1218
474,0.1139
475,0.1151
476,0.1233
477,0.1268
478,0.1213
479,0.1392
480,0.1357
481,0.1314
482,0.1274
483,0.1410
484,0.1413
485,0.1476
486,0.1508
487,0.1528
488,0.1603
489,0.1572
490,0.1679
491,0.1676
492,0.1754
493,0.1866
494,0.1905
495,0.2029
496,0.1972
497,0.1923
498,0.2032
499,0.1900
500,0.2025
501,0.2006
502,0.2014
503,0.1917
504,0.1903
505,0.1889
506,0.1906
507,0.1924
508,0.1909
509,0.1861
510,0.1802
511,0.1716
512,0.1685
513,0.1648
514,0.1634
515,0.1542
516,0.1529
517,0.1471
518,0.1421
519,0.1409
520,0.1387
521,0.1275
522,0.1281
523,0.1218
524,0.1198
525,0.1182
526,0.1154
527,0.1110
528,0.1065
529,0.1063
530,0.1022
531,0.0987
532,0.0975
533,0.0924
534,0.0916
535,0.0895
536,0.0853
537,0.0847
538,0.0817
539,0.0807
540,0.0787
541,0.0749
542,0.0733
543,0.0721
544,0.0719
545,0.0684
546,0.0681
547,0.0655
548,0.0643
549,0.0635
550,0.0626
551,0.0598
552,0.0597
553,0.0598
554,0.0604
555,0.0585
556,0.0597
557,0.0588
558,0.0591
559,0.0596
560,0.0580
561,0.0591
562,0.0603
563,0.0611
564,0.0619
565,0.0622
566,0.0616
567,0.0647
568,0.0653
569,0.0662
570,0.0681
571,0.0702
572,0.0705
573,0.0708
574,0.0737
575,0.0742
576,0.0762
577,0.0756
578,0.0763
579,0.0799
580,0.0801
581,0.0808
582,0.0808
583,0.0820
584,0.0849
585,0.0857
586,0.0865
587,0.0849
588,0.0869
589,0.0872
590,0.0898
591,0.0870
592,0.0895
593,0.0897
594,0.0909
595,0.0909
596,0.0916
597,0.0909
598,0.0919
599,0.0927
600,0.0913
601,0.0927
602,0.0927
603,0.0919
604,0.0929
605,0.0917
606,0.0939
607,0.0929
608,0.0916
609,0.0917
610,0.0915
611,0.0924
612,0.0907
613,0.0907
614,0.0897
615,0.0895
616,0.0893
617,0.0886
618,0.0875
619,0.0871
620,0.0873
621,0.0846
622,0.0864
623,0.0849
624,0.0850
625,0.0832
626,0.0802
627,0.0802
628,0.0789
629,0.0788
630,0.0780
631,0.0762
632,0.0740
633,0.0724
634,0.0712
635,0.0693
636,0.0694
637,0.0687
638,0.0663
639,0.0651
640,0.0651
641,0.0652
642,0.0631
643,0.0624
644,0.0611
645,0.0599
646,0.0590
647,0.0583
648,0.0577
649,0.0553
650,0.0555
651,0.0543
652,0.0539
653,0.0526
654,0.0516
655,0.0515
656,0.0509
657,0.0500
658,0.0497
659,0.0478
660,0.0483
661,0.0488
662,0.0479
663,0.0479
664,0.0466
665,0.0471
666,0.0471
667,0.0471
668,0.0470
669,0.0483
670,0.0485
671,0.0473
672,0.0478
673,0.0475
674,0.0483
675,0.0498
676,0.0494
677,0.0485
678,0.0487
679,0.0498
680,0.0489
681,0.0505
682,0.0512
683,0.0528
684,0.0521
685,0.0529
686,0.0537
687,0.0530
688,0.0549
689,0.0568
690,0.0567
691,0.0583
692,0.0585
693,0.0582
694,0.0600
695,0.0593
696,0.0600
697,0.0626
698,0.0633
699,0.0627
700,0.0646
701,0.0659
702,0.0659
703,0.0653
704,0.0660
705,0.0661
706,0.0677
707,0.0672
708,0.0674
709,0.0686
710,0.0675
711,0.0703
712,0.0701
713,0.0701
714,0.0716
715,0.0712
716,0.0720
717,0.0724
718,0.0708
719,0.0715
720,0.0710
721,0.0701
722,0.0688
723,0.0698
724,0.0685
725,0.0694
726,0.0693
727,0.0694
728,0.0687
729,0.0687
730,0.0688
731,0.0685
732,0.0696
733,0.0687
734,0.0693
735,0.0693
736,0.0686
737,0.0689
738,0.0688
739,0.0679
740,0.0679
741,0.0677
742,0.0677
743,0.0670
744,0.0673
745,0.0659
746,0.0660
747,0.0657
748,0.0674
749,0.0662
750,0.0664
751,0.0659
752,0.0657
753,0.0661
754,0.0645
755,0.0661
756,0.0644
757,0.0648
758,0.0632
759,0.0651
760,0.0632
761,0.0624
762,0.0630
763,0.0622
764,0.0615
765,0.0600
766,0.0600
767,0.0586
768,0.0585
769,0.0582
770,0.0556
771,0.0563
772,0.0558
773,0.0559
774,0.0549
775,0.0545
776,0.0550
777,0.0535
778,0.0530
779,0.0540
780,0.0521
781,0.0524
782,0.0510
783,0.0497
784,0.0494
785,0.0498
786,0.0489
787,0.0489
788,0.0479
789,0.0463
790,0.0468
791,0.0453
792,0.0465
793,0.0448
794,0.0450
795,0.0441
796,0.0441
797,0.0452
798,0.0436
799,0.0444
800,0.0434
801,0.0439
802,0.0444
803,0.0445
804,0.0440
805,0.0442
806,0.0434
807,0.0450
808,0.0448
809,0.0436
810,0.0456
811,0.0438
812,0.0447
813,0.0441
814,0.0441
815,0.0435
816,0.0440
817,0.0437
818,0.0441
819,0.0455
820,0.0462
821,0.0450
822,0.0453
823,0.0452
824,0.0451
825,0.0455
826,0.0449
827,0.0434
828,0.0428
829,0.0427
830,0.0427
831,0.0430
832,0.0439
833,0.0419
834,0.0415
835,0.0429
836,0.0426
837,0.0426
838,0.0420
839,0.0409
840,0.0399
841,0.0415
842,0.0425
843,0.0406
844,0.0404
845,0.0417
846,0.0412
847,0.0399
848,0.0392
849,0.0408
850,0.0404
851,0.0411
852,0.0418
853,0.0420
854,0.0420
855,0.0418
856,0.0428
857,0.0433
858,0.0402
859,0.0421
860,0.0443
861,0.0442
862,0.0451
863,0.0448
864,0.0443
865,0.0451
866,0.0447
867,0.0445
868,0.0459
869,0.0432
870,0.0461
871,0.0457
872,0.0453
873,0.0442
874,0.0430
875,0.0447
876,0.0448
877,0.0467
878,0.0456
879,0.0473
880,0.0479
881,0.0479
882,0.0480
883,0.0496
884,0.0490
885,0.0517
886,0.0543
887,0.0534
888,0.0521
889,0.0550
890,0.0588
891,0.0563
892,0.0586
893,0.0608
894,0.0618
895,0.0624
896,0.0622
897,0.0637
898,0.0620
899,0.0663
900,0.0677
901,0.0689
902,0.0668
903,0.0661
904,0.0697
905,0.0736
906,0.0731
907,0.0751
908,0.0727
909,0.0729
910,0.0735
911,0.0702
912,0.0694
913,0.0661
914,0.0681
915,0.0684
916,0.0648
917,0.0625
918,0.0648
919,0.0616
920,0.0639
921,0.0577
922,0.0585
923,0.0562
924,0.0558
925,0.0531
926,0.0510
927,0.0492
928,0.0486
929,0.0481
930,0.0462
931,0.0449
932,0.0446
933,0.0397
934,0.0387
935,0.0360
936,0.0306
937,0.0284
938,0.0254
939,0.0230
940,0.0199
941,0.0182
942,0.0152
943,0.0138
944,0.0157
945,0.0158
946,0.0147
947,0.0241
