382,NaN
383,0.9442
384,1.0000
385,1.0000
386,0.0000
387,0.3223
388,0.2143
389,0.2720
390,0.1230
391,0.0000
392,0.3779
393,0.0796
394,0.0000
395,0.0393
396,0.1355
397,0.1024
398,0.0799
399,0.1559
400,0.0000
401,0.3624
402,0.0694
403,0.2025
404,0.0725
405,0.1740
406,0.1765
407,0.2334
408,0.2082
409,0.1726
410,0.1617
411,0.2243
412,0.2292
413,0.2160
414,0.2082
415,0.2016
416,0.2072
417,0.2272
418,0.1953
419,0.2076
420,0.2136
421,0.2126
422,0.2169
423,0.2167
424,0.1932
425,0.1552
426,0.2108
427,0.1661
428,0.1790
429,0.1299
430,0.1795
431,0.1201
432,0.1658
433,0.1517
434,0.1048
435,0.1087
436,0.0892
437,0.1097
438,0.1018
439,0.0744
440,0.0832
441,0.0842
442,0.0834
443,0.1188
444,0.0504
445,0.0717
446,0.0582
447,0.0568
448,0.0495
449,0.0667
450,0.0869
451,0.0390
452,0.0604
453,0.0911
454,0.0957
455,0.0765
456,0.0999
457,0.1018
458,0.1172
459,0.0992
460,0.1179
461,0.1338
462,0.1332
463,0.1579
464,0.1462
465,0.1401
466,0.1622
467,0.1799
468,0.1927
469,0.2070
470,0.1865
471,0.1913
472,0.2335
473,0.2201
474,0.2433
475,0.2442
476,0.2522
477,0.2524
478,0.2600
479,0.2748
480,0.2793
481,0.2605
482,0.2810
483,0.2837
484,0.2741
485,0.2802
486,0.2819
487,0.2869
488,0.2724
489,0.2710
490,0.2705
491,0.2413
492,0.2499
493,0.2385
494,0.2338
495,0.2156
496,0.2062
497,0.1918
498,0.1875
499,0.1689
500,0.1662
501,0.1515
502,0.1464
503,0.1297
504,0.1145
505,0.1092
506,0.1045
507,0.0994
508,0.0889
509,0.0822
510,0.0774
511,0.0665
512,0.0654
513,0.0624
514,0.0595
515,0.0585
516,0.0505
517,0.0511
518,0.0472
519,0.0518
520,0.0525
521,0.0451
522,0.0487
523,0.0482
524,0.0501
525,0.0491
526,0.0520
527,0.0543
528,0.0558
529,0.0585
530,0.0593
531,0.0615
532,0.0636
533,0.0645
534,0.0702
535,0.0718
536,0.0750
537,0.0781
538,0.0812
539,0.0839
540,0.0857
541,0.0879
542,0.0915
543,0.0952
544,0.0944
545,0.0990
546,0.1022
547,0.1024
548,0.1060
549,0.1075
550,0.1113
551,0.1130
552,0.1124
553,0.1146
554,0.1152
555,0.1178
556,0.1197
557,0.1175
558,0.1201
559,0.1207
560,0.1224
561,0.1231
562,0.1244
563,0.1213
564,0.1223
565,0.1222
566,0.1207
567,0.1223
568,0.1215
569,0.1207
570,0.1210
571,0.1173
572,0.1172
573,0.1143
574,0.1141
575,0.1109
576,0.1109
577,0.1073
578,0.1036
579,0.1039
580,0.1014
581,0.0993
582,0.0945
583,0.0934
584,0.0897
585,0.0871
586,0.0851
587,0.0824
588,0.0803
589,0.0769
590,0.0750
591,0.0708
592,0.0698
593,0.0671
594,0.0657
595,0.0627
596,0.0608
597,0.0591
598,0.0565
599,0.0549
600,0.0534
601,0.0517
602,0.0504
603,0.0471
604,0.0465
605,0.0435
606,0.0428
607,0.0414
608,0.0417
609,0.0390
610,0.0383
611,0.0384
612,0.0376
613,0.0370
614,0.0355
615,0.0350
616,0.0349
617,0.0337
618,0.0350
619,0.0352
620,0.0355
621,0.0354
622,0.0351
623,0.0365
624,0.0369
625,0.0366
626,0.0370
627,0.0379
628,0.0392
629,0.0403
630,0.0406
631,0.0418
632,0.0410
633,0.0431
634,0.0441
635,0.0452
636,0.0468
637,0.0486
638,0.0486
639,0.0513
640,0.0517
641,0.0541
642,0.0553
643,0.0562
644,0.0578
645,0.0590
646,0.0611
647,0.0630
648,0.0661
649,0.0652
650,0.0669
651,0.0685
652,0.0691
653,0.0707
654,0.0710
655,0.0731
656,0.0739
657,0.0742
658,0.0763
659,0.0762
660,0.0793
661,0.0783
662,0.0801
663,0.0812
664,0.0824
665,0.0836
666,0.0838
667,0.0843
668,0.0863
669,0.0863
670,0.0875
671,0.0897
672,0.0882
673,0.0880
674,0.0888
675,0.0906
676,0.0911
677,0.0899
678,0.0908
679,0.0901
680,0.0910
681,0.0915
682,0.0916
683,0.0914
684,0.0910
685,0.0909
686,0.0923
687,0.0905
688,0.0915
689,0.0931
690,0.0924
691,0.0932
692,0.0918
693,0.0905
694,0.0906
695,0.0901
696,0.0895
697,0.0905
698,0.0881
699,0.0885
700,0.0885
701,0.0865
702,0.0863
703,0.0851
704,0.0841
705,0.0822
706,0.0816
707,0.0799
708,0.0797
709,0.0789
710,0.0775
711,0.0769
712,0.0750
713,0.0750
714,0.0729
715,0.0719
716,0.0701
717,0.0686
718,0.0662
719,0.0664
720,0.0625
721,0.0599
722,0.0593
723,0.0584
724,0.0568
725,0.0551
726,0.0543
727,0.0532
728,0.0504
729,0.0504
730,0.0500
731,0.0478
732,0.0476
733,0.0454
734,0.0447
735,0.0449
736,0.0429
737,0.0420
738,0.0411
739,0.0401
740,0.0391
741,0.0396
742,0.0367
743,0.0363
744,0.0366
745,0.0343
746,0.0346
747,0.0344
748,0.0334
749,0.0317
750,0.0313
751,0.0320
752,0.0304
753,0.0315
754,0.0295
755,0.0291
756,0.0283
757,0.0286
758,0.0283
759,0.0283
760,0.0279
761,0.0273
762,0.0273
763,0.0275
764,0.0272
765,0.0265
766,0.0262
767,0.0249
768,0.0260
769,0.0257
770,0.0248
771,0.0263
772,0.0250
773,0.0253
774,0.0264
775,0.0251
776,0.0264
777,0.0261
778,0.0264
779,0.0270
780,0.0269
781,0.0268
782,0.0284
783,0.0276
784,0.0281
785,0.0291
786,0.0295
787,0.0299
788,0.0306
789,0.0306
790,0.0315
791,0.0312
792,0.0322
793,0.0321
794,0.0331
795,0.0338
796,0.0337
797,0.0362
798,0.0353
799,0.0367
800,0.0381
801,0.0386
802,0.0397
803,0.0419
804,0.0417
805,0.0427
806,0.0430
807,0.0467
808,0.0466
809,0.0481
810,0.0499
811,0.0499
812,0.0509
813,0.0524
814,0.0532
815,0.0521
816,0.0538
817,0.0563
818,0.0578
819,0.0592
820,0.0596
821,0.0589
822,0.0613
823,0.0617
824,0.0622
825,0.0635
826,0.0624
827,0.0633
828,0.0625
829,0.0643
830,0.0660
831,0.0653
832,0.0663
833,0.0648
834,0.0646
835,0.0656
836,0.0663
837,0.0659
838,0.0654
839,0.0645
840,0.0646
841,0.0646
842,0.0660
843,0.0653
844,0.0654
845,0.0641
846,0.0653
847,0.0644
848,0.0651
849,0.0649
850,0.0650
851,0.0672
852,0.0686
853,0.0652
854,0.0685
855,0.0655
856,0.0669
857,0.0672
858,0.0661
859,0.0670
860,0.0664
861,0.0671
862,0.0686
863,0.0686
864,0.0683
865,0.0667
866,0.0691
867,0.0663
868,0.0687
869,0.0671
870,0.0656
871,0.0660
872,0.0646
873,0.0652
874,0.0630
875,0.0607
876,0.0646
877,0.0632
878,0.0633
879,0.0651
880,0.0646
881,0.0658
882,0.0656
883,0.0652
884,0.0697
885,0.0675
886,0.0687
887,0.0695
888,0.0694
889,0.0727
890,0.0728
891,0.0711
892,0.0721
893,0.0759
894,0.0752
895,0.0762
896,0.0760
897,0.0763
898,0.0753
899,0.0749
900,0.0771
901,0.0785
902,0.0782
903,0.0780
904,0.0801
905,0.0808
906,0.0819
907,0.0827
908,0.0805
909,0.0782
910,0.0779
911,0.0763
912,0.0740
913,0.0718
914,0.0703
915,0.0691
916,0.0697
917,0.0666
918,0.0623
919,0.0624
920,0.0618
921,0.0557
922,0.0541
923,0.0531
924,0.0544
925,0.0493
926,0.0480
927,0.0457
928,0.0430
929,0.0433
930,0.0416
931,0.0384
932,0.0378
933,0.0317
934,0.0337
935,0.0300
936,0.0294
937,0.0205
938,0.0198
939,0.0170
940,0.0155
941,0.0155
942,0.0133
943,0.0097
944,0.0097
945,0.0132
946,0.0095
947,0.0143
