382,NaN
383,0.9266
384,0.0573
385,0.0000
386,0.0000
387,0.2966
388,0.1790
389,0.2846
390,0.2507
391,0.1123
392,0.1062
393,0.1511
394,0.1848
395,0.1003
396,0.1713
397,0.0996
398,0.1619
399,0.0385
400,0.0786
401,0.3126
402,0.0000
403,0.1085
404,0.1212
405,0.1203
406,0.0625
407,0.1368
408,0.1002
409,0.0040
410,0.0862
411,0.1540
412,0.1037
413,0.1343
414,0.1253
415,0.0967
416,0.1176
417,0.1216
418,0.1105
419,0.1513
420,0.1878
421,0.1560
422,0.1463
423,0.1677
424,0.1631
425,0.1853
426,0.2416
427,0.1773
428,0.2033
429,0.2131
430,0.2538
431,0.2773
432,0.2348
433,0.1749
434,0.2318
435,0.2709
436,0.2510
437,0.2603
438,0.2222
439,0.2357
440,0.2293
441,0.2602
442,0.2154
443,0.2170
444,0.1990
445,0.1907
446,0.1760
447,0.1715
448,0.1725
449,0.1660
450,0.1631
451,0.1435
452,0.1212
453,0.1257
454,0.1214
455,0.1113
456,0.1103
457,0.0971
458,0.0792
459,0.0704
460,0.0860
461,0.0794
462,0.0726
463,0.0753
464,0.0525
465,0.0398
466,0.0530
467,0.0468
468,0.0550
469,0.0581
470,0.0428
471,0.0555
472,0.0559
473,0.0610
474,0.0505
475,0.0683
476,0.0686
477,0.0840
478,0.0818
479,0.1031
480,0.0991
481,0.0974
482,0.1151
483,0.1184
484,0.1375
485,0.1409
486,0.1528
487,0.1652
488,0.1822
489,0.1794
490,0.1977
491,0.1908
492,0.2088
493,0.2246
494,0.2284
495,0.2463
496,0.2372
497,0.2247
498,0.2434
499,0.2440
500,0.2505
501,0.2398
502,0.2521
503,0.2401
504,0.2405
505,0.2355
506,0.2406
507,0.2329
508,0.2321
509,0.2243
510,0.2166
511,0.2084
512,0.2076
513,0.2032
514,0.1971
515,0.1906
516,0.1882
517,0.1746
518,0.1677
519,0.1648
520,0.1619
521,0.1527
522,0.1472
523,0.1410
524,0.1398
525,0.1311
526,0.1308
527,0.1230
528,0.1233
529,0.1160
530,0.1115
531,0.1071
532,0.1055
533,0.0975
534,0.0965
535,0.0920
536,0.0875
537,0.0868
538,0.0812
539,0.0780
540,0.0728
541,0.0718
542,0.0681
543,0.0645
544,0.0601
545,0.0590
546,0.0549
547,0.0545
548,0.0517
549,0.0479
550,0.0467
551,0.0430
552,0.0436
553,0.0425
554,0.0402
555,0.0377
556,0.0356
557,0.0358
558,0.0355
559,0.0344
560,0.0335
561,0.0323
562,0.0334
563,0.0326
564,0.0326
565,0.0336
566,0.0306
567,0.0350
568,0.0348
569,0.0371
570,0.0376
571,0.0392
572,0.0391
573,0.0399
574,0.0420
575,0.0419
576,0.0456
577,0.0466
578,0.0467
579,0.0516
580,0.0499
581,0.0515
582,0.0549
583,0.0557
584,0.0575
585,0.0607
586,0.0633
587,0.0645
588,0.0645
589,0.0676
590,0.0692
591,0.0701
592,0.0727
593,0.0738
594,0.0766
595,0.0775
596,0.0816
597,0.0804
598,0.0835
599,0.0849
600,0.0868
601,0.0886
602,0.0898
603,0.0907
604,0.0933
605,0.0943
606,0.0945
607,0.0973
608,0.0990
609,0.0989
610,0.1006
611,0.1025
612,0.1025
613,0.1035
614,0.1045
615,0.1056
616,0.1061
617,0.1080
618,0.1084
619,0.1070
620,0.1086
621,0.1096
622,0.1099
623,0.1103
624,0.1115
625,0.1118
626,0.1097
627,0.1102
628,0.1098
629,0.1096
630,0.1089
631,0.1095
632,0.1052
633,0.1059
634,0.1032
635,0.1025
636,0.1022
637,0.1008
638,0.0994
639,0.1006
640,0.0984
641,0.0985
642,0.0972
643,0.0939
644,0.0928
645,0.0923
646,0.0906
647,0.0897
648,0.0882
649,0.0850
650,0.0834
651,0.0811
652,0.0801
653,0.0785
654,0.0758
655,0.0744
656,0.0734
657,0.0710
658,0.0693
659,0.0680
660,0.0662
661,0.0643
662,0.0633
663,0.0610
664,0.0592
665,0.0576
666,0.0565
667,0.0551
668,0.0542
669,0.0515
670,0.0518
671,0.0510
672,0.0485
673,0.0459
674,0.0446
675,0.0442
676,0.0426
677,0.0411
678,0.0404
679,0.0379
680,0.0379
681,0.0373
682,0.0366
683,0.0348
684,0.0340
685,0.0326
686,0.0325
687,0.0309
688,0.0305
689,0.0311
690,0.0293
691,0.0301
692,0.0287
693,0.0285
694,0.0277
695,0.0266
696,0.0274
697,0.0270
698,0.0261
699,0.0264
700,0.0265
701,0.0267
702,0.0263
703,0.0257
704,0.0253
705,0.0253
706,0.0257
707,0.0257
708,0.0261
709,0.0271
710,0.0264
711,0.0283
712,0.0269
713,0.0276
714,0.0274
715,0.0283
716,0.0288
717,0.0293
718,0.0299
719,0.0305
720,0.0305
721,0.0292
722,0.0304
723,0.0318
724,0.0314
725,0.0322
726,0.0331
727,0.0340
728,0.0347
729,0.0338
730,0.0361
731,0.0373
732,0.0382
733,0.0379
734,0.0400
735,0.0404
736,0.0410
737,0.0415
738,0.0434
739,0.0435
740,0.0436
741,0.0465
742,0.0460
743,0.0473
744,0.0483
745,0.0492
746,0.0500
747,0.0512
748,0.0529
749,0.0533
750,0.0531
751,0.0554
752,0.0564
753,0.0584
754,0.0587
755,0.0606
756,0.0610
757,0.0626
758,0.0629
759,0.0647
760,0.0648
761,0.0652
762,0.0659
763,0.0666
764,0.0685
765,0.0684
766,0.0702
767,0.0698
768,0.0707
769,0.0697
770,0.0708
771,0.0705
772,0.0702
773,0.0711
774,0.0730
775,0.0735
776,0.0729
777,0.0731
778,0.0742
779,0.0766
780,0.0761
781,0.0766
782,0.0769
783,0.0765
784,0.0765
785,0.0775
786,0.0764
787,0.0789
788,0.0783
789,0.0782
790,0.0780
791,0.0774
792,0.0792
793,0.0752
794,0.0781
795,0.0783
796,0.0783
797,0.0777
798,0.0777
799,0.0804
800,0.0810
801,0.0818
802,0.0814
803,0.0832
804,0.0827
805,0.0838
806,0.0816
807,0.0851
808,0.0863
809,0.0845
810,0.0886
811,0.0847
812,0.0858
813,0.0857
814,0.0862
815,0.0853
816,0.0877
817,0.0874
818,0.0873
819,0.0854
820,0.0868
821,0.0876
822,0.0852
823,0.0858
824,0.0837
825,0.0841
826,0.0825
827,0.0796
828,0.0789
829,0.0787
830,0.0779
831,0.0772
832,0.0764
833,0.0733
834,0.0718
835,0.0718
836,0.0704
837,0.0693
838,0.0664
839,0.0660
840,0.0641
841,0.0636
842,0.0628
843,0.0599
844,0.0604
845,0.0589
846,0.0595
847,0.0569
848,0.0575
849,0.0580
850,0.0561
851,0.0541
852,0.0542
853,0.0525
854,0.0529
855,0.0517
856,0.0512
857,0.0502
858,0.0493
859,0.0483
860,0.0475
861,0.0469
862,0.0478
863,0.0455
864,0.0456
865,0.0432
866,0.0440
867,0.0412
868,0.0430
869,0.0395
870,0.0399
871,0.0388
872,0.0384
873,0.0362
874,0.0357
875,0.0347
876,0.0358
877,0.0333
878,0.0337
879,0.0352
880,0.0333
881,0.0316
882,0.0326
883,0.0331
884,0.0315
885,0.0335
886,0.0319
887,0.0328
888,0.0314
889,0.0321
890,0.0329
891,0.0300
892,0.0318
893,0.0324
894,0.0329
895,0.0300
896,0.0291
897,0.0315
898,0.0292
899,0.0301
900,0.0294
901,0.0303
902,0.0269
903,0.0271
904,0.0290
905,0.0278
906,0.0257
907,0.0280
908,0.0301
909,0.0278
910,0.0289
911,0.0271
912,0.0271
913,0.0240
914,0.0217
915,0.0226
916,0.0235
917,0.0222
918,0.0190
919,0.0206
920,0.0214
921,0.0177
922,0.0161
923,0.0160
924,0.0181
925,0.0164
926,0.0144
927,0.0133
928,0.0142
929,0.0141
930,0.0148
931,0.0129
932,0.0122
933,0.0115
934,0.0119
935,0.0103
936,0.0083
937,0.0076
938,0.0070
939,0.0059
940,0.0069
941,0.0065
942,0.0062
943,0.0040
944,0.0040
945,0.0049
946,0.0041
947,0.0093
