382,NaN
383,1.0000
384,0.3313
385,1.0000
386,0.5880
387,0.3781
388,0.2753
389,0.0000
390,0.0000
391,0.1645
392,0.2997
393,0.1275
394,0.0873
395,0.0044
396,0.2569
397,0.0531
398,0.0312
399,0.0620
400,0.1418
401,0.2887
402,0.0428
403,0.1488
404,0.1131
405,0.1831
406,0.0598
407,0.1467
408,0.2535
409,0.1612
410,0.2026
411,0.1661
412,0.1981
413,0.1956
414,0.1899
415,0.1968
416,0.2093
417,0.2079
418,0.1911
419,0.1812
420,0.1914
421,0.2031
422,0.2083
423,0.1363
424,0.1835
425,0.1506
426,0.2149
427,0.1195
428,0.2031
429,0.1395
430,0.1942
431,0.1371
432,0.1770
433,0.1539
434,0.1032
435,0.1538
436,0.1395
437,0.1508
438,0.1181
439,0.0990
440,0.1059
441,0.1257
442,0.1373
443,0.1332
444,0.1261
445,0.1143
446,0.0868
447,0.0823
448,0.0638
449,0.0883
450,0.0843
451,0.0749
452,0.0784
453,0.1167
454,0.0962
455,0.0796
456,0.0883
457,0.0919
458,0.1077
459,0.1003
460,0.0978
461,0.1032
462,0.1180
463,0.1299
464,0.1156
465,0.1130
466,0.1272
467,0.1151
468,0.1540
469,0.1636
470,0.1526
471,0.1595
472,0.1747
473,0.1669
474,0.1754
475,0.1820
476,0.2006
477,0.2055
478,0.2154
479,0.2271
480,0.2319
481,0.2145
482,0.2336
483,0.2399
484,0.2441
485,0.2484
486,0.2583
487,0.2582
488,0.2642
489,0.2580
490,0.2619
491,0.2529
492,0.2542
493,0.2592
494,0.2536
495,0.2531
496,0.2410
497,0.2337
498,0.2304
499,0.2188
500,0.2191
501,0.2094
502,0.2037
503,0.1903
504,0.1801
505,0.1767
506,0.1738
507,0.1662
508,0.1578
509,0.1493
510,0.1440
511,0.1288
512,0.1234
513,0.1200
514,0.1173
515,0.1092
516,0.1027
517,0.0988
518,0.0914
519,0.0857
520,0.0879
521,0.0806
522,0.0768
523,0.0738
524,0.0706
525,0.0682
526,0.0685
527,0.0680
528,0.0645
529,0.0634
530,0.0616
531,0.0607
532,0.0603
533,0.0560
534,0.0585
535,0.0568
536,0.0569
537,0.0583
538,0.0581
539,0.0575
540,0.0571
541,0.0576
542,0.0582
543,0.0579
544,0.0589
545,0.0589
546,0.0611
547,0.0616
548,0.0630
549,0.0620
550,0.0648
551,0.0655
552,0.0671
553,0.0687
554,0.0683
555,0.0700
556,0.0714
557,0.0746
558,0.0755
559,0.0772
560,0.0775
561,0.0785
562,0.0818
563,0.0831
564,0.0843
565,0.0842
566,0.0826
567,0.0869
568,0.0900
569,0.0896
570,0.0923
571,0.0932
572,0.0950
573,0.0957
574,0.0953
575,0.0958
576,0.0976
577,0.0990
578,0.0976
579,0.0988
580,0.0994
581,0.0993
582,0.0989
583,0.0980
584,0.1004
585,0.0994
586,0.1002
587,0.0984
588,0.0978
589,0.0967
590,0.0984
591,0.0971
592,0.0976
593,0.0971
594,0.0961
595,0.0954
596,0.0948
597,0.0966
598,0.0939
599,0.0930
600,0.0926
601,0.0933
602,0.0915
603,0.0898
604,0.0899
605,0.0893
606,0.0870
607,0.0875
608,0.0872
609,0.0858
610,0.0845
611,0.0842
612,0.0849
613,0.0842
614,0.0807
615,0.0807
616,0.0779
617,0.0785
618,0.0764
619,0.0771
620,0.0759
621,0.0741
622,0.0744
623,0.0738
624,0.0733
625,0.0709
626,0.0681
627,0.0695
628,0.0684
629,0.0673
630,0.0673
631,0.0652
632,0.0623
633,0.0619
634,0.0597
635,0.0587
636,0.0579
637,0.0580
638,0.0556
639,0.0549
640,0.0553
641,0.0544
642,0.0538
643,0.0517
644,0.0519
645,0.0497
646,0.0496
647,0.0487
648,0.0486
649,0.0475
650,0.0469
651,0.0471
652,0.0456
653,0.0455
654,0.0443
655,0.0424
656,0.0422
657,0.0425
658,0.0428
659,0.0425
660,0.0408
661,0.0409
662,0.0400
663,0.0412
664,0.0408
665,0.0407
666,0.0409
667,0.0411
668,0.0401
669,0.0413
670,0.0416
671,0.0419
672,0.0421
673,0.0421
674,0.0417
675,0.0426
676,0.0428
677,0.0422
678,0.0434
679,0.0427
680,0.0441
681,0.0447
682,0.0444
683,0.0455
684,0.0464
685,0.0465
686,0.0474
687,0.0468
688,0.0487
689,0.0509
690,0.0499
691,0.0512
692,0.0507
693,0.0519
694,0.0539
695,0.0548
696,0.0549
697,0.0564
698,0.0568
699,0.0578
700,0.0585
701,0.0589
702,0.0596
703,0.0603
704,0.0610
705,0.0603
706,0.0606
707,0.0623
708,0.0631
709,0.0646
710,0.0654
711,0.0658
712,0.0660
713,0.0667
714,0.0673
715,0.0678
716,0.0673
717,0.0682
718,0.0682
719,0.0684
720,0.0688
721,0.0670
722,0.0665
723,0.0682
724,0.0674
725,0.0685
726,0.0678
727,0.0697
728,0.0682
729,0.0685
730,0.0701
731,0.0693
732,0.0704
733,0.0701
734,0.0711
735,0.0713
736,0.0712
737,0.0713
738,0.0718
739,0.0713
740,0.0712
741,0.0718
742,0.0708
743,0.0713
744,0.0720
745,0.0730
746,0.0717
747,0.0710
748,0.0717
749,0.0722
750,0.0722
751,0.0734
752,0.0740
753,0.0744
754,0.0742
755,0.0741
756,0.0747
757,0.0743
758,0.0726
759,0.0743
760,0.0745
761,0.0726
762,0.0738
763,0.0740
764,0.0737
765,0.0717
766,0.0708
767,0.0705
768,0.0704
769,0.0693
770,0.0694
771,0.0688
772,0.0680
773,0.0679
774,0.0682
775,0.0687
776,0.0678
777,0.0660
778,0.0668
779,0.0652
780,0.0651
781,0.0655
782,0.0640
783,0.0633
784,0.0628
785,0.0633
786,0.0618
787,0.0611
788,0.0622
789,0.0603
790,0.0598
791,0.0579
792,0.0577
793,0.0575
794,0.0564
795,0.0563
796,0.0564
797,0.0571
798,0.0551
799,0.0559
800,0.0564
801,0.0556
802,0.0565
803,0.0555
804,0.0558
805,0.0549
806,0.0535
807,0.0549
808,0.0550
809,0.0547
810,0.0566
811,0.0536
812,0.0529
813,0.0530
814,0.0531
815,0.0535
816,0.0518
817,0.0529
818,0.0512
819,0.0533
820,0.0516
821,0.0499
822,0.0500
823,0.0480
824,0.0487
825,0.0490
826,0.0467
827,0.0463
828,0.0446
829,0.0427
830,0.0434
831,0.0432
832,0.0416
833,0.0403
834,0.0393
835,0.0392
836,0.0384
837,0.0382
838,0.0367
839,0.0356
840,0.0350
841,0.0346
842,0.0352
843,0.0330
844,0.0322
845,0.0317
846,0.0310
847,0.0301
848,0.0318
849,0.0307
850,0.0289
851,0.0296
852,0.0305
853,0.0290
854,0.0304
855,0.0286
856,0.0279
857,0.0294
858,0.0282
859,0.0255
860,0.0277
861,0.0274
862,0.0272
863,0.0276
864,0.0277
865,0.0264
866,0.0272
867,0.0275
868,0.0257
869,0.0253
870,0.0257
871,0.0269
872,0.0260
873,0.0227
874,0.0254
875,0.0246
876,0.0240
877,0.0245
878,0.0242
879,0.0239
880,0.0249
881,0.0239
882,0.0263
883,0.0262
884,0.0261
885,0.0271
886,0.0265
887,0.0284
888,0.0254
889,0.0291
890,0.0302
891,0.0300
892,0.0299
893,0.0323
894,0.0310
895,0.0344
896,0.0328
897,0.0333
898,0.0342
899,0.0332
900,0.0378
901,0.0361
902,0.0330
903,0.0355
904,0.0385
905,0.0387
906,0.0367
907,0.0390
908,0.0395
909,0.0395
910,0.0405
911,0.0377
912,0.0400
913,0.0364
914,0.0405
915,0.0399
916,0.0383
917,0.0386
918,0.0359
919,0.0354
920,0.0369
921,0.0318
922,0.0362
923,0.0339
924,0.0328
925,0.0341
926,0.0320
927,0.0317
928,0.0301
929,0.0325
930,0.0302
931,0.0294
932,0.0282
933,0.0252
934,0.0267
935,0.0251
936,0.0219
937,0.0185
938,0.0169
939,0.0158
940,0.0126
941,0.0132
942,0.0109
943,0.0098
944,0.0115
945,0.0112
946,0.0108
947,0.0142
