382,NaN
383,1.0000
384,1.0000
385,1.0000
386,0.0000
387,0.2982
388,0.4089
389,0.1198
390,0.1988
391,0.0979
392,0.3556
393,0.2104
394,0.1928
395,0.0000
396,0.1877
397,0.1364
398,0.2153
399,0.0980
400,0.1767
401,0.3696
402,0.0000
403,0.2911
404,0.1981
405,0.2134
406,0.0905
407,0.2487
408,0.2067
409,0.1829
410,0.1803
411,0.1554
412,0.2078
413,0.2403
414,0.1098
415,0.1165
416,0.1750
417,0.2436
418,0.1316
419,0.1109
420,0.1025
421,0.1280
422,0.1324
423,0.1492
424,0.1670
425,0.1140
426,0.1893
427,0.1394
428,0.1345
429,0.1055
430,0.1773
431,0.1341
432,0.1836
433,0.1286
434,0.1793
435,0.1564
436,0.1717
437,0.1676
438,0.1767
439,0.1331
440,0.1432
441,0.1685
442,0.1685
443,0.1610
444,0.1447
445,0.1463
446,0.1342
447,0.1248
448,0.1325
449,0.1410
450,0.1362
451,0.1339
452,0.1203
453,0.1404
454,0.1336
455,0.1367
456,0.1336
457,0.1188
458,0.1218
459,0.1386
460,0.1388
461,0.1246
462,0.1290
463,0.1454
464,0.1313
465,0.1128
466,0.1213
467,0.1170
468,0.1461
469,0.1437
470,0.1279
471,0.1313
472,0.1391
473,0.1448
474,0.1357
475,0.1441
476,0.1457
477,0.1547
478,0.1557
479,0.1816
480,0.1737
481,0.1564
482,0.1712
483,0.1768
484,0.1797
485,0.1895
486,0.1900
487,0.1945
488,0.1836
489,0.1877
490,0.2026
491,0.1915
492,0.1940
493,0.2030
494,0.2031
495,0.1940
496,0.2005
497,0.1962
498,0.1974
499,0.1855
500,0.1895
501,0.1870
502,0.1890
503,0.1732
504,0.1748
505,0.1703
506,0.1697
507,0.1667
508,0.1692
509,0.1578
510,0.1522
511,0.1464
512,0.1444
513,0.1408
514,0.1389
515,0.1342
516,0.1302
517,0.1242
518,0.1223
519,0.1210
520,0.1194
521,0.1109
522,0.1135
523,0.1084
524,0.1116
525,0.1065
526,0.1072
527,0.1060
528,0.1047
529,0.1013
530,0.1004
531,0.1006
532,0.0985
533,0.0967
534,0.0963
535,0.0913
536,0.0938
537,0.0948
538,0.0925
539,0.0916
540,0.0898
541,0.0890
542,0.0870
543,0.0868
544,0.0871
545,0.0859
546,0.0877
547,0.0851
548,0.0842
549,0.0820
550,0.0836
551,0.0804
552,0.0837
553,0.0796
554,0.0806
555,0.0788
556,0.0773
557,0.0796
558,0.0786
559,0.0772
560,0.0752
561,0.0762
562,0.0747
563,0.0762
564,0.0737
565,0.0737
566,0.0735
567,0.0724
568,0.0726
569,0.0734
570,0.0728
571,0.0724
572,0.0717
573,0.0716
574,0.0718
575,0.0690
576,0.0709
577,0.0688
578,0.0688
579,0.0689
580,0.0691
581,0.0671
582,0.0671
583,0.0667
584,0.0659
585,0.0660
586,0.0656
587,0.0653
588,0.0645
589,0.0646
590,0.0642
591,0.0635
592,0.0639
593,0.0641
594,0.0642
595,0.0631
596,0.0630
597,0.0639
598,0.0635
599,0.0633
600,0.0643
601,0.0646
602,0.0637
603,0.0644
604,0.0647
605,0.0652
606,0.0630
607,0.0642
608,0.0643
609,0.0658
610,0.0652
611,0.0654
612,0.0657
613,0.0660
614,0.0660
615,0.0663
616,0.0665
617,0.0664
618,0.0676
619,0.0691
620,0.0694
621,0.0678
622,0.0700
623,0.0702
624,0.0696
625,0.0702
626,0.0692
627,0.0707
628,0.0707
629,0.0722
630,0.0718
631,0.0720
632,0.0710
633,0.0712
634,0.0715
635,0.0705
636,0.0712
637,0.0716
638,0.0712
639,0.0718
640,0.0719
641,0.0737
642,0.0728
643,0.0723
644,0.0734
645,0.0725
646,0.0731
647,0.0729
648,0.0739
649,0.0721
650,0.0720
651,0.0720
652,0.0710
653,0.0717
654,0.0709
655,0.0713
656,0.0694
657,0.0700
658,0.0703
659,0.0700
660,0.0705
661,0.0690
662,0.0696
663,0.0703
664,0.0702
665,0.0702
666,0.0695
667,0.0701
668,0.0693
669,0.0698
670,0.0706
671,0.0702
672,0.0684
673,0.0682
674,0.0666
675,0.0687
676,0.0687
677,0.0678
678,0.0685
679,0.0670
680,0.0680
681,0.0685
682,0.0680
683,0.0677
684,0.0678
685,0.0682
686,0.0669
687,0.0657
688,0.0679
689,0.0662
690,0.0666
691,0.0681
692,0.0663
693,0.0662
694,0.0670
695,0.0665
696,0.0656
697,0.0678
698,0.0665
699,0.0665
700,0.0659
701,0.0665
702,0.0653
703,0.0654
704,0.0647
705,0.0639
706,0.0642
707,0.0634
708,0.0633
709,0.0641
710,0.0629
711,0.0648
712,0.0624
713,0.0625
714,0.0609
715,0.0616
716,0.0609
717,0.0611
718,0.0593
719,0.0589
720,0.0571
721,0.0571
722,0.0558
723,0.0554
724,0.0543
725,0.0552
726,0.0544
727,0.0545
728,0.0537
729,0.0535
730,0.0510
731,0.0525
732,0.0534
733,0.0524
734,0.0531
735,0.0520
736,0.0526
737,0.0523
738,0.0517
739,0.0513
740,0.0505
741,0.0510
742,0.0502
743,0.0507
744,0.0515
745,0.0487
746,0.0494
747,0.0488
748,0.0498
749,0.0500
750,0.0485
751,0.0497
752,0.0493
753,0.0497
754,0.0503
755,0.0514
756,0.0492
757,0.0506
758,0.0503
759,0.0512
760,0.0508
761,0.0500
762,0.0493
763,0.0498
764,0.0497
765,0.0490
766,0.0488
767,0.0479
768,0.0480
769,0.0480
770,0.0474
771,0.0489
772,0.0478
773,0.0474
774,0.0480
775,0.0477
776,0.0478
777,0.0472
778,0.0466
779,0.0476
780,0.0477
781,0.0482
782,0.0476
783,0.0475
784,0.0474
785,0.0463
786,0.0473
787,0.0469
788,0.0474
789,0.0467
790,0.0471
791,0.0472
792,0.0476
793,0.0455
794,0.0467
795,0.0473
796,0.0461
797,0.0473
798,0.0449
799,0.0479
800,0.0506
801,0.0481
802,0.0471
803,0.0492
804,0.0508
805,0.0495
806,0.0501
807,0.0517
808,0.0522
809,0.0513
810,0.0547
811,0.0536
812,0.0525
813,0.0544
814,0.0537
815,0.0539
816,0.0541
817,0.0559
818,0.0559
819,0.0570
820,0.0580
821,0.0569
822,0.0572
823,0.0570
824,0.0549
825,0.0571
826,0.0564
827,0.0563
828,0.0558
829,0.0550
830,0.0556
831,0.0547
832,0.0547
833,0.0526
834,0.0516
835,0.0532
836,0.0525
837,0.0527
838,0.0522
839,0.0510
840,0.0498
841,0.0497
842,0.0495
843,0.0492
844,0.0499
845,0.0478
846,0.0493
847,0.0486
848,0.0481
849,0.0495
850,0.0491
851,0.0495
852,0.0506
853,0.0495
854,0.0481
855,0.0492
856,0.0495
857,0.0498
858,0.0473
859,0.0464
860,0.0471
861,0.0492
862,0.0481
863,0.0490
864,0.0479
865,0.0493
866,0.0483
867,0.0493
868,0.0462
869,0.0463
870,0.0487
871,0.0475
872,0.0479
873,0.0462
874,0.0455
875,0.0447
876,0.0467
877,0.0473
878,0.0473
879,0.0474
880,0.0470
881,0.0459
882,0.0475
883,0.0480
884,0.0504
885,0.0516
886,0.0508
887,0.0525
888,0.0523
889,0.0529
890,0.0561
891,0.0535
892,0.0552
893,0.0567
894,0.0574
895,0.0582
896,0.0601
897,0.0598
898,0.0584
899,0.0573
900,0.0608
901,0.0638
902,0.0614
903,0.0619
904,0.0632
905,0.0637
906,0.0639
907,0.0672
908,0.0664
909,0.0659
910,0.0647
911,0.0622
912,0.0630
913,0.0599
914,0.0606
915,0.0574
916,0.0586
917,0.0554
918,0.0554
919,0.0526
920,0.0561
921,0.0493
922,0.0475
923,0.0462
924,0.0483
925,0.0471
926,0.0432
927,0.0436
928,0.0413
929,0.0438
930,0.0393
931,0.0379
932,0.0363
933,0.0337
934,0.0340
935,0.0305
936,0.0264
937,0.0244
938,0.0222
939,0.0186
940,0.0144
941,0.0137
942,0.0114
943,0.0113
944,0.0123
945,0.0137
946,0.0128
947,0.0196
