382,NaN
383,0.9717
384,0.0000
385,1.0000
386,0.4351
387,0.3309
388,0.3864
389,0.0000
390,0.1197
391,0.2663
392,0.4055
393,0.2282
394,0.0000
395,0.0000
396,0.2814
397,0.0973
398,0.3015
399,0.0869
400,0.2187
401,0.2710
402,0.1027
403,0.2180
404,0.1956
405,0.0850
406,0.1188
407,0.1505
408,0.1368
409,0.1084
410,0.1742
411,0.1603
412,0.1990
413,0.1486
414,0.1027
415,0.1692
416,0.2054
417,0.1384
418,0.1300
419,0.1730
420,0.1500
421,0.1400
422,0.0899
423,0.1803
424,0.1484
425,0.0895
426,0.1974
427,0.1559
428,0.1970
429,0.1424
430,0.1889
431,0.1715
432,0.1798
433,0.1625
434,0.1717
435,0.1544
436,0.1794
437,0.1829
438,0.1827
439,0.1678
440,0.1904
441,0.1968
442,0.1779
443,0.1722
444,0.1534
445,0.1963
446,0.1672
447,0.1968
448,0.1523
449,0.1706
450,0.1284
451,0.1465
452,0.1348
453,0.1672
454,0.1529
455,0.1462
456,0.1477
457,0.1252
458,0.1517
459,0.1271
460,0.1205
461,0.1490
462,0.1291
463,0.1417
464,0.1313
465,0.1201
466,0.1256
467,0.1168
468,0.1421
469,0.1326
470,0.1260
471,0.1304
472,0.1368
473,0.1230
474,0.1138
475,0.1333
476,0.1254
477,0.1467
478,0.1343
479,0.1550
480,0.1489
481,0.1418
482,0.1489
483,0.1578
484,0.1546
485,0.1620
486,0.1569
487,0.1712
488,0.1594
489,0.1660
490,0.1698
491,0.1754
492,0.1709
493,0.1797
494,0.1737
495,0.1859
496,0.1756
497,0.1691
498,0.1756
499,0.1683
500,0.1814
501,0.1722
502,0.1777
503,0.1669
504,0.1622
505,0.1578
506,0.1579
507,0.1596
508,0.1623
509,0.1520
510,0.1495
511,0.1428
512,0.1398
513,0.1357
514,0.1374
515,0.1346
516,0.1322
517,0.1310
518,0.1247
519,0.1243
520,0.1230
521,0.1159
522,0.1185
523,0.1130
524,0.1164
525,0.1107
526,0.1131
527,0.1099
528,0.1089
529,0.1053
530,0.1051
531,0.1025
532,0.1058
533,0.1035
534,0.1024
535,0.0991
536,0.1006
537,0.0977
538,0.0981
539,0.1000
540,0.0961
541,0.0969
542,0.0942
543,0.0921
544,0.0936
545,0.0904
546,0.0920
547,0.0892
548,0.0897
549,0.0870
550,0.0866
551,0.0865
552,0.0858
553,0.0866
554,0.0855
555,0.0830
556,0.0818
557,0.0827
558,0.0802
559,0.0820
560,0.0801
561,0.0780
562,0.0791
563,0.0764
564,0.0774
565,0.0744
566,0.0726
567,0.0742
568,0.0742
569,0.0733
570,0.0736
571,0.0716
572,0.0698
573,0.0696
574,0.0687
575,0.0681
576,0.0684
577,0.0684
578,0.0655
579,0.0664
580,0.0665
581,0.0659
582,0.0645
583,0.0634
584,0.0631
585,0.0625
586,0.0628
587,0.0621
588,0.0618
589,0.0623
590,0.0619
591,0.0607
592,0.0604
593,0.0613
594,0.0606
595,0.0601
596,0.0596
597,0.0598
598,0.0601
599,0.0610
600,0.0600
601,0.0618
602,0.0604
603,0.0601
604,0.0624
605,0.0614
606,0.0611
607,0.0612
608,0.0636
609,0.0613
610,0.0629
611,0.0642
612,0.0649
613,0.0652
614,0.0649
615,0.0647
616,0.0654
617,0.0664
618,0.0665
619,0.0675
620,0.0684
621,0.0687
622,0.0695
623,0.0709
624,0.0711
625,0.0712
626,0.0713
627,0.0715
628,0.0727
629,0.0726
630,0.0732
631,0.0736
632,0.0727
633,0.0727
634,0.0734
635,0.0736
636,0.0730
637,0.0735
638,0.0741
639,0.0762
640,0.0747
641,0.0774
642,0.0766
643,0.0764
644,0.0766
645,0.0768
646,0.0761
647,0.0779
648,0.0776
649,0.0759
650,0.0765
651,0.0764
652,0.0756
653,0.0767
654,0.0758
655,0.0749
656,0.0740
657,0.0748
658,0.0753
659,0.0761
660,0.0753
661,0.0743
662,0.0747
663,0.0747
664,0.0732
665,0.0741
666,0.0739
667,0.0751
668,0.0755
669,0.0735
670,0.0738
671,0.0758
672,0.0729
673,0.0738
674,0.0719
675,0.0734
676,0.0718
677,0.0709
678,0.0717
679,0.0715
680,0.0709
681,0.0709
682,0.0697
683,0.0707
684,0.0709
685,0.0700
686,0.0694
687,0.0690
688,0.0698
689,0.0694
690,0.0694
691,0.0692
692,0.0674
693,0.0680
694,0.0679
695,0.0667
696,0.0678
697,0.0689
698,0.0667
699,0.0666
700,0.0684
701,0.0654
702,0.0660
703,0.0650
704,0.0637
705,0.0641
706,0.0631
707,0.0626
708,0.0625
709,0.0624
710,0.0612
711,0.0612
712,0.0603
713,0.0615
714,0.0593
715,0.0583
716,0.0590
717,0.0588
718,0.0569
719,0.0559
720,0.0558
721,0.0536
722,0.0537
723,0.0535
724,0.0515
725,0.0507
726,0.0504
727,0.0507
728,0.0491
729,0.0496
730,0.0485
731,0.0485
732,0.0500
733,0.0474
734,0.0474
735,0.0482
736,0.0464
737,0.0469
738,0.0466
739,0.0457
740,0.0446
741,0.0459
742,0.0448
743,0.0440
744,0.0444
745,0.0441
746,0.0437
747,0.0438
748,0.0442
749,0.0440
750,0.0439
751,0.0438
752,0.0429
753,0.0443
754,0.0437
755,0.0445
756,0.0438
757,0.0443
758,0.0421
759,0.0444
760,0.0428
761,0.0436
762,0.0418
763,0.0432
764,0.0424
765,0.0435
766,0.0414
767,0.0427
768,0.0422
769,0.0406
770,0.0417
771,0.0422
772,0.0409
773,0.0416
774,0.0409
775,0.0411
776,0.0421
777,0.0410
778,0.0419
779,0.0411
780,0.0410
781,0.0422
782,0.0411
783,0.0415
784,0.0411
785,0.0427
786,0.0420
787,0.0416
788,0.0420
789,0.0416
790,0.0417
791,0.0414
792,0.0425
793,0.0415
794,0.0421
795,0.0422
796,0.0430
797,0.0440
798,0.0424
799,0.0434
800,0.0452
801,0.0452
802,0.0443
803,0.0459
804,0.0465
805,0.0459
806,0.0474
807,0.0480
808,0.0486
809,0.0488
810,0.0517
811,0.0512
812,0.0497
813,0.0510
814,0.0513
815,0.0506
816,0.0533
817,0.0529
818,0.0524
819,0.0552
820,0.0556
821,0.0552
822,0.0545
823,0.0560
824,0.0541
825,0.0550
826,0.0561
827,0.0535
828,0.0541
829,0.0565
830,0.0550
831,0.0556
832,0.0540
833,0.0546
834,0.0539
835,0.0556
836,0.0526
837,0.0537
838,0.0540
839,0.0524
840,0.0526
841,0.0530
842,0.0529
843,0.0518
844,0.0522
845,0.0532
846,0.0513
847,0.0517
848,0.0530
849,0.0513
850,0.0522
851,0.0535
852,0.0523
853,0.0512
854,0.0534
855,0.0528
856,0.0521
857,0.0526
858,0.0530
859,0.0530
860,0.0536
861,0.0529
862,0.0538
863,0.0536
864,0.0541
865,0.0531
866,0.0527
867,0.0529
868,0.0525
869,0.0507
870,0.0522
871,0.0542
872,0.0532
873,0.0518
874,0.0511
875,0.0518
876,0.0512
877,0.0535
878,0.0515
879,0.0524
880,0.0533
881,0.0529
882,0.0534
883,0.0543
884,0.0565
885,0.0575
886,0.0572
887,0.0589
888,0.0583
889,0.0613
890,0.0615
891,0.0611
892,0.0624
893,0.0659
894,0.0673
895,0.0681
896,0.0671
897,0.0684
898,0.0685
899,0.0677
900,0.0697
901,0.0717
902,0.0705
903,0.0707
904,0.0733
905,0.0751
906,0.0769
907,0.0755
908,0.0738
909,0.0745
910,0.0755
911,0.0715
912,0.0719
913,0.0695
914,0.0703
915,0.0671
916,0.0675
917,0.0640
918,0.0629
919,0.0610
920,0.0633
921,0.0583
922,0.0577
923,0.0528
924,0.0556
925,0.0522
926,0.0513
927,0.0487
928,0.0476
929,0.0460
930,0.0451
931,0.0436
932,0.0398
933,0.0384
934,0.0375
935,0.0358
936,0.0297
937,0.0279
938,0.0228
939,0.0191
940,0.0167
941,0.0155
942,0.0147
943,0.0127
944,0.0148
945,0.0132
946,0.0136
947,0.0199
