382,NaN
383,1.0000
384,1.0000
385,1.0000
386,0.0000
387,0.1858
388,0.2433
389,0.0000
390,0.1122
391,0.2086
392,0.1897
393,0.2700
394,0.1537
395,0.0258
396,0.2125
397,0.0000
398,0.1414
399,0.1008
400,0.0783
401,0.2484
402,0.0306
403,0.1567
404,0.2010
405,0.0848
406,0.1315
407,0.0882
408,0.2034
409,0.0719
410,0.0900
411,0.1371
412,0.1570
413,0.1224
414,0.1119
415,0.1028
416,0.1132
417,0.1500
418,0.0733
419,0.1307
420,0.1243
421,0.1023
422,0.0883
423,0.1127
424,0.1458
425,0.0984
426,0.1453
427,0.1180
428,0.1502
429,0.1326
430,0.1970
431,0.1666
432,0.1774
433,0.1420
434,0.1579
435,0.1689
436,0.1721
437,0.1719
438,0.1834
439,0.1733
440,0.2120
441,0.1986
442,0.2087
443,0.1873
444,0.1796
445,0.1983
446,0.1833
447,0.1789
448,0.1606
449,0.1804
450,0.1919
451,0.1676
452,0.1862
453,0.1830
454,0.2012
455,0.1769
456,0.1778
457,0.1799
458,0.1877
459,0.1722
460,0.1765
461,0.1705
462,0.1715
463,0.1815
464,0.1613
465,0.1561
466,0.1563
467,0.1489
468,0.1729
469,0.1734
470,0.1625
471,0.1616
472,0.1707
473,0.1533
474,0.1699
475,0.1586
476,0.1629
477,0.1603
478,0.1615
479,0.1725
480,0.1616
481,0.1513
482,0.1623
483,0.1611
484,0.1601
485,0.1604
486,0.1625
487,0.1719
488,0.1544
489,0.1513
490,0.1552
491,0.1434
492,0.1436
493,0.1509
494,0.1435
495,0.1430
496,0.1381
497,0.1323
498,0.1431
499,0.1289
500,0.1253
501,0.1208
502,0.1202
503,0.1155
504,0.1109
505,0.1082
506,0.1070
507,0.1084
508,0.1029
509,0.0993
510,0.1002
511,0.0967
512,0.0909
513,0.0897
514,0.0952
515,0.0897
516,0.0880
517,0.0865
518,0.0836
519,0.0850
520,0.0850
521,0.0818
522,0.0802
523,0.0807
524,0.0821
525,0.0829
526,0.0818
527,0.0833
528,0.0832
529,0.0812
530,0.0819
531,0.0814
532,0.0829
533,0.0814
534,0.0845
535,0.0844
536,0.0853
537,0.0854
538,0.0897
539,0.0878
540,0.0890
541,0.0881
542,0.0888
543,0.0880
544,0.0927
545,0.0908
546,0.0920
547,0.0936
548,0.0920
549,0.0939
550,0.0936
551,0.0941
552,0.0972
553,0.0956
554,0.0971
555,0.0962
556,0.0955
557,0.0973
558,0.0984
559,0.0984
560,0.0990
561,0.0976
562,0.0991
563,0.0999
564,0.0999
565,0.0987
566,0.0981
567,0.0984
568,0.1006
569,0.0997
570,0.0984
571,0.0988
572,0.1007
573,0.0988
574,0.1007
575,0.0967
576,0.0994
577,0.0981
578,0.0975
579,0.0986
580,0.0965
581,0.0960
582,0.0940
583,0.0927
584,0.0932
585,0.0919
586,0.0906
587,0.0901
588,0.0891
589,0.0880
590,0.0884
591,0.0864
592,0.0872
593,0.0863
594,0.0858
595,0.0851
596,0.0827
597,0.0818
598,0.0815
599,0.0813
600,0.0809
601,0.0811
602,0.0800
603,0.0783
604,0.0775
605,0.0770
606,0.0762
607,0.0758
608,0.0760
609,0.0732
610,0.0744
611,0.0734
612,0.0736
613,0.0732
614,0.0725
615,0.0709
616,0.0706
617,0.0697
618,0.0699
619,0.0682
620,0.0679
621,0.0678
622,0.0677
623,0.0680
624,0.0668
625,0.0655
626,0.0645
627,0.0655
628,0.0646
629,0.0634
630,0.0629
631,0.0628
632,0.0606
633,0.0603
634,0.0598
635,0.0590
636,0.0580
637,0.0580
638,0.0556
639,0.0569
640,0.0578
641,0.0582
642,0.0564
643,0.0547
644,0.0559
645,0.0549
646,0.0549
647,0.0541
648,0.0545
649,0.0533
650,0.0520
651,0.0515
652,0.0524
653,0.0516
654,0.0496
655,0.0498
656,0.0492
657,0.0495
658,0.0484
659,0.0495
660,0.0483
661,0.0480
662,0.0485
663,0.0490
664,0.0477
665,0.0489
666,0.0483
667,0.0486
668,0.0486
669,0.0484
670,0.0481
671,0.0491
672,0.0484
673,0.0479
674,0.0474
675,0.0487
676,0.0481
677,0.0484
678,0.0492
679,0.0485
680,0.0484
681,0.0490
682,0.0492
683,0.0514
684,0.0496
685,0.0488
686,0.0504
687,0.0491
688,0.0509
689,0.0518
690,0.0513
691,0.0523
692,0.0520
693,0.0527
694,0.0543
695,0.0522
696,0.0543
697,0.0547
698,0.0546
699,0.0557
700,0.0562
701,0.0554
702,0.0560
703,0.0565
704,0.0551
705,0.0562
706,0.0569
707,0.0566
708,0.0575
709,0.0574
710,0.0565
711,0.0592
712,0.0590
713,0.0584
714,0.0586
715,0.0588
716,0.0587
717,0.0591
718,0.0595
719,0.0580
720,0.0572
721,0.0571
722,0.0574
723,0.0584
724,0.0569
725,0.0571
726,0.0577
727,0.0571
728,0.0578
729,0.0568
730,0.0584
731,0.0576
732,0.0586
733,0.0592
734,0.0589
735,0.0590
736,0.0601
737,0.0598
738,0.0585
739,0.0595
740,0.0604
741,0.0608
742,0.0604
743,0.0609
744,0.0610
745,0.0620
746,0.0614
747,0.0611
748,0.0616
749,0.0618
750,0.0625
751,0.0632
752,0.0631
753,0.0633
754,0.0640
755,0.0651
756,0.0641
757,0.0655
758,0.0644
759,0.0654
760,0.0649
761,0.0656
762,0.0656
763,0.0659
764,0.0651
765,0.0666
766,0.0642
767,0.0651
768,0.0642
769,0.0650
770,0.0633
771,0.0645
772,0.0638
773,0.0626
774,0.0641
775,0.0644
776,0.0640
777,0.0627
778,0.0640
779,0.0630
780,0.0636
781,0.0645
782,0.0652
783,0.0637
784,0.0642
785,0.0619
786,0.0650
787,0.0632
788,0.0634
789,0.0626
790,0.0643
791,0.0621
792,0.0623
793,0.0619
794,0.0613
795,0.0612
796,0.0627
797,0.0637
798,0.0624
799,0.0623
800,0.0638
801,0.0639
802,0.0635
803,0.0635
804,0.0646
805,0.0653
806,0.0638
807,0.0648
808,0.0658
809,0.0658
810,0.0677
811,0.0670
812,0.0662
813,0.0678
814,0.0658
815,0.0656
816,0.0666
817,0.0671
818,0.0669
819,0.0660
820,0.0709
821,0.0669
822,0.0671
823,0.0662
824,0.0675
825,0.0675
826,0.0660
827,0.0652
828,0.0629
829,0.0620
830,0.0621
831,0.0607
832,0.0593
833,0.0588
834,0.0589
835,0.0593
836,0.0587
837,0.0568
838,0.0561
839,0.0552
840,0.0546
841,0.0539
842,0.0546
843,0.0518
844,0.0531
845,0.0513
846,0.0518
847,0.0496
848,0.0506
849,0.0501
850,0.0490
851,0.0497
852,0.0487
853,0.0483
854,0.0495
855,0.0470
856,0.0471
857,0.0483
858,0.0471
859,0.0454
860,0.0472
861,0.0464
862,0.0468
863,0.0471
864,0.0455
865,0.0445
866,0.0442
867,0.0439
868,0.0440
869,0.0433
870,0.0426
871,0.0416
872,0.0408
873,0.0404
874,0.0409
875,0.0396
876,0.0407
877,0.0389
878,0.0387
879,0.0392
880,0.0404
881,0.0392
882,0.0406
883,0.0395
884,0.0392
885,0.0404
886,0.0405
887,0.0408
888,0.0414
889,0.0440
890,0.0434
891,0.0422
892,0.0451
893,0.0455
894,0.0451
895,0.0427
896,0.0444
897,0.0445
898,0.0447
899,0.0454
900,0.0459
901,0.0460
902,0.0451
903,0.0437
904,0.0454
905,0.0445
906,0.0476
907,0.0482
908,0.0484
909,0.0460
910,0.0471
911,0.0409
912,0.0441
913,0.0411
914,0.0419
915,0.0409
916,0.0420
917,0.0401
918,0.0362
919,0.0358
920,0.0382
921,0.0347
922,0.0342
923,0.0318
924,0.0343
925,0.0316
926,0.0293
927,0.0311
928,0.0292
929,0.0291
930,0.0265
931,0.0222
932,0.0233
933,0.0221
934,0.0243
935,0.0197
936,0.0173
937,0.0154
938,0.0145
939,0.0120
940,0.0117
941,0.0118
942,0.0094
943,0.0081
944,0.0074
945,0.0088
946,0.0067
947,0.0148
