382,NaN
383,1.0000
384,1.0000
385,1.0000
386,0.0000
387,0.2840
388,0.2773
389,0.2648
390,0.1319
391,0.1798
392,0.3121
393,0.2053
394,0.0763
395,0.0875
396,0.2531
397,0.1008
398,0.1592
399,0.1128
400,0.2038
401,0.2874
402,0.0061
403,0.1989
404,0.1754
405,0.2531
406,0.1135
407,0.1570
408,0.1283
409,0.0798
410,0.1930
411,0.1695
412,0.1802
413,0.1853
414,0.1103
415,0.0737
416,0.1182
417,0.1312
418,0.0831
419,0.0701
420,0.1255
421,0.1086
422,0.1096
423,0.1060
424,0.1028
425,0.0960
426,0.1252
427,0.0799
428,0.1620
429,0.0891
430,0.1119
431,0.1315
432,0.0817
433,0.1333
434,0.1306
435,0.1186
436,0.1348
437,0.1626
438,0.1346
439,0.1249
440,0.1344
441,0.1495
442,0.1514
443,0.1760
444,0.1375
445,0.1368
446,0.1464
447,0.1350
448,0.1212
449,0.1402
450,0.1724
451,0.1215
452,0.1219
453,0.1567
454,0.1448
455,0.1640
456,0.1447
457,0.1461
458,0.1412
459,0.1416
460,0.1485
461,0.1467
462,0.1394
463,0.1541
464,0.1458
465,0.1402
466,0.1633
467,0.1540
468,0.1763
469,0.1742
470,0.1568
471,0.1698
472,0.1699
473,0.1635
474,0.1736
475,0.1873
476,0.1802
477,0.1901
478,0.1886
479,0.2051
480,0.1942
481,0.1922
482,0.1929
483,0.2052
484,0.2118
485,0.2096
486,0.2161
487,0.2206
488,0.2146
489,0.2071
490,0.2145
491,0.2161
492,0.2082
493,0.2162
494,0.2200
495,0.2150
496,0.2056
497,0.1932
498,0.1922
499,0.1845
500,0.1920
501,0.1812
502,0.1822
503,0.1675
504,0.1651
505,0.1597
506,0.1580
507,0.1558
508,0.1493
509,0.1442
510,0.1349
511,0.1301
512,0.1276
513,0.1228
514,0.1212
515,0.1185
516,0.1128
517,0.1069
518,0.1016
519,0.1006
520,0.1008
521,0.0931
522,0.0922
523,0.0886
524,0.0913
525,0.0863
526,0.0891
527,0.0831
528,0.0829
529,0.0817
530,0.0810
531,0.0785
532,0.0779
533,0.0751
534,0.0763
535,0.0733
536,0.0747
537,0.0739
538,0.0746
539,0.0735
540,0.0722
541,0.0735
542,0.0715
543,0.0734
544,0.0702
545,0.0709
546,0.0729
547,0.0711
548,0.0706
549,0.0696
550,0.0712
551,0.0699
552,0.0697
553,0.0699
554,0.0726
555,0.0711
556,0.0701
557,0.0693
558,0.0685
559,0.0723
560,0.0708
561,0.0708
562,0.0712
563,0.0725
564,0.0721
565,0.0752
566,0.0705
567,0.0730
568,0.0745
569,0.0754
570,0.0762
571,0.0762
572,0.0769
573,0.0778
574,0.0764
575,0.0770
576,0.0773
577,0.0773
578,0.0778
579,0.0786
580,0.0787
581,0.0785
582,0.0780
583,0.0776
584,0.0783
585,0.0789
586,0.0792
587,0.0794
588,0.0785
589,0.0788
590,0.0795
591,0.0800
592,0.0796
593,0.0815
594,0.0820
595,0.0810
596,0.0817
597,0.0800
598,0.0804
599,0.0818
600,0.0803
601,0.0823
602,0.0810
603,0.0813
604,0.0798
605,0.0820
606,0.0811
607,0.0822
608,0.0830
609,0.0822
610,0.0827
611,0.0835
612,0.0835
613,0.0835
614,0.0833
615,0.0830
616,0.0833
617,0.0835
618,0.0833
619,0.0838
620,0.0827
621,0.0841
622,0.0851
623,0.0849
624,0.0850
625,0.0846
626,0.0834
627,0.0840
628,0.0849
629,0.0842
630,0.0838
631,0.0832
632,0.0808
633,0.0814
634,0.0800
635,0.0798
636,0.0793
637,0.0802
638,0.0786
639,0.0794
640,0.0792
641,0.0788
642,0.0782
643,0.0785
644,0.0759
645,0.0759
646,0.0758
647,0.0747
648,0.0745
649,0.0740
650,0.0727
651,0.0716
652,0.0711
653,0.0701
654,0.0691
655,0.0686
656,0.0681
657,0.0678
658,0.0667
659,0.0664
660,0.0654
661,0.0655
662,0.0650
663,0.0636
664,0.0632
665,0.0636
666,0.0614
667,0.0619
668,0.0621
669,0.0613
670,0.0611
671,0.0605
672,0.0586
673,0.0580
674,0.0582
675,0.0572
676,0.0577
677,0.0564
678,0.0561
679,0.0559
680,0.0547
681,0.0544
682,0.0547
683,0.0542
684,0.0540
685,0.0535
686,0.0533
687,0.0519
688,0.0519
689,0.0530
690,0.0524
691,0.0526
692,0.0520
693,0.0505
694,0.0507
695,0.0497
696,0.0500
697,0.0503
698,0.0496
699,0.0504
700,0.0491
701,0.0495
702,0.0486
703,0.0487
704,0.0470
705,0.0474
706,0.0480
707,0.0468
708,0.0471
709,0.0469
710,0.0465
711,0.0472
712,0.0453
713,0.0459
714,0.0450
715,0.0455
716,0.0454
717,0.0451
718,0.0447
719,0.0440
720,0.0437
721,0.0424
722,0.0416
723,0.0422
724,0.0423
725,0.0412
726,0.0412
727,0.0415
728,0.0408
729,0.0405
730,0.0400
731,0.0414
732,0.0419
733,0.0402
734,0.0410
735,0.0417
736,0.0417
737,0.0429
738,0.0416
739,0.0407
740,0.0408
741,0.0422
742,0.0424
743,0.0409
744,0.0424
745,0.0429
746,0.0424
747,0.0428
748,0.0435
749,0.0431
750,0.0433
751,0.0436
752,0.0428
753,0.0443
754,0.0454
755,0.0458
756,0.0462
757,0.0472
758,0.0469
759,0.0462
760,0.0464
761,0.0466
762,0.0468
763,0.0467
764,0.0473
765,0.0481
766,0.0472
767,0.0474
768,0.0473
769,0.0477
770,0.0475
771,0.0481
772,0.0478
773,0.0480
774,0.0487
775,0.0481
776,0.0504
777,0.0501
778,0.0501
779,0.0513
780,0.0506
781,0.0511
782,0.0512
783,0.0513
784,0.0517
785,0.0517
786,0.0534
787,0.0516
788,0.0529
789,0.0524
790,0.0531
791,0.0523
792,0.0537
793,0.0532
794,0.0555
795,0.0539
796,0.0536
797,0.0545
798,0.0555
799,0.0558
800,0.0583
801,0.0581
802,0.0576
803,0.0605
804,0.0591
805,0.0609
806,0.0593
807,0.0628
808,0.0624
809,0.0651
810,0.0649
811,0.0640
812,0.0658
813,0.0666
814,0.0663
815,0.0671
816,0.0684
817,0.0676
818,0.0685
819,0.0702
820,0.0689
821,0.0707
822,0.0704
823,0.0705
824,0.0696
825,0.0699
826,0.0702
827,0.0683
828,0.0683
829,0.0692
830,0.0692
831,0.0695
832,0.0684
833,0.0661
834,0.0676
835,0.0666
836,0.0664
837,0.0667
838,0.0652
839,0.0631
840,0.0622
841,0.0627
842,0.0637
843,0.0617
844,0.0625
845,0.0609
846,0.0607
847,0.0595
848,0.0617
849,0.0605
850,0.0597
851,0.0613
852,0.0621
853,0.0605
854,0.0614
855,0.0603
856,0.0601
857,0.0615
858,0.0602
859,0.0592
860,0.0588
861,0.0596
862,0.0610
863,0.0596
864,0.0609
865,0.0566
866,0.0584
867,0.0585
868,0.0574
869,0.0585
870,0.0588
871,0.0565
872,0.0555
873,0.0542
874,0.0564
875,0.0537
876,0.0539
877,0.0543
878,0.0560
879,0.0576
880,0.0558
881,0.0542
882,0.0565
883,0.0577
884,0.0567
885,0.0583
886,0.0570
887,0.0594
888,0.0589
889,0.0632
890,0.0627
891,0.0640
892,0.0638
893,0.0652
894,0.0675
895,0.0677
896,0.0675
897,0.0670
898,0.0666
899,0.0643
900,0.0694
901,0.0681
902,0.0658
903,0.0670
904,0.0718
905,0.0721
906,0.0724
907,0.0729
908,0.0727
909,0.0701
910,0.0730
911,0.0670
912,0.0669
913,0.0660
914,0.0638
915,0.0636
916,0.0612
917,0.0587
918,0.0597
919,0.0561
920,0.0568
921,0.0521
922,0.0532
923,0.0508
924,0.0491
925,0.0488
926,0.0455
927,0.0450
928,0.0420
929,0.0436
930,0.0402
931,0.0368
932,0.0367
933,0.0333
934,0.0336
935,0.0288
936,0.0267
937,0.0233
938,0.0210
939,0.0168
940,0.0146
941,0.0133
942,0.0142
943,0.0092
944,0.0119
945,0.0125
946,0.0128
947,0.0197
