382,NaN
383,1.0000
384,0.2084
385,0.0000
386,0.6576
387,0.1874
388,0.0922
389,0.1387
390,0.1639
391,0.1059
392,0.3097
393,0.2622
394,0.0896
395,0.1301
396,0.3605
397,0.0367
398,0.1938
399,0.1486
400,0.2557
401,0.2652
402,0.0000
403,0.1447
404,0.1043
405,0.1963
406,0.1676
407,0.2599
408,0.0791
409,0.1872
410,0.2030
411,0.2124
412,0.2118
413,0.1866
414,0.1442
415,0.1488
416,0.1347
417,0.1764
418,0.1298
419,0.1390
420,0.1702
421,0.1502
422,0.1272
423,0.1679
424,0.1461
425,0.0941
426,0.1726
427,0.1094
428,0.1335
429,0.1351
430,0.1504
431,0.1586
432,0.1016
433,0.1220
434,0.1302
435,0.1279
436,0.1218
437,0.1485
438,0.1327
439,0.0950
440,0.1275
441,0.1142
442,0.1553
443,0.1520
444,0.1278
445,0.1215
446,0.0963
447,0.0995
448,0.0945
449,0.1186
450,0.1081
451,0.0902
452,0.0808
453,0.1318
454,0.1387
455,0.1299
456,0.1244
457,0.1211
458,0.1105
459,0.1104
460,0.1187
461,0.1225
462,0.1213
463,0.1314
464,0.1275
465,0.1092
466,0.1350
467,0.1257
468,0.1415
469,0.1446
470,0.1469
471,0.1400
472,0.1530
473,0.1599
474,0.1533
475,0.1715
476,0.1780
477,0.1890
478,0.1838
479,0.2067
480,0.2046
481,0.1902
482,0.2140
483,0.2256
484,0.2278
485,0.2288
486,0.2317
487,0.2428
488,0.2401
489,0.2451
490,0.2387
491,0.2389
492,0.2441
493,0.2553
494,0.2495
495,0.2502
496,0.2438
497,0.2310
498,0.2426
499,0.2227
500,0.2283
501,0.2196
502,0.2166
503,0.2033
504,0.1971
505,0.1913
506,0.1914
507,0.1837
508,0.1788
509,0.1728
510,0.1673
511,0.1566
512,0.1539
513,0.1422
514,0.1416
515,0.1355
516,0.1322
517,0.1263
518,0.1161
519,0.1163
520,0.1157
521,0.1084
522,0.1048
523,0.0991
524,0.0996
525,0.0960
526,0.0925
527,0.0902
528,0.0886
529,0.0869
530,0.0832
531,0.0820
532,0.0820
533,0.0774
534,0.0771
535,0.0742
536,0.0729
537,0.0703
538,0.0691
539,0.0702
540,0.0681
541,0.0662
542,0.0668
543,0.0642
544,0.0612
545,0.0618
546,0.0612
547,0.0632
548,0.0609
549,0.0588
550,0.0588
551,0.0570
552,0.0589
553,0.0579
554,0.0575
555,0.0558
556,0.0569
557,0.0552
558,0.0561
559,0.0558
560,0.0557
561,0.0554
562,0.0562
563,0.0570
564,0.0569
565,0.0567
566,0.0557
567,0.0575
568,0.0580
569,0.0600
570,0.0589
571,0.0613
572,0.0614
573,0.0617
574,0.0621
575,0.0624
576,0.0639
577,0.0637
578,0.0632
579,0.0641
580,0.0657
581,0.0656
582,0.0663
583,0.0671
584,0.0667
585,0.0688
586,0.0692
587,0.0685
588,0.0705
589,0.0700
590,0.0736
591,0.0710
592,0.0734
593,0.0738
594,0.0744
595,0.0752
596,0.0754
597,0.0755
598,0.0783
599,0.0772
600,0.0790
601,0.0785
602,0.0796
603,0.0792
604,0.0816
605,0.0815
606,0.0820
607,0.0832
608,0.0857
609,0.0848
610,0.0855
611,0.0861
612,0.0881
613,0.0887
614,0.0870
615,0.0885
616,0.0899
617,0.0883
618,0.0907
619,0.0905
620,0.0928
621,0.0928
622,0.0930
623,0.0942
624,0.0944
625,0.0931
626,0.0934
627,0.0955
628,0.0942
629,0.0938
630,0.0936
631,0.0950
632,0.0921
633,0.0936
634,0.0913
635,0.0915
636,0.0908
637,0.0919
638,0.0909
639,0.0912
640,0.0922
641,0.0913
642,0.0914
643,0.0901
644,0.0901
645,0.0892
646,0.0884
647,0.0887
648,0.0884
649,0.0854
650,0.0852
651,0.0838
652,0.0833
653,0.0820
654,0.0823
655,0.0804
656,0.0794
657,0.0798
658,0.0790
659,0.0773
660,0.0765
661,0.0752
662,0.0745
663,0.0752
664,0.0732
665,0.0738
666,0.0729
667,0.0731
668,0.0720
669,0.0701
670,0.0691
671,0.0695
672,0.0672
673,0.0671
674,0.0652
675,0.0655
676,0.0653
677,0.0640
678,0.0631
679,0.0613
680,0.0620
681,0.0600
682,0.0597
683,0.0599
684,0.0579
685,0.0576
686,0.0572
687,0.0558
688,0.0551
689,0.0567
690,0.0551
691,0.0542
692,0.0528
693,0.0528
694,0.0521
695,0.0507
696,0.0507
697,0.0518
698,0.0502
699,0.0487
700,0.0489
701,0.0486
702,0.0469
703,0.0477
704,0.0455
705,0.0459
706,0.0445
707,0.0436
708,0.0434
709,0.0433
710,0.0429
711,0.0429
712,0.0412
713,0.0407
714,0.0403
715,0.0403
716,0.0391
717,0.0393
718,0.0379
719,0.0376
720,0.0374
721,0.0354
722,0.0351
723,0.0341
724,0.0342
725,0.0335
726,0.0342
727,0.0341
728,0.0331
729,0.0333
730,0.0325
731,0.0328
732,0.0327
733,0.0317
734,0.0316
735,0.0326
736,0.0322
737,0.0323
738,0.0316
739,0.0325
740,0.0312
741,0.0319
742,0.0314
743,0.0311
744,0.0316
745,0.0318
746,0.0314
747,0.0324
748,0.0322
749,0.0328
750,0.0321
751,0.0325
752,0.0334
753,0.0337
754,0.0335
755,0.0337
756,0.0355
757,0.0352
758,0.0350
759,0.0350
760,0.0363
761,0.0362
762,0.0360
763,0.0367
764,0.0365
765,0.0374
766,0.0381
767,0.0369
768,0.0379
769,0.0368
770,0.0375
771,0.0395
772,0.0379
773,0.0395
774,0.0393
775,0.0396
776,0.0408
777,0.0401
778,0.0405
779,0.0424
780,0.0412
781,0.0427
782,0.0437
783,0.0421
784,0.0435
785,0.0434
786,0.0448
787,0.0452
788,0.0449
789,0.0443
790,0.0457
791,0.0454
792,0.0455
793,0.0455
794,0.0471
795,0.0470
796,0.0475
797,0.0492
798,0.0479
799,0.0490
800,0.0523
801,0.0514
802,0.0530
803,0.0537
804,0.0557
805,0.0555
806,0.0562
807,0.0573
808,0.0573
809,0.0595
810,0.0617
811,0.0605
812,0.0609
813,0.0619
814,0.0630
815,0.0639
816,0.0630
817,0.0655
818,0.0635
819,0.0667
820,0.0684
821,0.0682
822,0.0678
823,0.0691
824,0.0676
825,0.0697
826,0.0694
827,0.0686
828,0.0699
829,0.0688
830,0.0685
831,0.0696
832,0.0701
833,0.0667
834,0.0648
835,0.0671
836,0.0661
837,0.0663
838,0.0658
839,0.0645
840,0.0648
841,0.0654
842,0.0660
843,0.0625
844,0.0651
845,0.0643
846,0.0640
847,0.0624
848,0.0648
849,0.0646
850,0.0646
851,0.0642
852,0.0632
853,0.0649
854,0.0660
855,0.0627
856,0.0638
857,0.0653
858,0.0648
859,0.0635
860,0.0641
861,0.0653
862,0.0654
863,0.0651
864,0.0652
865,0.0628
866,0.0631
867,0.0651
868,0.0643
869,0.0631
870,0.0631
871,0.0633
872,0.0616
873,0.0600
874,0.0600
875,0.0605
876,0.0622
877,0.0610
878,0.0618
879,0.0628
880,0.0631
881,0.0615
882,0.0624
883,0.0602
884,0.0663
885,0.0660
886,0.0669
887,0.0675
888,0.0660
889,0.0690
890,0.0694
891,0.0703
892,0.0708
893,0.0741
894,0.0735
895,0.0755
896,0.0764
897,0.0767
898,0.0767
899,0.0765
900,0.0810
901,0.0774
902,0.0751
903,0.0794
904,0.0792
905,0.0812
906,0.0807
907,0.0845
908,0.0847
909,0.0803
910,0.0819
911,0.0769
912,0.0779
913,0.0783
914,0.0740
915,0.0750
916,0.0754
917,0.0695
918,0.0705
919,0.0627
920,0.0682
921,0.0632
922,0.0590
923,0.0553
924,0.0589
925,0.0571
926,0.0535
927,0.0528
928,0.0488
929,0.0504
930,0.0481
931,0.0433
932,0.0416
933,0.0400
934,0.0387
935,0.0369
936,0.0310
937,0.0280
938,0.0255
939,0.0206
940,0.0186
941,0.0177
942,0.0157
943,0.0132
944,0.0138
945,0.0142
946,0.0143
947,0.0191
