382,NaN
383,1.0000
384,1.0000
385,1.0000
386,0.0000
387,0.3203
388,0.1983
389,0.0148
390,0.0074
391,0.1085
392,0.3458
393,0.1711
394,0.0000
395,0.0647
396,0.1134
397,0.0000
398,0.0646
399,0.0318
400,0.0749
401,0.3135
402,0.1001
403,0.2886
404,0.1105
405,0.1165
406,0.1790
407,0.1471
408,0.0955
409,0.1308
410,0.1633
411,0.1690
412,0.1751
413,0.2131
414,0.1211
415,0.1217
416,0.1445
417,0.1588
418,0.1549
419,0.2088
420,0.1493
421,0.1929
422,0.1606
423,0.1536
424,0.2271
425,0.1568
426,0.2275
427,0.1718
428,0.1988
429,0.2284
430,0.2418
431,0.2164
432,0.2022
433,0.2165
434,0.2073
435,0.2295
436,0.2057
437,0.2433
438,0.2290
439,0.2154
440,0.2373
441,0.2363
442,0.2541
443,0.2380
444,0.2426
445,0.2189
446,0.2034
447,0.2197
448,0.1737
449,0.2366
450,0.2115
451,0.1820
452,0.1897
453,0.2046
454,0.2141
455,0.1982
456,0.1956
457,0.1732
458,0.1973
459,0.1831
460,0.1819
461,0.1819
462,0.1848
463,0.1773
464,0.1715
465,0.1540
466,0.1766
467,0.1689
468,0.1769
469,0.1756
470,0.1658
471,0.1610
472,0.1704
473,0.1584
474,0.1694
475,0.1621
476,0.1678
477,0.1822
478,0.1628
479,0.1760
480,0.1584
481,0.1616
482,0.1557
483,0.1638
484,0.1511
485,0.1531
486,0.1511
487,0.1555
488,0.1439
489,0.1425
490,0.1475
491,0.1372
492,0.1318
493,0.1352
494,0.1314
495,0.1345
496,0.1251
497,0.1145
498,0.1178
499,0.1054
500,0.1063
501,0.0938
502,0.0949
503,0.0862
504,0.0866
505,0.0841
506,0.0783
507,0.0783
508,0.0792
509,0.0746
510,0.0714
511,0.0663
512,0.0669
513,0.0639
514,0.0639
515,0.0598
516,0.0576
517,0.0586
518,0.0526
519,0.0545
520,0.0534
521,0.0496
522,0.0498
523,0.0497
524,0.0514
525,0.0507
526,0.0528
527,0.0493
528,0.0512
529,0.0502
530,0.0486
531,0.0499
532,0.0497
533,0.0494
534,0.0544
535,0.0505
536,0.0544
537,0.0545
538,0.0549
539,0.0548
540,0.0554
541,0.0552
542,0.0549
543,0.0562
544,0.0583
545,0.0581
546,0.0619
547,0.0628
548,0.0614
549,0.0616
550,0.0630
551,0.0636
552,0.0661
553,0.0667
554,0.0670
555,0.0666
556,0.0690
557,0.0693
558,0.0703
559,0.0720
560,0.0726
561,0.0731
562,0.0761
563,0.0755
564,0.0766
565,0.0770
566,0.0789
567,0.0799
568,0.0809
569,0.0822
570,0.0828
571,0.0851
572,0.0852
573,0.0836
574,0.0857
575,0.0851
576,0.0875
577,0.0902
578,0.0871
579,0.0891
580,0.0891
581,0.0912
582,0.0902
583,0.0899
584,0.0901
585,0.0914
586,0.0913
587,0.0908
588,0.0910
589,0.0917
590,0.0929
591,0.0913
592,0.0929
593,0.0932
594,0.0942
595,0.0920
596,0.0927
597,0.0937
598,0.0944
599,0.0940
600,0.0948
601,0.0948
602,0.0946
603,0.0955
604,0.0959
605,0.0968
606,0.0957
607,0.0971
608,0.0961
609,0.0962
610,0.0969
611,0.0984
612,0.0974
613,0.0985
614,0.0971
615,0.0976
616,0.0983
617,0.0979
618,0.1003
619,0.0998
620,0.0995
621,0.0998
622,0.1005
623,0.0996
624,0.0996
625,0.1011
626,0.1001
627,0.0996
628,0.1008
629,0.1009
630,0.1011
631,0.1001
632,0.0988
633,0.0982
634,0.0977
635,0.0960
636,0.0956
637,0.0962
638,0.0951
639,0.0970
640,0.0968
641,0.0954
642,0.0964
643,0.0951
644,0.0954
645,0.0945
646,0.0931
647,0.0930
648,0.0922
649,0.0905
650,0.0893
651,0.0904
652,0.0888
653,0.0890
654,0.0875
655,0.0869
656,0.0860
657,0.0853
658,0.0857
659,0.0843
660,0.0839
661,0.0836
662,0.0830
663,0.0825
664,0.0802
665,0.0800
666,0.0802
667,0.0807
668,0.0801
669,0.0796
670,0.0785
671,0.0790
672,0.0769
673,0.0774
674,0.0752
675,0.0759
676,0.0750
677,0.0733
678,0.0747
679,0.0728
680,0.0725
681,0.0720
682,0.0715
683,0.0720
684,0.0723
685,0.0691
686,0.0694
687,0.0677
688,0.0703
689,0.0696
690,0.0687
691,0.0677
692,0.0672
693,0.0669
694,0.0667
695,0.0653
696,0.0651
697,0.0664
698,0.0648
699,0.0636
700,0.0640
701,0.0624
702,0.0620
703,0.0613
704,0.0603
705,0.0596
706,0.0587
707,0.0581
708,0.0587
709,0.0580
710,0.0562
711,0.0583
712,0.0551
713,0.0551
714,0.0534
715,0.0538
716,0.0527
717,0.0527
718,0.0514
719,0.0506
720,0.0497
721,0.0478
722,0.0473
723,0.0464
724,0.0463
725,0.0452
726,0.0449
727,0.0437
728,0.0436
729,0.0430
730,0.0429
731,0.0425
732,0.0416
733,0.0407
734,0.0398
735,0.0400
736,0.0396
737,0.0390
738,0.0383
739,0.0377
740,0.0380
741,0.0377
742,0.0373
743,0.0360
744,0.0370
745,0.0366
746,0.0355
747,0.0353
748,0.0360
749,0.0345
750,0.0346
751,0.0351
752,0.0342
753,0.0335
754,0.0354
755,0.0334
756,0.0333
757,0.0331
758,0.0333
759,0.0322
760,0.0317
761,0.0316
762,0.0317
763,0.0321
764,0.0325
765,0.0320
766,0.0304
767,0.0303
768,0.0308
769,0.0298
770,0.0286
771,0.0311
772,0.0285
773,0.0288
774,0.0298
775,0.0290
776,0.0294
777,0.0279
778,0.0278
779,0.0290
780,0.0280
781,0.0286
782,0.0271
783,0.0272
784,0.0278
785,0.0276
786,0.0273
787,0.0276
788,0.0287
789,0.0266
790,0.0270
791,0.0264
792,0.0272
793,0.0256
794,0.0270
795,0.0270
796,0.0261
797,0.0283
798,0.0259
799,0.0265
800,0.0281
801,0.0275
802,0.0262
803,0.0277
804,0.0281
805,0.0286
806,0.0282
807,0.0285
808,0.0292
809,0.0299
810,0.0311
811,0.0302
812,0.0299
813,0.0298
814,0.0302
815,0.0299
816,0.0302
817,0.0293
818,0.0310
819,0.0313
820,0.0329
821,0.0318
822,0.0311
823,0.0309
824,0.0304
825,0.0321
826,0.0325
827,0.0309
828,0.0317
829,0.0302
830,0.0306
831,0.0325
832,0.0313
833,0.0298
834,0.0296
835,0.0315
836,0.0305
837,0.0318
838,0.0303
839,0.0302
840,0.0291
841,0.0284
842,0.0314
843,0.0295
844,0.0297
845,0.0301
846,0.0299
847,0.0292
848,0.0296
849,0.0301
850,0.0300
851,0.0289
852,0.0304
853,0.0299
854,0.0305
855,0.0310
856,0.0323
857,0.0307
858,0.0306
859,0.0305
860,0.0315
861,0.0322
862,0.0319
863,0.0325
864,0.0312
865,0.0313
866,0.0337
867,0.0319
868,0.0327
869,0.0313
870,0.0306
871,0.0316
872,0.0330
873,0.0329
874,0.0325
875,0.0332
876,0.0334
877,0.0340
878,0.0349
879,0.0341
880,0.0336
881,0.0332
882,0.0357
883,0.0348
884,0.0350
885,0.0375
886,0.0375
887,0.0402
888,0.0387
889,0.0388
890,0.0408
891,0.0405
892,0.0433
893,0.0464
894,0.0442
895,0.0459
896,0.0466
897,0.0464
898,0.0464
899,0.0489
900,0.0489
901,0.0498
902,0.0476
903,0.0503
904,0.0540
905,0.0538
906,0.0553
907,0.0586
908,0.0571
909,0.0561
910,0.0571
911,0.0541
912,0.0556
913,0.0529
914,0.0522
915,0.0529
916,0.0545
917,0.0508
918,0.0476
919,0.0483
920,0.0484
921,0.0469
922,0.0453
923,0.0450
924,0.0454
925,0.0444
926,0.0426
927,0.0417
928,0.0395
929,0.0409
930,0.0413
931,0.0371
932,0.0369
933,0.0325
934,0.0353
935,0.0307
936,0.0275
937,0.0229
938,0.0215
939,0.0191
940,0.0163
941,0.0155
942,0.0137
943,0.0141
944,0.0148
945,0.0118
946,0.0138
947,0.0215
