382,NaN
383,0.9675
384,0.1593
385,1.0000
386,0.0000
387,0.1951
388,0.2406
389,0.1253
390,0.1701
391,0.1971
392,0.2857
393,0.1640
394,0.1409
395,0.0000
396,0.2706
397,0.0000
398,0.0277
399,0.0704
400,0.1668
401,0.2900
402,0.0000
403,0.1279
404,0.0502
405,0.0986
406,0.1150
407,0.0184
408,0.1004
409,0.0777
410,0.0651
411,0.0974
412,0.0938
413,0.0778
414,0.0612
415,0.0782
416,0.0332
417,0.1334
418,0.0562
419,0.0827
420,0.1151
421,0.0471
422,0.0942
423,0.0994
424,0.0659
425,0.1053
426,0.1530
427,0.1259
428,0.1221
429,0.1591
430,0.1832
431,0.1743
432,0.1783
433,0.1813
434,0.1850
435,0.2019
436,0.1910
437,0.2094
438,0.2143
439,0.2088
440,0.2237
441,0.2212
442,0.2242
443,0.2417
444,0.2310
445,0.2133
446,0.2116
447,0.2245
448,0.2126
449,0.2251
450,0.2206
451,0.1856
452,0.2090
453,0.2118
454,0.2332
455,0.2375
456,0.2251
457,0.2244
458,0.2214
459,0.2127
460,0.2301
461,0.2287
462,0.2159
463,0.2260
464,0.2135
465,0.1999
466,0.2124
467,0.2009
468,0.2382
469,0.2379
470,0.2114
471,0.2257
472,0.2143
473,0.2172
474,0.2171
475,0.2158
476,0.2236
477,0.2290
478,0.2199
479,0.2333
480,0.2283
481,0.2104
482,0.2240
483,0.2207
484,0.2144
485,0.2225
486,0.2137
487,0.2182
488,0.2080
489,0.1990
490,0.2090
491,0.1962
492,0.1856
493,0.1840
494,0.1808
495,0.1763
496,0.1581
497,0.1520
498,0.1564
499,0.1394
500,0.1364
501,0.1338
502,0.1223
503,0.1108
504,0.1096
505,0.0974
506,0.1038
507,0.0943
508,0.0907
509,0.0845
510,0.0811
511,0.0718
512,0.0703
513,0.0653
514,0.0603
515,0.0592
516,0.0565
517,0.0539
518,0.0506
519,0.0483
520,0.0501
521,0.0433
522,0.0454
523,0.0406
524,0.0430
525,0.0403
526,0.0408
527,0.0401
528,0.0369
529,0.0374
530,0.0360
531,0.0368
532,0.0379
533,0.0350
534,0.0381
535,0.0353
536,0.0358
537,0.0381
538,0.0392
539,0.0371
540,0.0388
541,0.0399
542,0.0398
543,0.0397
544,0.0398
545,0.0414
546,0.0451
547,0.0444
548,0.0440
549,0.0448
550,0.0461
551,0.0460
552,0.0474
553,0.0498
554,0.0506
555,0.0504
556,0.0512
557,0.0547
558,0.0558
559,0.0554
560,0.0580
561,0.0592
562,0.0598
563,0.0631
564,0.0631
565,0.0642
566,0.0650
567,0.0683
568,0.0689
569,0.0693
570,0.0719
571,0.0728
572,0.0747
573,0.0760
574,0.0772
575,0.0767
576,0.0793
577,0.0812
578,0.0810
579,0.0829
580,0.0845
581,0.0832
582,0.0850
583,0.0855
584,0.0853
585,0.0880
586,0.0873
587,0.0873
588,0.0888
589,0.0903
590,0.0917
591,0.0919
592,0.0917
593,0.0935
594,0.0936
595,0.0936
596,0.0945
597,0.0965
598,0.0956
599,0.0967
600,0.0971
601,0.0989
602,0.0994
603,0.0983
604,0.0997
605,0.1011
606,0.0995
607,0.1023
608,0.1020
609,0.1021
610,0.1029
611,0.1034
612,0.1049
613,0.1061
614,0.1052
615,0.1066
616,0.1063
617,0.1070
618,0.1081
619,0.1082
620,0.1077
621,0.1094
622,0.1092
623,0.1115
624,0.1105
625,0.1104
626,0.1098
627,0.1095
628,0.1113
629,0.1098
630,0.1107
631,0.1108
632,0.1081
633,0.1082
634,0.1060
635,0.1055
636,0.1076
637,0.1079
638,0.1053
639,0.1069
640,0.1066
641,0.1069
642,0.1060
643,0.1054
644,0.1052
645,0.1043
646,0.1027
647,0.1046
648,0.1020
649,0.1028
650,0.1004
651,0.0992
652,0.0986
653,0.0984
654,0.0972
655,0.0966
656,0.0956
657,0.0946
658,0.0939
659,0.0933
660,0.0928
661,0.0913
662,0.0916
663,0.0913
664,0.0904
665,0.0892
666,0.0885
667,0.0882
668,0.0871
669,0.0863
670,0.0871
671,0.0850
672,0.0841
673,0.0834
674,0.0822
675,0.0820
676,0.0811
677,0.0813
678,0.0788
679,0.0776
680,0.0782
681,0.0770
682,0.0758
683,0.0770
684,0.0743
685,0.0741
686,0.0745
687,0.0721
688,0.0717
689,0.0724
690,0.0713
691,0.0713
692,0.0692
693,0.0685
694,0.0681
695,0.0678
696,0.0684
697,0.0673
698,0.0660
699,0.0655
700,0.0646
701,0.0637
702,0.0630
703,0.0616
704,0.0603
705,0.0596
706,0.0590
707,0.0591
708,0.0588
709,0.0576
710,0.0556
711,0.0565
712,0.0538
713,0.0543
714,0.0528
715,0.0517
716,0.0512
717,0.0495
718,0.0498
719,0.0487
720,0.0470
721,0.0453
722,0.0443
723,0.0434
724,0.0420
725,0.0428
726,0.0418
727,0.0406
728,0.0400
729,0.0384
730,0.0383
731,0.0382
732,0.0372
733,0.0364
734,0.0357
735,0.0360
736,0.0348
737,0.0342
738,0.0344
739,0.0337
740,0.0326
741,0.0332
742,0.0319
743,0.0305
744,0.0310
745,0.0312
746,0.0305
747,0.0304
748,0.0299
749,0.0294
750,0.0281
751,0.0284
752,0.0279
753,0.0284
754,0.0273
755,0.0271
756,0.0264
757,0.0273
758,0.0256
759,0.0260
760,0.0269
761,0.0258
762,0.0250
763,0.0260
764,0.0250
765,0.0247
766,0.0243
767,0.0230
768,0.0239
769,0.0237
770,0.0230
771,0.0222
772,0.0222
773,0.0217
774,0.0234
775,0.0224
776,0.0221
777,0.0219
778,0.0207
779,0.0212
780,0.0210
781,0.0218
782,0.0203
783,0.0208
784,0.0206
785,0.0211
786,0.0210
787,0.0207
788,0.0220
789,0.0200
790,0.0208
791,0.0201
792,0.0209
793,0.0199
794,0.0216
795,0.0206
796,0.0211
797,0.0217
798,0.0202
799,0.0208
800,0.0216
801,0.0206
802,0.0214
803,0.0225
804,0.0231
805,0.0219
806,0.0219
807,0.0230
808,0.0240
809,0.0231
810,0.0255
811,0.0241
812,0.0237
813,0.0246
814,0.0232
815,0.0259
816,0.0259
817,0.0268
818,0.0255
819,0.0270
820,0.0280
821,0.0275
822,0.0273
823,0.0278
824,0.0270
825,0.0279
826,0.0282
827,0.0264
828,0.0270
829,0.0275
830,0.0283
831,0.0286
832,0.0277
833,0.0277
834,0.0273
835,0.0281
836,0.0292
837,0.0274
838,0.0281
839,0.0283
840,0.0273
841,0.0272
842,0.0304
843,0.0273
844,0.0285
845,0.0280
846,0.0285
847,0.0281
848,0.0300
849,0.0293
850,0.0296
851,0.0300
852,0.0295
853,0.0302
854,0.0312
855,0.0317
856,0.0304
857,0.0317
858,0.0324
859,0.0314
860,0.0333
861,0.0317
862,0.0329
863,0.0337
864,0.0317
865,0.0336
866,0.0336
867,0.0345
868,0.0326
869,0.0328
870,0.0342
871,0.0340
872,0.0353
873,0.0352
874,0.0330
875,0.0342
876,0.0360
877,0.0354
878,0.0345
879,0.0383
880,0.0390
881,0.0369
882,0.0371
883,0.0396
884,0.0410
885,0.0404
886,0.0409
887,0.0437
888,0.0432
889,0.0434
890,0.0480
891,0.0453
892,0.0467
893,0.0497
894,0.0506
895,0.0499
896,0.0512
897,0.0526
898,0.0516
899,0.0562
900,0.0550
901,0.0568
902,0.0576
903,0.0591
904,0.0588
905,0.0614
906,0.0610
907,0.0651
908,0.0631
909,0.0650
910,0.0656
911,0.0617
912,0.0633
913,0.0598
914,0.0636
915,0.0595
916,0.0581
917,0.0594
918,0.0533
919,0.0561
920,0.0583
921,0.0532
922,0.0525
923,0.0500
924,0.0510
925,0.0485
926,0.0489
927,0.0481
928,0.0467
929,0.0469
930,0.0446
931,0.0415
932,0.0432
933,0.0380
934,0.0391
935,0.0361
936,0.0319
937,0.0264
938,0.0263
939,0.0238
940,0.0174
941,0.0177
942,0.0182
943,0.0163
944,0.0161
945,0.0173
946,0.0158
947,0.0221
