382,NaN
383,1.0000
384,0.7943
385,0.0000
386,0.2341
387,0.2077
388,0.1635
389,0.0266
390,0.0696
391,0.0241
392,0.1038
393,0.0702
394,0.1918
395,0.0000
396,0.2251
397,0.0437
398,0.1507
399,0.0568
400,0.0423
401,0.2994
402,0.0084
403,0.1489
404,0.1105
405,0.1452
406,0.1544
407,0.0462
408,0.1578
409,0.1465
410,0.1911
411,0.0959
412,0.2240
413,0.1957
414,0.1270
415,0.2018
416,0.2014
417,0.2080
418,0.1820
419,0.2001
420,0.2121
421,0.1732
422,0.1805
423,0.2413
424,0.2553
425,0.2016
426,0.2234
427,0.2102
428,0.2249
429,0.1955
430,0.2678
431,0.2205
432,0.2312
433,0.2309
434,0.2572
435,0.2809
436,0.2797
437,0.2562
438,0.2372
439,0.2144
440,0.2817
441,0.2467
442,0.2526
443,0.2683
444,0.2505
445,0.2466
446,0.2351
447,0.2302
448,0.2364
449,0.2173
450,0.2458
451,0.2050
452,0.2032
453,0.2188
454,0.2186
455,0.2213
456,0.2111
457,0.1769
458,0.2067
459,0.1887
460,0.1892
461,0.1825
462,0.1862
463,0.1827
464,0.1724
465,0.1563
466,0.1808
467,0.1634
468,0.1795
469,0.1567
470,0.1448
471,0.1359
472,0.1533
473,0.1443
474,0.1486
475,0.1468
476,0.1366
477,0.1468
478,0.1379
479,0.1414
480,0.1394
481,0.1291
482,0.1271
483,0.1287
484,0.1233
485,0.1168
486,0.1082
487,0.1195
488,0.1031
489,0.0948
490,0.1046
491,0.0881
492,0.0896
493,0.0875
494,0.0907
495,0.0792
496,0.0769
497,0.0692
498,0.0755
499,0.0650
500,0.0642
501,0.0570
502,0.0587
503,0.0549
504,0.0566
505,0.0456
506,0.0464
507,0.0482
508,0.0449
509,0.0439
510,0.0475
511,0.0382
512,0.0401
513,0.0402
514,0.0369
515,0.0364
516,0.0371
517,0.0390
518,0.0381
519,0.0379
520,0.0396
521,0.0341
522,0.0374
523,0.0376
524,0.0393
525,0.0400
526,0.0402
527,0.0432
528,0.0413
529,0.0442
530,0.0450
531,0.0454
532,0.0478
533,0.0453
534,0.0505
535,0.0505
536,0.0527
537,0.0549
538,0.0570
539,0.0565
540,0.0590
541,0.0610
542,0.0610
543,0.0630
544,0.0658
545,0.0653
546,0.0692
547,0.0709
548,0.0699
549,0.0716
550,0.0736
551,0.0746
552,0.0780
553,0.0797
554,0.0814
555,0.0811
556,0.0822
557,0.0860
558,0.0868
559,0.0875
560,0.0909
561,0.0929
562,0.0943
563,0.0940
564,0.0961
565,0.0953
566,0.0977
567,0.1007
568,0.1009
569,0.1036
570,0.1043
571,0.1052
572,0.1093
573,0.1084
574,0.1104
575,0.1097
576,0.1121
577,0.1118
578,0.1095
579,0.1122
580,0.1140
581,0.1156
582,0.1126
583,0.1124
584,0.1146
585,0.1144
586,0.1156
587,0.1155
588,0.1143
589,0.1148
590,0.1166
591,0.1136
592,0.1150
593,0.1164
594,0.1159
595,0.1152
596,0.1148
597,0.1160
598,0.1167
599,0.1151
600,0.1153
601,0.1171
602,0.1174
603,0.1155
604,0.1164
605,0.1162
606,0.1156
607,0.1155
608,0.1161
609,0.1147
610,0.1154
611,0.1161
612,0.1168
613,0.1148
614,0.1140
615,0.1158
616,0.1136
617,0.1144
618,0.1134
619,0.1143
620,0.1129
621,0.1141
622,0.1145
623,0.1142
624,0.1144
625,0.1119
626,0.1127
627,0.1115
628,0.1100
629,0.1112
630,0.1092
631,0.1096
632,0.1087
633,0.1076
634,0.1061
635,0.1036
636,0.1037
637,0.1029
638,0.1005
639,0.1020
640,0.1011
641,0.1005
642,0.1001
643,0.0988
644,0.0967
645,0.0969
646,0.0944
647,0.0938
648,0.0945
649,0.0905
650,0.0908
651,0.0887
652,0.0879
653,0.0873
654,0.0859
655,0.0844
656,0.0839
657,0.0817
658,0.0817
659,0.0791
660,0.0790
661,0.0775
662,0.0767
663,0.0754
664,0.0742
665,0.0741
666,0.0724
667,0.0726
668,0.0722
669,0.0701
670,0.0698
671,0.0686
672,0.0669
673,0.0657
674,0.0643
675,0.0645
676,0.0639
677,0.0616
678,0.0616
679,0.0606
680,0.0599
681,0.0587
682,0.0581
683,0.0576
684,0.0570
685,0.0555
686,0.0545
687,0.0537
688,0.0536
689,0.0538
690,0.0522
691,0.0519
692,0.0504
693,0.0496
694,0.0487
695,0.0489
696,0.0474
697,0.0485
698,0.0460
699,0.0453
700,0.0447
701,0.0444
702,0.0440
703,0.0420
704,0.0410
705,0.0408
706,0.0410
707,0.0388
708,0.0389
709,0.0384
710,0.0369
711,0.0375
712,0.0364
713,0.0360
714,0.0343
715,0.0340
716,0.0335
717,0.0335
718,0.0321
719,0.0312
720,0.0305
721,0.0292
722,0.0277
723,0.0284
724,0.0266
725,0.0268
726,0.0264
727,0.0265
728,0.0258
729,0.0242
730,0.0243
731,0.0238
732,0.0235
733,0.0231
734,0.0241
735,0.0226
736,0.0224
737,0.0225
738,0.0222
739,0.0215
740,0.0206
741,0.0214
742,0.0199
743,0.0198
744,0.0207
745,0.0198
746,0.0196
747,0.0191
748,0.0207
749,0.0189
750,0.0190
751,0.0197
752,0.0187
753,0.0187
754,0.0186
755,0.0191
756,0.0197
757,0.0192
758,0.0185
759,0.0194
760,0.0189
761,0.0190
762,0.0191
763,0.0185
764,0.0192
765,0.0203
766,0.0197
767,0.0184
768,0.0185
769,0.0190
770,0.0188
771,0.0193
772,0.0184
773,0.0188
774,0.0196
775,0.0198
776,0.0199
777,0.0190
778,0.0193
779,0.0203
780,0.0197
781,0.0201
782,0.0201
783,0.0208
784,0.0199
785,0.0209
786,0.0206
787,0.0211
788,0.0227
789,0.0215
790,0.0217
791,0.0206
792,0.0221
793,0.0210
794,0.0216
795,0.0218
796,0.0234
797,0.0250
798,0.0235
799,0.0235
800,0.0240
801,0.0243
802,0.0252
803,0.0268
804,0.0263
805,0.0263
806,0.0273
807,0.0277
808,0.0286
809,0.0291
810,0.0309
811,0.0308
812,0.0302
813,0.0314
814,0.0320
815,0.0324
816,0.0332
817,0.0335
818,0.0335
819,0.0353
820,0.0359
821,0.0366
822,0.0372
823,0.0375
824,0.0369
825,0.0370
826,0.0375
827,0.0369
828,0.0373
829,0.0371
830,0.0379
831,0.0389
832,0.0371
833,0.0369
834,0.0379
835,0.0378
836,0.0395
837,0.0407
838,0.0383
839,0.0390
840,0.0370
841,0.0379
842,0.0394
843,0.0384
844,0.0372
845,0.0394
846,0.0389
847,0.0395
848,0.0395
849,0.0407
850,0.0409
851,0.0419
852,0.0414
853,0.0417
854,0.0430
855,0.0421
856,0.0416
857,0.0415
858,0.0427
859,0.0414
860,0.0427
861,0.0441
862,0.0451
863,0.0442
864,0.0438
865,0.0442
866,0.0428
867,0.0466
868,0.0452
869,0.0439
870,0.0445
871,0.0454
872,0.0465
873,0.0444
874,0.0458
875,0.0439
876,0.0471
877,0.0472
878,0.0453
879,0.0498
880,0.0479
881,0.0461
882,0.0508
883,0.0518
884,0.0517
885,0.0513
886,0.0548
887,0.0529
888,0.0548
889,0.0556
890,0.0590
891,0.0587
892,0.0600
893,0.0629
894,0.0638
895,0.0650
896,0.0654
897,0.0663
898,0.0663
899,0.0663
900,0.0705
901,0.0714
902,0.0713
903,0.0706
904,0.0735
905,0.0748
906,0.0764
907,0.0775
908,0.0786
909,0.0798
910,0.0790
911,0.0749
912,0.0746
913,0.0731
914,0.0717
915,0.0756
916,0.0712
917,0.0682
918,0.0694
919,0.0672
920,0.0682
921,0.0661
922,0.0641
923,0.0603
924,0.0627
925,0.0590
926,0.0582
927,0.0560
928,0.0519
929,0.0535
930,0.0521
931,0.0508
932,0.0500
933,0.0458
934,0.0433
935,0.0426
936,0.0371
937,0.0308
938,0.0316
939,0.0246
940,0.0211
941,0.0213
942,0.0178
943,0.0196
944,0.0189
945,0.0191
946,0.0164
947,0.0208
