382,NaN
383,1.0000
384,1.0000
385,0.0000
386,0.0000
387,0.2399
388,0.1026
389,0.3052
390,0.0000
391,0.3992
392,0.3151
393,0.2782
394,0.1898
395,0.0580
396,0.3167
397,0.0492
398,0.1513
399,0.0880
400,0.2027
401,0.3200
402,0.0574
403,0.1257
404,0.0904
405,0.1367
406,0.1579
407,0.1266
408,0.1408
409,0.0471
410,0.1848
411,0.2348
412,0.1710
413,0.1836
414,0.1009
415,0.1263
416,0.1353
417,0.1487
418,0.1023
419,0.0710
420,0.1009
421,0.1574
422,0.0735
423,0.1259
424,0.1063
425,0.0800
426,0.1476
427,0.0799
428,0.0924
429,0.0893
430,0.1383
431,0.1210
432,0.1004
433,0.1110
434,0.1352
435,0.1373
436,0.1254
437,0.1767
438,0.1435
439,0.1266
440,0.1758
441,0.1635
442,0.1527
443,0.1613
444,0.1710
445,0.1541
446,0.1451
447,0.1677
448,0.1505
449,0.1474
450,0.1638
451,0.1400
452,0.1350
453,0.1676
454,0.1782
455,0.1782
456,0.1533
457,0.1765
458,0.1680
459,0.1673
460,0.1622
461,0.1706
462,0.1802
463,0.1879
464,0.1658
465,0.1719
466,0.1834
467,0.1762
468,0.1983
469,0.2036
470,0.1833
471,0.1891
472,0.1933
473,0.1955
474,0.2082
475,0.2157
476,0.2198
477,0.2276
478,0.2223
479,0.2392
480,0.2420
481,0.2305
482,0.2382
483,0.2423
484,0.2496
485,0.2589
486,0.2478
487,0.2664
488,0.2641
489,0.2654
490,0.2588
491,0.2594
492,0.2603
493,0.2664
494,0.2643
495,0.2668
496,0.2554
497,0.2403
498,0.2514
499,0.2295
500,0.2391
501,0.2282
502,0.2281
503,0.2086
504,0.2039
505,0.2004
506,0.1935
507,0.1952
508,0.1860
509,0.1794
510,0.1732
511,0.1619
512,0.1536
513,0.1552
514,0.1512
515,0.1466
516,0.1407
517,0.1343
518,0.1271
519,0.1239
520,0.1245
521,0.1148
522,0.1148
523,0.1101
524,0.1086
525,0.1057
526,0.1053
527,0.1026
528,0.1013
529,0.0983
530,0.0954
531,0.0925
532,0.0916
533,0.0884
534,0.0893
535,0.0867
536,0.0869
537,0.0851
538,0.0831
539,0.0829
540,0.0814
541,0.0795
542,0.0792
543,0.0771
544,0.0769
545,0.0766
546,0.0765
547,0.0747
548,0.0708
549,0.0705
550,0.0715
551,0.0691
552,0.0685
553,0.0669
554,0.0683
555,0.0647
556,0.0655
557,0.0646
558,0.0646
559,0.0626
560,0.0620
561,0.0601
562,0.0612
563,0.0610
564,0.0591
565,0.0580
566,0.0566
567,0.0561
568,0.0575
569,0.0563
570,0.0562
571,0.0558
572,0.0545
573,0.0531
574,0.0528
575,0.0524
576,0.0529
577,0.0522
578,0.0497
579,0.0508
580,0.0512
581,0.0479
582,0.0473
583,0.0475
584,0.0474
585,0.0457
586,0.0464
587,0.0454
588,0.0452
589,0.0446
590,0.0445
591,0.0434
592,0.0433
593,0.0426
594,0.0429
595,0.0433
596,0.0433
597,0.0423
598,0.0420
599,0.0416
600,0.0420
601,0.0416
602,0.0427
603,0.0416
604,0.0420
605,0.0413
606,0.0409
607,0.0415
608,0.0416
609,0.0409
610,0.0419
611,0.0415
612,0.0410
613,0.0421
614,0.0413
615,0.0424
616,0.0417
617,0.0410
618,0.0424
619,0.0420
620,0.0421
621,0.0431
622,0.0442
623,0.0449
624,0.0440
625,0.0440
626,0.0449
627,0.0448
628,0.0456
629,0.0455
630,0.0463
631,0.0465
632,0.0456
633,0.0457
634,0.0463
635,0.0453
636,0.0473
637,0.0469
638,0.0467
639,0.0472
640,0.0488
641,0.0486
642,0.0490
643,0.0490
644,0.0494
645,0.0498
646,0.0499
647,0.0490
648,0.0506
649,0.0488
650,0.0505
651,0.0503
652,0.0507
653,0.0513
654,0.0507
655,0.0522
656,0.0512
657,0.0514
658,0.0523
659,0.0517
660,0.0533
661,0.0522
662,0.0530
663,0.0536
664,0.0547
665,0.0542
666,0.0546
667,0.0556
668,0.0557
669,0.0556
670,0.0563
671,0.0573
672,0.0561
673,0.0581
674,0.0571
675,0.0595
676,0.0593
677,0.0587
678,0.0588
679,0.0595
680,0.0594
681,0.0604
682,0.0601
683,0.0618
684,0.0606
685,0.0618
686,0.0626
687,0.0621
688,0.0635
689,0.0652
690,0.0647
691,0.0660
692,0.0662
693,0.0664
694,0.0678
695,0.0685
696,0.0681
697,0.0690
698,0.0690
699,0.0697
700,0.0705
701,0.0717
702,0.0708
703,0.0712
704,0.0702
705,0.0719
706,0.0717
707,0.0720
708,0.0735
709,0.0730
710,0.0740
711,0.0748
712,0.0733
713,0.0743
714,0.0736
715,0.0744
716,0.0737
717,0.0742
718,0.0746
719,0.0735
720,0.0732
721,0.0717
722,0.0705
723,0.0721
724,0.0710
725,0.0719
726,0.0712
727,0.0726
728,0.0715
729,0.0711
730,0.0713
731,0.0724
732,0.0724
733,0.0730
734,0.0729
735,0.0740
736,0.0726
737,0.0738
738,0.0743
739,0.0736
740,0.0724
741,0.0751
742,0.0729
743,0.0744
744,0.0747
745,0.0751
746,0.0740
747,0.0750
748,0.0743
749,0.0751
750,0.0757
751,0.0774
752,0.0760
753,0.0759
754,0.0776
755,0.0789
756,0.0778
757,0.0795
758,0.0776
759,0.0792
760,0.0801
761,0.0794
762,0.0760
763,0.0787
764,0.0793
765,0.0791
766,0.0787
767,0.0770
768,0.0771
769,0.0776
770,0.0764
771,0.0771
772,0.0779
773,0.0778
774,0.0772
775,0.0784
776,0.0772
777,0.0770
778,0.0783
779,0.0787
780,0.0776
781,0.0784
782,0.0787
783,0.0780
784,0.0767
785,0.0761
786,0.0780
787,0.0778
788,0.0775
789,0.0780
790,0.0771
791,0.0746
792,0.0754
793,0.0758
794,0.0755
795,0.0754
796,0.0758
797,0.0760
798,0.0768
799,0.0772
800,0.0801
801,0.0785
802,0.0781
803,0.0803
804,0.0811
805,0.0805
806,0.0807
807,0.0820
808,0.0807
809,0.0835
810,0.0854
811,0.0827
812,0.0830
813,0.0838
814,0.0819
815,0.0830
816,0.0847
817,0.0852
818,0.0868
819,0.0854
820,0.0875
821,0.0847
822,0.0855
823,0.0841
824,0.0840
825,0.0858
826,0.0835
827,0.0815
828,0.0798
829,0.0830
830,0.0798
831,0.0810
832,0.0785
833,0.0769
834,0.0785
835,0.0779
836,0.0752
837,0.0744
838,0.0734
839,0.0729
840,0.0696
841,0.0705
842,0.0712
843,0.0715
844,0.0689
845,0.0693
846,0.0682
847,0.0690
848,0.0694
849,0.0675
850,0.0659
851,0.0664
852,0.0669
853,0.0658
854,0.0660
855,0.0641
856,0.0645
857,0.0656
858,0.0644
859,0.0635
860,0.0642
861,0.0643
862,0.0632
863,0.0640
864,0.0643
865,0.0616
866,0.0617
867,0.0616
868,0.0617
869,0.0587
870,0.0600
871,0.0582
872,0.0585
873,0.0579
874,0.0585
875,0.0571
876,0.0588
877,0.0554
878,0.0556
879,0.0591
880,0.0558
881,0.0575
882,0.0578
883,0.0587
884,0.0583
885,0.0591
886,0.0607
887,0.0593
888,0.0611
889,0.0636
890,0.0624
891,0.0623
892,0.0646
893,0.0652
894,0.0663
895,0.0656
896,0.0667
897,0.0660
898,0.0655
899,0.0663
900,0.0683
901,0.0695
902,0.0700
903,0.0682
904,0.0703
905,0.0715
906,0.0716
907,0.0707
908,0.0725
909,0.0702
910,0.0743
911,0.0671
912,0.0679
913,0.0614
914,0.0666
915,0.0634
916,0.0640
917,0.0584
918,0.0568
919,0.0567
920,0.0574
921,0.0517
922,0.0510
923,0.0501
924,0.0477
925,0.0478
926,0.0469
927,0.0447
928,0.0434
929,0.0439
930,0.0421
931,0.0376
932,0.0372
933,0.0341
934,0.0359
935,0.0308
936,0.0258
937,0.0233
938,0.0213
939,0.0188
940,0.0127
941,0.0140
942,0.0156
943,0.0137
944,0.0131
945,0.0143
946,0.0112
947,0.0229
