382,NaN
383,1.0000
384,0.0000
385,1.0000
386,0.0000
387,0.2991
388,0.3774
389,0.0499
390,0.0000
391,0.0900
392,0.2894
393,0.1255
394,0.0176
395,0.0000
396,0.2808
397,0.0000
398,0.0311
399,0.1719
400,0.0707
401,0.2962
402,0.0000
403,0.0823
404,0.0819
405,0.0697
406,0.0860
407,0.1389
408,0.1316
409,0.1378
410,0.1363
411,0.2247
412,0.1660
413,0.1898
414,0.1273
415,0.1192
416,0.0688
417,0.1620
418,0.0888
419,0.1001
420,0.1185
421,0.0978
422,0.0514
423,0.1029
424,0.0670
425,0.0627
426,0.1447
427,0.1140
428,0.1065
429,0.1145
430,0.1539
431,0.1173
432,0.1384
433,0.1157
434,0.1369
435,0.1267
436,0.1583
437,0.1533
438,0.1636
439,0.0984
440,0.1666
441,0.1597
442,0.1491
443,0.1927
444,0.1641
445,0.1537
446,0.1521
447,0.1528
448,0.1447
449,0.1590
450,0.1614
451,0.1287
452,0.1525
453,0.1735
454,0.1722
455,0.1523
456,0.1653
457,0.1677
458,0.1752
459,0.1723
460,0.1662
461,0.1776
462,0.1713
463,0.1970
464,0.1759
465,0.1786
466,0.1825
467,0.1603
468,0.1976
469,0.1943
470,0.1828
471,0.1986
472,0.2037
473,0.2016
474,0.2064
475,0.2212
476,0.2189
477,0.2281
478,0.2303
479,0.2482
480,0.2396
481,0.2442
482,0.2486
483,0.2597
484,0.2532
485,0.2629
486,0.2634
487,0.2832
488,0.2687
489,0.2704
490,0.2714
491,0.2689
492,0.2622
493,0.2656
494,0.2731
495,0.2693
496,0.2617
497,0.2480
498,0.2513
499,0.2327
500,0.2366
501,0.2232
502,0.2286
503,0.2092
504,0.2075
505,0.2024
506,0.2022
507,0.1920
508,0.1905
509,0.1793
510,0.1718
511,0.1647
512,0.1585
513,0.1581
514,0.1539
515,0.1440
516,0.1402
517,0.1344
518,0.1290
519,0.1266
520,0.1248
521,0.1146
522,0.1125
523,0.1098
524,0.1063
525,0.1043
526,0.1052
527,0.1021
528,0.1016
529,0.0960
530,0.0944
531,0.0934
532,0.0910
533,0.0911
534,0.0890
535,0.0848
536,0.0851
537,0.0847
538,0.0815
539,0.0803
540,0.0799
541,0.0797
542,0.0766
543,0.0777
544,0.0753
545,0.0725
546,0.0733
547,0.0713
548,0.0711
549,0.0704
550,0.0691
551,0.0680
552,0.0676
553,0.0674
554,0.0642
555,0.0641
556,0.0635
557,0.0621
558,0.0605
559,0.0613
560,0.0588
561,0.0589
562,0.0582
563,0.0566
564,0.0568
565,0.0556
566,0.0545
567,0.0548
568,0.0547
569,0.0550
570,0.0529
571,0.0533
572,0.0533
573,0.0512
574,0.0506
575,0.0496
576,0.0483
577,0.0497
578,0.0481
579,0.0489
580,0.0475
581,0.0459
582,0.0444
583,0.0449
584,0.0448
585,0.0440
586,0.0437
587,0.0424
588,0.0428
589,0.0416
590,0.0425
591,0.0411
592,0.0412
593,0.0410
594,0.0419
595,0.0408
596,0.0399
597,0.0392
598,0.0388
599,0.0401
600,0.0388
601,0.0386
602,0.0386
603,0.0388
604,0.0393
605,0.0387
606,0.0390
607,0.0393
608,0.0394
609,0.0392
610,0.0398
611,0.0387
612,0.0400
613,0.0396
614,0.0398
615,0.0402
616,0.0398
617,0.0389
618,0.0411
619,0.0414
620,0.0415
621,0.0410
622,0.0419
623,0.0429
624,0.0427
625,0.0422
626,0.0428
627,0.0430
628,0.0434
629,0.0437
630,0.0440
631,0.0449
632,0.0437
633,0.0437
634,0.0448
635,0.0446
636,0.0458
637,0.0462
638,0.0450
639,0.0461
640,0.0464
641,0.0476
642,0.0470
643,0.0470
644,0.0490
645,0.0482
646,0.0487
647,0.0484
648,0.0491
649,0.0494
650,0.0496
651,0.0508
652,0.0508
653,0.0511
654,0.0512
655,0.0511
656,0.0517
657,0.0516
658,0.0510
659,0.0521
660,0.0527
661,0.0510
662,0.0535
663,0.0533
664,0.0534
665,0.0543
666,0.0542
667,0.0570
668,0.0553
669,0.0556
670,0.0575
671,0.0573
672,0.0573
673,0.0571
674,0.0581
675,0.0591
676,0.0587
677,0.0597
678,0.0590
679,0.0595
680,0.0616
681,0.0608
682,0.0611
683,0.0631
684,0.0632
685,0.0633
686,0.0652
687,0.0641
688,0.0647
689,0.0665
690,0.0659
691,0.0675
692,0.0673
693,0.0674
694,0.0681
695,0.0686
696,0.0692
697,0.0698
698,0.0702
699,0.0712
700,0.0717
701,0.0716
702,0.0717
703,0.0721
704,0.0712
705,0.0725
706,0.0728
707,0.0726
708,0.0731
709,0.0743
710,0.0724
711,0.0749
712,0.0741
713,0.0751
714,0.0758
715,0.0759
716,0.0746
717,0.0744
718,0.0747
719,0.0752
720,0.0735
721,0.0735
722,0.0721
723,0.0733
724,0.0732
725,0.0720
726,0.0725
727,0.0727
728,0.0728
729,0.0724
730,0.0732
731,0.0740
732,0.0742
733,0.0726
734,0.0732
735,0.0735
736,0.0744
737,0.0748
738,0.0750
739,0.0739
740,0.0745
741,0.0752
742,0.0749
743,0.0746
744,0.0748
745,0.0748
746,0.0748
747,0.0756
748,0.0763
749,0.0758
750,0.0754
751,0.0768
752,0.0778
753,0.0782
754,0.0777
755,0.0785
756,0.0789
757,0.0796
758,0.0807
759,0.0796
760,0.0794
761,0.0785
762,0.0783
763,0.0783
764,0.0797
765,0.0788
766,0.0793
767,0.0786
768,0.0779
769,0.0769
770,0.0766
771,0.0792
772,0.0785
773,0.0780
774,0.0778
775,0.0782
776,0.0791
777,0.0775
778,0.0776
779,0.0785
780,0.0765
781,0.0776
782,0.0785
783,0.0782
784,0.0779
785,0.0772
786,0.0779
787,0.0782
788,0.0784
789,0.0758
790,0.0772
791,0.0753
792,0.0766
793,0.0769
794,0.0757
795,0.0750
796,0.0752
797,0.0757
798,0.0763
799,0.0754
800,0.0774
801,0.0787
802,0.0770
803,0.0787
804,0.0785
805,0.0820
806,0.0797
807,0.0807
808,0.0817
809,0.0814
810,0.0836
811,0.0838
812,0.0847
813,0.0838
814,0.0822
815,0.0833
816,0.0824
817,0.0837
818,0.0829
819,0.0852
820,0.0848
821,0.0866
822,0.0861
823,0.0825
824,0.0842
825,0.0839
826,0.0830
827,0.0827
828,0.0810
829,0.0816
830,0.0796
831,0.0799
832,0.0786
833,0.0778
834,0.0752
835,0.0770
836,0.0752
837,0.0746
838,0.0737
839,0.0735
840,0.0707
841,0.0693
842,0.0708
843,0.0680
844,0.0668
845,0.0668
846,0.0671
847,0.0651
848,0.0658
849,0.0656
850,0.0653
851,0.0675
852,0.0650
853,0.0634
854,0.0648
855,0.0640
856,0.0631
857,0.0652
858,0.0631
859,0.0624
860,0.0634
861,0.0634
862,0.0614
863,0.0638
864,0.0614
865,0.0606
866,0.0616
867,0.0602
868,0.0589
869,0.0576
870,0.0580
871,0.0590
872,0.0585
873,0.0571
874,0.0567
875,0.0576
876,0.0562
877,0.0556
878,0.0553
879,0.0572
880,0.0553
881,0.0543
882,0.0540
883,0.0576
884,0.0562
885,0.0582
886,0.0571
887,0.0597
888,0.0598
889,0.0602
890,0.0614
891,0.0615
892,0.0621
893,0.0650
894,0.0619
895,0.0628
896,0.0642
897,0.0648
898,0.0648
899,0.0639
900,0.0656
901,0.0693
902,0.0635
903,0.0650
904,0.0661
905,0.0665
906,0.0673
907,0.0723
908,0.0684
909,0.0697
910,0.0670
911,0.0635
912,0.0654
913,0.0615
914,0.0627
915,0.0607
916,0.0600
917,0.0554
918,0.0566
919,0.0558
920,0.0546
921,0.0479
922,0.0467
923,0.0470
924,0.0491
925,0.0465
926,0.0430
927,0.0404
928,0.0402
929,0.0399
930,0.0385
931,0.0354
932,0.0377
933,0.0318
934,0.0327
935,0.0294
936,0.0263
937,0.0207
938,0.0212
939,0.0162
940,0.0149
941,0.0124
942,0.0138
943,0.0129
944,0.0116
945,0.0119
946,0.0115
947,0.0191
