382,NaN
383,1.0000
384,1.0000
385,1.0000
386,0.0000
387,0.2264
388,0.1992
389,0.2253
390,0.0408
391,0.2681
392,0.3478
393,0.1808
394,0.0874
395,0.0000
396,0.1788
397,0.0496
398,0.0516
399,0.0000
400,0.1348
401,0.3781
402,0.0000
403,0.1613
404,0.1323
405,0.1035
406,0.0999
407,0.1052
408,0.0734
409,0.1845
410,0.1655
411,0.1916
412,0.1884
413,0.2054
414,0.1245
415,0.1151
416,0.0726
417,0.1121
418,0.1419
419,0.1493
420,0.1330
421,0.0984
422,0.1076
423,0.1269
424,0.1173
425,0.1363
426,0.1562
427,0.0980
428,0.1157
429,0.1603
430,0.1618
431,0.1470
432,0.1811
433,0.1480
434,0.1330
435,0.1615
436,0.1671
437,0.1771
438,0.1804
439,0.1654
440,0.1731
441,0.1950
442,0.1799
443,0.2217
444,0.1707
445,0.1742
446,0.1625
447,0.1888
448,0.1684
449,0.1785
450,0.1872
451,0.1695
452,0.1768
453,0.1864
454,0.1935
455,0.1953
456,0.1943
457,0.1901
458,0.1819
459,0.1895
460,0.1800
461,0.2027
462,0.2034
463,0.1969
464,0.1971
465,0.1890
466,0.2067
467,0.1889
468,0.2080
469,0.2041
470,0.1957
471,0.2109
472,0.2119
473,0.2060
474,0.2157
475,0.2220
476,0.2317
477,0.2310
478,0.2278
479,0.2459
480,0.2397
481,0.2337
482,0.2380
483,0.2593
484,0.2465
485,0.2489
486,0.2520
487,0.2545
488,0.2605
489,0.2549
490,0.2438
491,0.2451
492,0.2378
493,0.2514
494,0.2477
495,0.2431
496,0.2394
497,0.2256
498,0.2295
499,0.2122
500,0.2156
501,0.2011
502,0.2023
503,0.1813
504,0.1788
505,0.1696
506,0.1718
507,0.1672
508,0.1617
509,0.1498
510,0.1471
511,0.1379
512,0.1331
513,0.1307
514,0.1269
515,0.1200
516,0.1158
517,0.1090
518,0.1013
519,0.1007
520,0.1006
521,0.0926
522,0.0900
523,0.0864
524,0.0846
525,0.0837
526,0.0825
527,0.0833
528,0.0793
529,0.0761
530,0.0751
531,0.0716
532,0.0704
533,0.0693
534,0.0702
535,0.0671
536,0.0682
537,0.0656
538,0.0649
539,0.0630
540,0.0630
541,0.0612
542,0.0586
543,0.0587
544,0.0580
545,0.0564
546,0.0582
547,0.0574
548,0.0557
549,0.0533
550,0.0540
551,0.0527
552,0.0515
553,0.0515
554,0.0509
555,0.0489
556,0.0507
557,0.0493
558,0.0487
559,0.0487
560,0.0482
561,0.0470
562,0.0480
563,0.0474
564,0.0467
565,0.0460
566,0.0448
567,0.0456
568,0.0453
569,0.0462
570,0.0461
571,0.0466
572,0.0447
573,0.0457
574,0.0436
575,0.0439
576,0.0428
577,0.0434
578,0.0431
579,0.0439
580,0.0441
581,0.0424
582,0.0437
583,0.0427
584,0.0435
585,0.0433
586,0.0432
587,0.0421
588,0.0419
589,0.0429
590,0.0432
591,0.0414
592,0.0421
593,0.0438
594,0.0430
595,0.0424
596,0.0429
597,0.0439
598,0.0435
599,0.0441
600,0.0437
601,0.0446
602,0.0448
603,0.0440
604,0.0444
605,0.0441
606,0.0449
607,0.0469
608,0.0467
609,0.0473
610,0.0468
611,0.0474
612,0.0489
613,0.0492
614,0.0491
615,0.0497
616,0.0487
617,0.0491
618,0.0499
619,0.0509
620,0.0518
621,0.0514
622,0.0536
623,0.0544
624,0.0544
625,0.0541
626,0.0543
627,0.0554
628,0.0564
629,0.0569
630,0.0567
631,0.0578
632,0.0576
633,0.0581
634,0.0576
635,0.0584
636,0.0585
637,0.0590
638,0.0601
639,0.0606
640,0.0621
641,0.0616
642,0.0627
643,0.0620
644,0.0632
645,0.0630
646,0.0644
647,0.0638
648,0.0650
649,0.0654
650,0.0642
651,0.0651
652,0.0654
653,0.0653
654,0.0656
655,0.0659
656,0.0659
657,0.0661
658,0.0674
659,0.0676
660,0.0664
661,0.0679
662,0.0681
663,0.0688
664,0.0689
665,0.0695
666,0.0693
667,0.0704
668,0.0709
669,0.0718
670,0.0719
671,0.0729
672,0.0713
673,0.0717
674,0.0714
675,0.0726
676,0.0741
677,0.0744
678,0.0733
679,0.0735
680,0.0747
681,0.0756
682,0.0756
683,0.0760
684,0.0747
685,0.0763
686,0.0773
687,0.0763
688,0.0780
689,0.0791
690,0.0797
691,0.0801
692,0.0797
693,0.0796
694,0.0805
695,0.0808
696,0.0804
697,0.0826
698,0.0829
699,0.0833
700,0.0833
701,0.0839
702,0.0836
703,0.0826
704,0.0815
705,0.0841
706,0.0842
707,0.0834
708,0.0845
709,0.0846
710,0.0843
711,0.0850
712,0.0854
713,0.0853
714,0.0848
715,0.0866
716,0.0849
717,0.0835
718,0.0845
719,0.0842
720,0.0825
721,0.0817
722,0.0818
723,0.0816
724,0.0796
725,0.0800
726,0.0795
727,0.0803
728,0.0782
729,0.0791
730,0.0790
731,0.0796
732,0.0800
733,0.0801
734,0.0798
735,0.0804
736,0.0803
737,0.0801
738,0.0797
739,0.0808
740,0.0798
741,0.0796
742,0.0791
743,0.0791
744,0.0800
745,0.0794
746,0.0783
747,0.0791
748,0.0809
749,0.0800
750,0.0792
751,0.0805
752,0.0795
753,0.0803
754,0.0822
755,0.0820
756,0.0802
757,0.0825
758,0.0809
759,0.0829
760,0.0822
761,0.0804
762,0.0810
763,0.0804
764,0.0795
765,0.0801
766,0.0800
767,0.0781
768,0.0797
769,0.0784
770,0.0784
771,0.0778
772,0.0765
773,0.0784
774,0.0781
775,0.0771
776,0.0782
777,0.0771
778,0.0770
779,0.0772
780,0.0758
781,0.0764
782,0.0774
783,0.0757
784,0.0762
785,0.0766
786,0.0764
787,0.0749
788,0.0764
789,0.0742
790,0.0745
791,0.0736
792,0.0728
793,0.0723
794,0.0722
795,0.0714
796,0.0720
797,0.0750
798,0.0733
799,0.0732
800,0.0750
801,0.0743
802,0.0732
803,0.0760
804,0.0768
805,0.0770
806,0.0758
807,0.0768
808,0.0773
809,0.0788
810,0.0788
811,0.0773
812,0.0792
813,0.0780
814,0.0765
815,0.0785
816,0.0798
817,0.0786
818,0.0778
819,0.0784
820,0.0800
821,0.0774
822,0.0781
823,0.0779
824,0.0770
825,0.0770
826,0.0772
827,0.0741
828,0.0746
829,0.0721
830,0.0729
831,0.0728
832,0.0716
833,0.0692
834,0.0700
835,0.0676
836,0.0679
837,0.0656
838,0.0678
839,0.0647
840,0.0631
841,0.0634
842,0.0640
843,0.0603
844,0.0616
845,0.0596
846,0.0608
847,0.0591
848,0.0590
849,0.0586
850,0.0571
851,0.0580
852,0.0572
853,0.0564
854,0.0588
855,0.0557
856,0.0561
857,0.0565
858,0.0552
859,0.0545
860,0.0544
861,0.0543
862,0.0559
863,0.0553
864,0.0529
865,0.0522
866,0.0531
867,0.0530
868,0.0502
869,0.0497
870,0.0505
871,0.0507
872,0.0498
873,0.0470
874,0.0494
875,0.0491
876,0.0474
877,0.0471
878,0.0457
879,0.0473
880,0.0490
881,0.0453
882,0.0496
883,0.0484
884,0.0474
885,0.0475
886,0.0494
887,0.0492
888,0.0505
889,0.0509
890,0.0511
891,0.0504
892,0.0511
893,0.0509
894,0.0538
895,0.0524
896,0.0541
897,0.0546
898,0.0532
899,0.0556
900,0.0589
901,0.0572
902,0.0543
903,0.0528
904,0.0570
905,0.0582
906,0.0529
907,0.0581
908,0.0576
909,0.0555
910,0.0552
911,0.0518
912,0.0548
913,0.0522
914,0.0510
915,0.0492
916,0.0485
917,0.0482
918,0.0452
919,0.0444
920,0.0443
921,0.0403
922,0.0400
923,0.0377
924,0.0393
925,0.0357
926,0.0349
927,0.0331
928,0.0333
929,0.0346
930,0.0329
931,0.0291
932,0.0285
933,0.0254
934,0.0249
935,0.0228
936,0.0192
937,0.0167
938,0.0165
939,0.0122
940,0.0113
941,0.0106
942,0.0103
943,0.0094
944,0.0081
945,0.0104
946,0.0078
947,0.0157
