382,NaN
383,0.7886
384,0.0000
385,0.6662
386,0.0000
387,0.2391
388,0.3454
389,0.0839
390,0.0398
391,0.1863
392,0.2933
393,0.2236
394,0.1199
395,0.0718
396,0.0158
397,0.1447
398,0.1094
399,0.1050
400,0.0772
401,0.2096
402,0.0780
403,0.1617
404,0.0246
405,0.0160
406,0.0843
407,0.0863
408,0.0874
409,0.0892
410,0.1228
411,0.1165
412,0.1722
413,0.0566
414,0.1228
415,0.0957
416,0.1212
417,0.1158
418,0.0926
419,0.0832
420,0.1100
421,0.1374
422,0.0995
423,0.0819
424,0.1238
425,0.1270
426,0.1586
427,0.0900
428,0.1406
429,0.1205
430,0.1729
431,0.1479
432,0.1438
433,0.1341
434,0.1903
435,0.1583
436,0.1605
437,0.1636
438,0.1811
439,0.1665
440,0.1940
441,0.2048
442,0.2000
443,0.2013
444,0.1700
445,0.1909
446,0.1709
447,0.1838
448,0.1725
449,0.1875
450,0.2119
451,0.1785
452,0.1727
453,0.1934
454,0.2083
455,0.2039
456,0.1974
457,0.1752
458,0.1849
459,0.1961
460,0.2014
461,0.2094
462,0.2100
463,0.1999
464,0.2112
465,0.2021
466,0.2132
467,0.1892
468,0.2232
469,0.2161
470,0.2018
471,0.2106
472,0.2376
473,0.2138
474,0.2235
475,0.2223
476,0.2320
477,0.2385
478,0.2428
479,0.2597
480,0.2452
481,0.2402
482,0.2562
483,0.2610
484,0.2601
485,0.2590
486,0.2595
487,0.2716
488,0.2546
489,0.2653
490,0.2705
491,0.2562
492,0.2545
493,0.2551
494,0.2558
495,0.2467
496,0.2456
497,0.2291
498,0.2310
499,0.2189
500,0.2200
501,0.2036
502,0.2072
503,0.1893
504,0.1796
505,0.1764
506,0.1718
507,0.1695
508,0.1601
509,0.1563
510,0.1494
511,0.1383
512,0.1325
513,0.1260
514,0.1272
515,0.1173
516,0.1142
517,0.1128
518,0.1063
519,0.1021
520,0.1014
521,0.0912
522,0.0895
523,0.0854
524,0.0861
525,0.0840
526,0.0815
527,0.0810
528,0.0752
529,0.0761
530,0.0737
531,0.0718
532,0.0699
533,0.0687
534,0.0690
535,0.0658
536,0.0637
537,0.0629
538,0.0621
539,0.0600
540,0.0596
541,0.0592
542,0.0563
543,0.0556
544,0.0540
545,0.0546
546,0.0548
547,0.0534
548,0.0517
549,0.0516
550,0.0492
551,0.0492
552,0.0490
553,0.0473
554,0.0481
555,0.0466
556,0.0476
557,0.0468
558,0.0455
559,0.0449
560,0.0443
561,0.0436
562,0.0450
563,0.0447
564,0.0437
565,0.0438
566,0.0420
567,0.0421
568,0.0424
569,0.0435
570,0.0438
571,0.0423
572,0.0428
573,0.0411
574,0.0412
575,0.0410
576,0.0408
577,0.0401
578,0.0395
579,0.0424
580,0.0398
581,0.0410
582,0.0408
583,0.0395
584,0.0401
585,0.0393
586,0.0398
587,0.0394
588,0.0397
589,0.0394
590,0.0412
591,0.0385
592,0.0401
593,0.0402
594,0.0411
595,0.0396
596,0.0408
597,0.0396
598,0.0411
599,0.0411
600,0.0412
601,0.0413
602,0.0415
603,0.0412
604,0.0422
605,0.0423
606,0.0436
607,0.0429
608,0.0442
609,0.0440
610,0.0457
611,0.0443
612,0.0455
613,0.0459
614,0.0469
615,0.0474
616,0.0479
617,0.0475
618,0.0483
619,0.0495
620,0.0482
621,0.0505
622,0.0511
623,0.0525
624,0.0527
625,0.0524
626,0.0518
627,0.0539
628,0.0546
629,0.0554
630,0.0554
631,0.0565
632,0.0553
633,0.0562
634,0.0562
635,0.0558
636,0.0574
637,0.0571
638,0.0579
639,0.0587
640,0.0588
641,0.0615
642,0.0602
643,0.0612
644,0.0609
645,0.0618
646,0.0628
647,0.0631
648,0.0632
649,0.0632
650,0.0633
651,0.0638
652,0.0643
653,0.0655
654,0.0654
655,0.0649
656,0.0651
657,0.0660
658,0.0663
659,0.0656
660,0.0663
661,0.0664
662,0.0673
663,0.0677
664,0.0679
665,0.0691
666,0.0684
667,0.0704
668,0.0702
669,0.0706
670,0.0711
671,0.0720
672,0.0708
673,0.0710
674,0.0721
675,0.0724
676,0.0728
677,0.0723
678,0.0740
679,0.0735
680,0.0742
681,0.0746
682,0.0753
683,0.0761
684,0.0762
685,0.0774
686,0.0775
687,0.0761
688,0.0779
689,0.0799
690,0.0784
691,0.0799
692,0.0801
693,0.0790
694,0.0804
695,0.0809
696,0.0817
697,0.0825
698,0.0817
699,0.0827
700,0.0823
701,0.0847
702,0.0854
703,0.0844
704,0.0824
705,0.0835
706,0.0837
707,0.0834
708,0.0841
709,0.0847
710,0.0843
711,0.0859
712,0.0843
713,0.0864
714,0.0846
715,0.0857
716,0.0855
717,0.0845
718,0.0838
719,0.0839
720,0.0832
721,0.0823
722,0.0822
723,0.0822
724,0.0801
725,0.0799
726,0.0809
727,0.0809
728,0.0802
729,0.0798
730,0.0802
731,0.0799
732,0.0796
733,0.0790
734,0.0809
735,0.0819
736,0.0807
737,0.0807
738,0.0815
739,0.0798
740,0.0801
741,0.0810
742,0.0793
743,0.0795
744,0.0801
745,0.0796
746,0.0798
747,0.0813
748,0.0803
749,0.0803
750,0.0808
751,0.0818
752,0.0820
753,0.0820
754,0.0831
755,0.0828
756,0.0824
757,0.0833
758,0.0819
759,0.0833
760,0.0821
761,0.0814
762,0.0819
763,0.0819
764,0.0834
765,0.0816
766,0.0813
767,0.0816
768,0.0801
769,0.0807
770,0.0798
771,0.0801
772,0.0788
773,0.0782
774,0.0789
775,0.0803
776,0.0779
777,0.0785
778,0.0789
779,0.0784
780,0.0771
781,0.0774
782,0.0781
783,0.0772
784,0.0771
785,0.0766
786,0.0770
787,0.0772
788,0.0768
789,0.0768
790,0.0760
791,0.0733
792,0.0734
793,0.0754
794,0.0738
795,0.0747
796,0.0738
797,0.0754
798,0.0740
799,0.0755
800,0.0756
801,0.0741
802,0.0752
803,0.0766
804,0.0783
805,0.0781
806,0.0763
807,0.0787
808,0.0793
809,0.0791
810,0.0800
811,0.0786
812,0.0779
813,0.0797
814,0.0782
815,0.0783
816,0.0780
817,0.0807
818,0.0788
819,0.0802
820,0.0798
821,0.0810
822,0.0785
823,0.0808
824,0.0774
825,0.0787
826,0.0766
827,0.0760
828,0.0752
829,0.0734
830,0.0732
831,0.0740
832,0.0725
833,0.0702
834,0.0713
835,0.0705
836,0.0702
837,0.0675
838,0.0663
839,0.0653
840,0.0641
841,0.0648
842,0.0645
843,0.0612
844,0.0637
845,0.0620
846,0.0617
847,0.0605
848,0.0605
849,0.0609
850,0.0602
851,0.0591
852,0.0601
853,0.0573
854,0.0598
855,0.0575
856,0.0577
857,0.0575
858,0.0565
859,0.0552
860,0.0546
861,0.0552
862,0.0559
863,0.0564
864,0.0544
865,0.0530
866,0.0547
867,0.0547
868,0.0521
869,0.0516
870,0.0512
871,0.0509
872,0.0502
873,0.0506
874,0.0498
875,0.0471
876,0.0475
877,0.0476
878,0.0460
879,0.0499
880,0.0486
881,0.0482
882,0.0482
883,0.0493
884,0.0497
885,0.0494
886,0.0487
887,0.0514
888,0.0508
889,0.0490
890,0.0531
891,0.0532
892,0.0538
893,0.0543
894,0.0553
895,0.0568
896,0.0571
897,0.0562
898,0.0551
899,0.0553
900,0.0565
901,0.0590
902,0.0543
903,0.0560
904,0.0580
905,0.0584
906,0.0570
907,0.0596
908,0.0583
909,0.0572
910,0.0550
911,0.0519
912,0.0541
913,0.0520
914,0.0534
915,0.0486
916,0.0515
917,0.0487
918,0.0456
919,0.0444
920,0.0468
921,0.0404
922,0.0417
923,0.0385
924,0.0396
925,0.0368
926,0.0355
927,0.0348
928,0.0327
929,0.0316
930,0.0326
931,0.0291
932,0.0297
933,0.0251
934,0.0259
935,0.0257
936,0.0188
937,0.0183
938,0.0161
939,0.0126
940,0.0128
941,0.0107
942,0.0089
943,0.0083
944,0.0088
945,0.0097
946,0.0089
947,0.0123
