382,NaN
383,1.0000
384,0.8341
385,0.8678
386,0.0000
387,0.1390
388,0.0830
389,0.3274
390,0.0000
391,0.0000
392,0.1990
393,0.0000
394,0.0000
395,0.0000
396,0.2920
397,0.0461
398,0.0923
399,0.0000
400,0.0360
401,0.2873
402,0.0000
403,0.0000
404,0.1178
405,0.0846
406,0.0241
407,0.0332
408,0.0922
409,0.0791
410,0.0887
411,0.1295
412,0.1000
413,0.1075
414,0.0484
415,0.0508
416,0.0000
417,0.1081
418,0.0127
419,0.0757
420,0.0376
421,0.0252
422,0.0543
423,0.0206
424,0.0327
425,0.0000
426,0.1360
427,0.0297
428,0.0079
429,0.0603
430,0.0639
431,0.0216
432,0.0604
433,0.0517
434,0.0402
435,0.0841
436,0.0762
437,0.0678
438,0.0605
439,0.0439
440,0.0689
441,0.0734
442,0.0726
443,0.1003
444,0.0714
445,0.0679
446,0.0565
447,0.0752
448,0.0409
449,0.0552
450,0.0454
451,0.0553
452,0.0426
453,0.0790
454,0.0733
455,0.0857
456,0.0639
457,0.0680
458,0.0451
459,0.0429
460,0.0608
461,0.0679
462,0.0500
463,0.0634
464,0.0513
465,0.0464
466,0.0574
467,0.0564
468,0.0611
469,0.0747
470,0.0563
471,0.0627
472,0.0729
473,0.0644
474,0.0582
475,0.0648
476,0.0665
477,0.0796
478,0.0692
479,0.0821
480,0.0756
481,0.0739
482,0.0752
483,0.0735
484,0.0735
485,0.0847
486,0.0763
487,0.0876
488,0.0802
489,0.0760
490,0.0788
491,0.0816
492,0.0759
493,0.0825
494,0.0797
495,0.0804
496,0.0788
497,0.0757
498,0.0797
499,0.0755
500,0.0763
501,0.0731
502,0.0750
503,0.0721
504,0.0696
505,0.0624
506,0.0686
507,0.0662
508,0.0662
509,0.0641
510,0.0621
511,0.0555
512,0.0566
513,0.0550
514,0.0530
515,0.0547
516,0.0494
517,0.0511
518,0.0475
519,0.0454
520,0.0491
521,0.0459
522,0.0449
523,0.0431
524,0.0440
525,0.0428
526,0.0442
527,0.0423
528,0.0414
529,0.0424
530,0.0402
531,0.0415
532,0.0405
533,0.0381
534,0.0416
535,0.0394
536,0.0420
537,0.0419
538,0.0404
539,0.0424
540,0.0397
541,0.0401
542,0.0411
543,0.0403
544,0.0407
545,0.0405
546,0.0406
547,0.0415
548,0.0402
549,0.0387
550,0.0389
551,0.0383
552,0.0390
553,0.0399
554,0.0400
555,0.0383
556,0.0397
557,0.0391
558,0.0380
559,0.0383
560,0.0396
561,0.0399
562,0.0403
563,0.0397
564,0.0397
565,0.0407
566,0.0393
567,0.0405
568,0.0396
569,0.0395
570,0.0404
571,0.0414
572,0.0396
573,0.0392
574,0.0405
575,0.0377
576,0.0402
577,0.0408
578,0.0390
579,0.0389
580,0.0403
581,0.0380
582,0.0380
583,0.0385
584,0.0385
585,0.0387
586,0.0386
587,0.0385
588,0.0381
589,0.0381
590,0.0374
591,0.0366
592,0.0371
593,0.0368
594,0.0376
595,0.0358
596,0.0375
597,0.0365
598,0.0358
599,0.0370
600,0.0362
601,0.0366
602,0.0368
603,0.0351
604,0.0358
605,0.0349
606,0.0354
607,0.0357
608,0.0369
609,0.0369
610,0.0351
611,0.0370
612,0.0366
613,0.0359
614,0.0358
615,0.0365
616,0.0363
617,0.0354
618,0.0360
619,0.0364
620,0.0359
621,0.0359
622,0.0362
623,0.0377
624,0.0367
625,0.0353
626,0.0361
627,0.0372
628,0.0374
629,0.0374
630,0.0362
631,0.0371
632,0.0355
633,0.0362
634,0.0354
635,0.0355
636,0.0352
637,0.0364
638,0.0357
639,0.0350
640,0.0360
641,0.0363
642,0.0359
643,0.0353
644,0.0357
645,0.0353
646,0.0348
647,0.0348
648,0.0355
649,0.0343
650,0.0337
651,0.0342
652,0.0337
653,0.0358
654,0.0335
655,0.0339
656,0.0331
657,0.0335
658,0.0335
659,0.0336
660,0.0334
661,0.0320
662,0.0336
663,0.0334
664,0.0322
665,0.0328
666,0.0327
667,0.0327
668,0.0325
669,0.0319
670,0.0333
671,0.0330
672,0.0333
673,0.0332
674,0.0312
675,0.0330
676,0.0326
677,0.0324
678,0.0331
679,0.0308
680,0.0319
681,0.0322
682,0.0321
683,0.0323
684,0.0314
685,0.0317
686,0.0325
687,0.0317
688,0.0324
689,0.0328
690,0.0328
691,0.0326
692,0.0318
693,0.0326
694,0.0326
695,0.0317
696,0.0321
697,0.0321
698,0.0318
699,0.0334
700,0.0317
701,0.0333
702,0.0320
703,0.0322
704,0.0316
705,0.0318
706,0.0313
707,0.0319
708,0.0334
709,0.0324
710,0.0311
711,0.0326
712,0.0310
713,0.0311
714,0.0310
715,0.0319
716,0.0315
717,0.0307
718,0.0303
719,0.0304
720,0.0300
721,0.0284
722,0.0292
723,0.0298
724,0.0287
725,0.0287
726,0.0282
727,0.0282
728,0.0275
729,0.0285
730,0.0280
731,0.0279
732,0.0279
733,0.0266
734,0.0278
735,0.0278
736,0.0275
737,0.0275
738,0.0275
739,0.0272
740,0.0268
741,0.0277
742,0.0268
743,0.0269
744,0.0267
745,0.0271
746,0.0270
747,0.0266
748,0.0285
749,0.0266
750,0.0269
751,0.0275
752,0.0273
753,0.0275
754,0.0277
755,0.0274
756,0.0279
757,0.0280
758,0.0267
759,0.0274
760,0.0284
761,0.0278
762,0.0272
763,0.0273
764,0.0273
765,0.0276
766,0.0273
767,0.0270
768,0.0271
769,0.0273
770,0.0265
771,0.0277
772,0.0262
773,0.0258
774,0.0271
775,0.0264
776,0.0270
777,0.0262
778,0.0269
779,0.0277
780,0.0254
781,0.0276
782,0.0264
783,0.0264
784,0.0261
785,0.0255
786,0.0263
787,0.0259
788,0.0275
789,0.0259
790,0.0266
791,0.0255
792,0.0267
793,0.0260
794,0.0256
795,0.0251
796,0.0267
797,0.0266
798,0.0262
799,0.0262
800,0.0258
801,0.0266
802,0.0264
803,0.0273
804,0.0249
805,0.0267
806,0.0262
807,0.0276
808,0.0278
809,0.0291
810,0.0295
811,0.0285
812,0.0284
813,0.0289
814,0.0272
815,0.0288
816,0.0287
817,0.0293
818,0.0290
819,0.0296
820,0.0306
821,0.0295
822,0.0290
823,0.0300
824,0.0284
825,0.0296
826,0.0292
827,0.0282
828,0.0275
829,0.0273
830,0.0271
831,0.0283
832,0.0272
833,0.0258
834,0.0267
835,0.0272
836,0.0276
837,0.0272
838,0.0249
839,0.0254
840,0.0239
841,0.0244
842,0.0247
843,0.0239
844,0.0244
845,0.0228
846,0.0243
847,0.0231
848,0.0238
849,0.0240
850,0.0240
851,0.0241
852,0.0224
853,0.0239
854,0.0249
855,0.0232
856,0.0234
857,0.0249
858,0.0241
859,0.0218
860,0.0229
861,0.0237
862,0.0223
863,0.0243
864,0.0225
865,0.0223
866,0.0225
867,0.0221
868,0.0223
869,0.0213
870,0.0219
871,0.0212
872,0.0212
873,0.0204
874,0.0202
875,0.0208
876,0.0219
877,0.0214
878,0.0207
879,0.0231
880,0.0227
881,0.0211
882,0.0215
883,0.0226
884,0.0216
885,0.0231
886,0.0223
887,0.0238
888,0.0246
889,0.0249
890,0.0257
891,0.0264
892,0.0260
893,0.0249
894,0.0274
895,0.0263
896,0.0265
897,0.0284
898,0.0270
899,0.0278
900,0.0280
901,0.0280
902,0.0267
903,0.0275
904,0.0305
905,0.0280
906,0.0289
907,0.0304
908,0.0305
909,0.0298
910,0.0289
911,0.0259
912,0.0293
913,0.0264
914,0.0244
915,0.0251
916,0.0289
917,0.0244
918,0.0255
919,0.0237
920,0.0261
921,0.0230
922,0.0223
923,0.0203
924,0.0197
925,0.0218
926,0.0178
927,0.0194
928,0.0169
929,0.0182
930,0.0154
931,0.0172
932,0.0171
933,0.0108
934,0.0140
935,0.0144
936,0.0099
937,0.0094
938,0.0095
939,0.0084
940,0.0066
941,0.0057
942,0.0051
943,0.0044
944,0.0058
945,0.0058
946,0.0046
947,0.0105
