382,NaN
383,0.7426
384,0.8628
385,1.0000
386,0.0000
387,0.2565
388,0.2261
389,0.0997
390,0.1996
391,0.1439
392,0.2886
393,0.3312
394,0.0434
395,0.0193
396,0.0584
397,0.0000
398,0.0000
399,0.0432
400,0.0625
401,0.1640
402,0.0000
403,0.1513
404,0.1051
405,0.0539
406,0.0910
407,0.0878
408,0.0215
409,0.0812
410,0.0532
411,0.1043
412,0.1109
413,0.1499
414,0.0459
415,0.0992
416,0.0448
417,0.0119
418,0.0122
419,0.0796
420,0.0683
421,0.0553
422,0.0055
423,0.0278
424,0.0586
425,0.0322
426,0.0341
427,0.0063
428,0.0599
429,0.0343
430,0.0794
431,0.0949
432,0.0641
433,0.0592
434,0.0452
435,0.0570
436,0.0478
437,0.0977
438,0.0365
439,0.0560
440,0.1028
441,0.0658
442,0.0820
443,0.0891
444,0.0528
445,0.0651
446,0.0430
447,0.0704
448,0.0525
449,0.0798
450,0.0671
451,0.0664
452,0.0475
453,0.0694
454,0.0655
455,0.0593
456,0.0671
457,0.0695
458,0.0497
459,0.0312
460,0.0628
461,0.0729
462,0.0542
463,0.0715
464,0.0644
465,0.0563
466,0.0561
467,0.0520
468,0.0635
469,0.0688
470,0.0541
471,0.0464
472,0.0668
473,0.0545
474,0.0616
475,0.0700
476,0.0663
477,0.0714
478,0.0702
479,0.0853
480,0.0759
481,0.0640
482,0.0836
483,0.0745
484,0.0660
485,0.0845
486,0.0726
487,0.0869
488,0.0798
489,0.0713
490,0.0820
491,0.0814
492,0.0707
493,0.0846
494,0.0801
495,0.0808
496,0.0824
497,0.0732
498,0.0831
499,0.0728
500,0.0750
501,0.0736
502,0.0734
503,0.0708
504,0.0664
505,0.0650
506,0.0669
507,0.0689
508,0.0637
509,0.0597
510,0.0588
511,0.0571
512,0.0560
513,0.0571
514,0.0539
515,0.0531
516,0.0506
517,0.0523
518,0.0470
519,0.0486
520,0.0472
521,0.0420
522,0.0463
523,0.0440
524,0.0457
525,0.0423
526,0.0439
527,0.0433
528,0.0414
529,0.0405
530,0.0402
531,0.0407
532,0.0411
533,0.0373
534,0.0425
535,0.0397
536,0.0418
537,0.0404
538,0.0402
539,0.0397
540,0.0413
541,0.0403
542,0.0400
543,0.0395
544,0.0416
545,0.0406
546,0.0420
547,0.0407
548,0.0407
549,0.0392
550,0.0393
551,0.0401
552,0.0396
553,0.0395
554,0.0392
555,0.0393
556,0.0388
557,0.0383
558,0.0396
559,0.0388
560,0.0387
561,0.0409
562,0.0405
563,0.0416
564,0.0397
565,0.0405
566,0.0382
567,0.0397
568,0.0396
569,0.0417
570,0.0409
571,0.0407
572,0.0403
573,0.0410
574,0.0392
575,0.0402
576,0.0399
577,0.0421
578,0.0402
579,0.0408
580,0.0405
581,0.0391
582,0.0385
583,0.0382
584,0.0391
585,0.0387
586,0.0386
587,0.0382
588,0.0369
589,0.0370
590,0.0380
591,0.0366
592,0.0367
593,0.0381
594,0.0367
595,0.0363
596,0.0371
597,0.0371
598,0.0360
599,0.0370
600,0.0368
601,0.0366
602,0.0366
603,0.0354
604,0.0368
605,0.0362
606,0.0355
607,0.0357
608,0.0369
609,0.0364
610,0.0360
611,0.0360
612,0.0363
613,0.0365
614,0.0352
615,0.0361
616,0.0366
617,0.0363
618,0.0351
619,0.0364
620,0.0364
621,0.0359
622,0.0379
623,0.0366
624,0.0365
625,0.0370
626,0.0368
627,0.0366
628,0.0367
629,0.0373
630,0.0363
631,0.0370
632,0.0354
633,0.0358
634,0.0364
635,0.0350
636,0.0360
637,0.0363
638,0.0354
639,0.0358
640,0.0366
641,0.0357
642,0.0344
643,0.0356
644,0.0361
645,0.0348
646,0.0355
647,0.0354
648,0.0361
649,0.0348
650,0.0340
651,0.0348
652,0.0346
653,0.0343
654,0.0334
655,0.0353
656,0.0335
657,0.0337
658,0.0336
659,0.0332
660,0.0336
661,0.0325
662,0.0334
663,0.0336
664,0.0328
665,0.0326
666,0.0328
667,0.0337
668,0.0332
669,0.0329
670,0.0321
671,0.0328
672,0.0325
673,0.0325
674,0.0323
675,0.0328
676,0.0319
677,0.0316
678,0.0326
679,0.0312
680,0.0320
681,0.0325
682,0.0323
683,0.0327
684,0.0329
685,0.0330
686,0.0321
687,0.0310
688,0.0321
689,0.0335
690,0.0319
691,0.0319
692,0.0319
693,0.0326
694,0.0330
695,0.0326
696,0.0323
697,0.0330
698,0.0322
699,0.0318
700,0.0332
701,0.0330
702,0.0322
703,0.0325
704,0.0309
705,0.0314
706,0.0316
707,0.0318
708,0.0315
709,0.0320
710,0.0321
711,0.0319
712,0.0312
713,0.0323
714,0.0310
715,0.0316
716,0.0310
717,0.0312
718,0.0308
719,0.0315
720,0.0315
721,0.0289
722,0.0294
723,0.0300
724,0.0285
725,0.0284
726,0.0281
727,0.0276
728,0.0278
729,0.0284
730,0.0278
731,0.0278
732,0.0291
733,0.0274
734,0.0280
735,0.0277
736,0.0274
737,0.0281
738,0.0273
739,0.0271
740,0.0271
741,0.0273
742,0.0276
743,0.0261
744,0.0270
745,0.0268
746,0.0277
747,0.0280
748,0.0276
749,0.0264
750,0.0266
751,0.0278
752,0.0268
753,0.0277
754,0.0277
755,0.0274
756,0.0283
757,0.0280
758,0.0274
759,0.0277
760,0.0275
761,0.0272
762,0.0274
763,0.0277
764,0.0285
765,0.0285
766,0.0270
767,0.0276
768,0.0269
769,0.0276
770,0.0268
771,0.0276
772,0.0266
773,0.0257
774,0.0279
775,0.0263
776,0.0267
777,0.0267
778,0.0268
779,0.0268
780,0.0265
781,0.0275
782,0.0265
783,0.0259
784,0.0257
785,0.0255
786,0.0270
787,0.0262
788,0.0269
789,0.0273
790,0.0268
791,0.0254
792,0.0261
793,0.0248
794,0.0254
795,0.0260
796,0.0260
797,0.0276
798,0.0264
799,0.0265
800,0.0280
801,0.0255
802,0.0265
803,0.0273
804,0.0271
805,0.0275
806,0.0278
807,0.0284
808,0.0291
809,0.0291
810,0.0300
811,0.0287
812,0.0279
813,0.0289
814,0.0284
815,0.0282
816,0.0289
817,0.0286
818,0.0294
819,0.0306
820,0.0299
821,0.0299
822,0.0297
823,0.0277
824,0.0275
825,0.0292
826,0.0295
827,0.0281
828,0.0270
829,0.0268
830,0.0279
831,0.0286
832,0.0276
833,0.0265
834,0.0263
835,0.0263
836,0.0273
837,0.0260
838,0.0250
839,0.0251
840,0.0244
841,0.0242
842,0.0265
843,0.0240
844,0.0246
845,0.0248
846,0.0245
847,0.0237
848,0.0239
849,0.0234
850,0.0242
851,0.0241
852,0.0237
853,0.0243
854,0.0239
855,0.0235
856,0.0236
857,0.0248
858,0.0239
859,0.0218
860,0.0230
861,0.0234
862,0.0228
863,0.0231
864,0.0223
865,0.0221
866,0.0238
867,0.0238
868,0.0217
869,0.0229
870,0.0224
871,0.0224
872,0.0231
873,0.0218
874,0.0209
875,0.0197
876,0.0218
877,0.0222
878,0.0217
879,0.0217
880,0.0216
881,0.0190
882,0.0227
883,0.0222
884,0.0223
885,0.0245
886,0.0234
887,0.0240
888,0.0232
889,0.0240
890,0.0257
891,0.0234
892,0.0259
893,0.0267
894,0.0261
895,0.0259
896,0.0265
897,0.0256
898,0.0270
899,0.0257
900,0.0270
901,0.0283
902,0.0263
903,0.0264
904,0.0296
905,0.0298
906,0.0288
907,0.0317
908,0.0312
909,0.0292
910,0.0282
911,0.0270
912,0.0300
913,0.0264
914,0.0276
915,0.0259
916,0.0247
917,0.0248
918,0.0246
919,0.0249
920,0.0245
921,0.0200
922,0.0200
923,0.0202
924,0.0226
925,0.0210
926,0.0181
927,0.0202
928,0.0184
929,0.0183
930,0.0172
931,0.0169
932,0.0156
933,0.0136
934,0.0147
935,0.0122
936,0.0103
937,0.0070
938,0.0085
939,0.0066
940,0.0049
941,0.0060
942,0.0044
943,0.0038
944,0.0041
945,0.0057
946,0.0036
947,0.0098
