382,NaN
383,0.9471
384,0.8046
385,1.0000
386,0.0000
387,0.2002
388,0.1725
389,0.0523
390,0.0000
391,0.1872
392,0.1442
393,0.1477
394,0.1624
395,0.0000
396,0.2248
397,0.0000
398,0.0621
399,0.0317
400,0.1350
401,0.3040
402,0.0000
403,0.1299
404,0.0013
405,0.0017
406,0.0455
407,0.0000
408,0.1525
409,0.0303
410,0.0864
411,0.1338
412,0.1315
413,0.1200
414,0.0424
415,0.0731
416,0.0727
417,0.0779
418,0.0506
419,0.0510
420,0.0707
421,0.0242
422,0.0166
423,0.0295
424,0.0336
425,0.0401
426,0.0830
427,0.0394
428,0.0118
429,0.0507
430,0.0886
431,0.0821
432,0.0419
433,0.0430
434,0.0394
435,0.0649
436,0.0446
437,0.0757
438,0.0661
439,0.0652
440,0.0935
441,0.0708
442,0.0545
443,0.0930
444,0.0580
445,0.0685
446,0.0656
447,0.0499
448,0.0507
449,0.0331
450,0.0621
451,0.0534
452,0.0486
453,0.0638
454,0.0757
455,0.0491
456,0.0800
457,0.0493
458,0.0668
459,0.0595
460,0.0467
461,0.0716
462,0.0579
463,0.0700
464,0.0558
465,0.0416
466,0.0579
467,0.0532
468,0.0764
469,0.0794
470,0.0588
471,0.0532
472,0.0602
473,0.0699
474,0.0671
475,0.0817
476,0.0653
477,0.0756
478,0.0695
479,0.0809
480,0.0777
481,0.0774
482,0.0734
483,0.0740
484,0.0688
485,0.0849
486,0.0733
487,0.0874
488,0.0768
489,0.0751
490,0.0809
491,0.0774
492,0.0770
493,0.0858
494,0.0782
495,0.0818
496,0.0774
497,0.0809
498,0.0802
499,0.0781
500,0.0755
501,0.0764
502,0.0753
503,0.0687
504,0.0718
505,0.0611
506,0.0628
507,0.0627
508,0.0664
509,0.0615
510,0.0620
511,0.0534
512,0.0580
513,0.0556
514,0.0550
515,0.0542
516,0.0515
517,0.0520
518,0.0471
519,0.0467
520,0.0498
521,0.0434
522,0.0456
523,0.0448
524,0.0444
525,0.0418
526,0.0435
527,0.0434
528,0.0438
529,0.0424
530,0.0433
531,0.0393
532,0.0417
533,0.0415
534,0.0418
535,0.0386
536,0.0423
537,0.0414
538,0.0404
539,0.0407
540,0.0411
541,0.0416
542,0.0412
543,0.0412
544,0.0393
545,0.0407
546,0.0412
547,0.0405
548,0.0402
549,0.0400
550,0.0397
551,0.0374
552,0.0402
553,0.0391
554,0.0391
555,0.0384
556,0.0394
557,0.0389
558,0.0408
559,0.0405
560,0.0389
561,0.0397
562,0.0406
563,0.0394
564,0.0395
565,0.0392
566,0.0392
567,0.0404
568,0.0391
569,0.0411
570,0.0408
571,0.0402
572,0.0404
573,0.0392
574,0.0397
575,0.0409
576,0.0397
577,0.0400
578,0.0380
579,0.0402
580,0.0394
581,0.0393
582,0.0390
583,0.0390
584,0.0382
585,0.0389
586,0.0377
587,0.0376
588,0.0377
589,0.0378
590,0.0381
591,0.0376
592,0.0384
593,0.0376
594,0.0374
595,0.0356
596,0.0354
597,0.0363
598,0.0371
599,0.0355
600,0.0362
601,0.0367
602,0.0365
603,0.0362
604,0.0372
605,0.0364
606,0.0361
607,0.0360
608,0.0362
609,0.0363
610,0.0357
611,0.0364
612,0.0367
613,0.0362
614,0.0366
615,0.0361
616,0.0367
617,0.0349
618,0.0366
619,0.0372
620,0.0365
621,0.0364
622,0.0366
623,0.0371
624,0.0378
625,0.0368
626,0.0361
627,0.0369
628,0.0368
629,0.0368
630,0.0364
631,0.0374
632,0.0359
633,0.0360
634,0.0351
635,0.0368
636,0.0354
637,0.0358
638,0.0354
639,0.0350
640,0.0363
641,0.0368
642,0.0342
643,0.0350
644,0.0351
645,0.0361
646,0.0354
647,0.0350
648,0.0342
649,0.0352
650,0.0345
651,0.0339
652,0.0344
653,0.0347
654,0.0336
655,0.0340
656,0.0330
657,0.0333
658,0.0338
659,0.0334
660,0.0328
661,0.0329
662,0.0327
663,0.0332
664,0.0330
665,0.0325
666,0.0320
667,0.0329
668,0.0324
669,0.0326
670,0.0331
671,0.0335
672,0.0321
673,0.0323
674,0.0327
675,0.0333
676,0.0326
677,0.0315
678,0.0327
679,0.0324
680,0.0317
681,0.0318
682,0.0319
683,0.0325
684,0.0327
685,0.0322
686,0.0325
687,0.0313
688,0.0326
689,0.0329
690,0.0320
691,0.0327
692,0.0325
693,0.0325
694,0.0330
695,0.0323
696,0.0325
697,0.0325
698,0.0326
699,0.0332
700,0.0327
701,0.0331
702,0.0322
703,0.0324
704,0.0314
705,0.0316
706,0.0311
707,0.0327
708,0.0326
709,0.0320
710,0.0319
711,0.0324
712,0.0319
713,0.0315
714,0.0314
715,0.0320
716,0.0308
717,0.0311
718,0.0306
719,0.0307
720,0.0302
721,0.0291
722,0.0285
723,0.0288
724,0.0282
725,0.0281
726,0.0287
727,0.0281
728,0.0276
729,0.0278
730,0.0284
731,0.0273
732,0.0278
733,0.0274
734,0.0287
735,0.0275
736,0.0279
737,0.0281
738,0.0285
739,0.0274
740,0.0267
741,0.0265
742,0.0267
743,0.0262
744,0.0282
745,0.0278
746,0.0266
747,0.0277
748,0.0277
749,0.0270
750,0.0271
751,0.0281
752,0.0273
753,0.0278
754,0.0273
755,0.0288
756,0.0273
757,0.0276
758,0.0273
759,0.0280
760,0.0275
761,0.0281
762,0.0281
763,0.0276
764,0.0278
765,0.0272
766,0.0269
767,0.0262
768,0.0270
769,0.0263
770,0.0272
771,0.0275
772,0.0266
773,0.0264
774,0.0270
775,0.0266
776,0.0280
777,0.0271
778,0.0266
779,0.0272
780,0.0260
781,0.0271
782,0.0270
783,0.0254
784,0.0256
785,0.0271
786,0.0270
787,0.0269
788,0.0261
789,0.0256
790,0.0259
791,0.0253
792,0.0274
793,0.0246
794,0.0254
795,0.0253
796,0.0257
797,0.0278
798,0.0257
799,0.0270
800,0.0276
801,0.0262
802,0.0266
803,0.0275
804,0.0273
805,0.0271
806,0.0270
807,0.0287
808,0.0286
809,0.0282
810,0.0297
811,0.0293
812,0.0280
813,0.0298
814,0.0281
815,0.0287
816,0.0290
817,0.0288
818,0.0289
819,0.0300
820,0.0319
821,0.0295
822,0.0299
823,0.0283
824,0.0289
825,0.0296
826,0.0289
827,0.0292
828,0.0284
829,0.0273
830,0.0279
831,0.0274
832,0.0267
833,0.0279
834,0.0276
835,0.0263
836,0.0262
837,0.0265
838,0.0256
839,0.0249
840,0.0239
841,0.0239
842,0.0247
843,0.0240
844,0.0253
845,0.0255
846,0.0233
847,0.0227
848,0.0229
849,0.0236
850,0.0226
851,0.0237
852,0.0237
853,0.0231
854,0.0226
855,0.0228
856,0.0229
857,0.0227
858,0.0228
859,0.0223
860,0.0231
861,0.0246
862,0.0233
863,0.0237
864,0.0214
865,0.0232
866,0.0229
867,0.0247
868,0.0205
869,0.0233
870,0.0211
871,0.0214
872,0.0234
873,0.0196
874,0.0207
875,0.0222
876,0.0206
877,0.0226
878,0.0205
879,0.0219
880,0.0222
881,0.0221
882,0.0221
883,0.0225
884,0.0208
885,0.0231
886,0.0234
887,0.0236
888,0.0230
889,0.0233
890,0.0261
891,0.0243
892,0.0247
893,0.0284
894,0.0268
895,0.0264
896,0.0267
897,0.0246
898,0.0275
899,0.0283
900,0.0292
901,0.0285
902,0.0285
903,0.0245
904,0.0296
905,0.0277
906,0.0293
907,0.0322
908,0.0297
909,0.0276
910,0.0295
911,0.0266
912,0.0287
913,0.0268
914,0.0265
915,0.0270
916,0.0268
917,0.0253
918,0.0239
919,0.0231
920,0.0228
921,0.0205
922,0.0227
923,0.0199
924,0.0201
925,0.0195
926,0.0204
927,0.0194
928,0.0179
929,0.0172
930,0.0182
931,0.0164
932,0.0147
933,0.0136
934,0.0136
935,0.0122
936,0.0105
937,0.0103
938,0.0085
939,0.0080
940,0.0067
941,0.0049
942,0.0078
943,0.0051
944,0.0059
945,0.0043
946,0.0037
947,0.0077
