382,NaN
383,0.1299
384,0.0000
385,0.0000
386,0.0000
387,0.2515
388,0.1149
389,0.2542
390,0.2691
391,0.0107
392,0.1685
393,0.0540
394,0.1686
395,0.0000
396,0.1894
397,0.0000
398,0.0303
399,0.0386
400,0.1035
401,0.2096
402,0.0000
403,0.0212
404,0.0154
405,0.1782
406,0.0000
407,0.0859
408,0.0360
409,0.0780
410,0.1131
411,0.1163
412,0.0712
413,0.0478
414,0.0000
415,0.0442
416,0.0758
417,0.1137
418,0.0295
419,0.0488
420,0.0762
421,0.0329
422,0.0518
423,0.0676
424,0.0403
425,0.0231
426,0.0970
427,0.0198
428,0.0168
429,0.0378
430,0.0690
431,0.0908
432,0.0344
433,0.0576
434,0.0617
435,0.0664
436,0.0744
437,0.0867
438,0.0626
439,0.0546
440,0.0707
441,0.0848
442,0.0805
443,0.0849
444,0.0605
445,0.0557
446,0.0548
447,0.0657
448,0.0441
449,0.0575
450,0.0439
451,0.0533
452,0.0497
453,0.0774
454,0.0546
455,0.0593
456,0.0622
457,0.0602
458,0.0503
459,0.0441
460,0.0602
461,0.0756
462,0.0608
463,0.0673
464,0.0492
465,0.0410
466,0.0630
467,0.0503
468,0.0616
469,0.0729
470,0.0639
471,0.0639
472,0.0691
473,0.0686
474,0.0680
475,0.0647
476,0.0726
477,0.0728
478,0.0795
479,0.0805
480,0.0861
481,0.0643
482,0.0634
483,0.0822
484,0.0710
485,0.0846
486,0.0770
487,0.0882
488,0.0832
489,0.0767
490,0.0889
491,0.0828
492,0.0808
493,0.0903
494,0.0848
495,0.0862
496,0.0776
497,0.0782
498,0.0771
499,0.0758
500,0.0776
501,0.0714
502,0.0749
503,0.0691
504,0.0660
505,0.0607
506,0.0647
507,0.0683
508,0.0671
509,0.0621
510,0.0602
511,0.0573
512,0.0556
513,0.0536
514,0.0543
515,0.0502
516,0.0514
517,0.0504
518,0.0485
519,0.0482
520,0.0505
521,0.0458
522,0.0453
523,0.0446
524,0.0443
525,0.0413
526,0.0441
527,0.0438
528,0.0418
529,0.0416
530,0.0409
531,0.0416
532,0.0413
533,0.0406
534,0.0429
535,0.0407
536,0.0410
537,0.0393
538,0.0421
539,0.0412
540,0.0391
541,0.0393
542,0.0404
543,0.0404
544,0.0398
545,0.0400
546,0.0425
547,0.0415
548,0.0388
549,0.0395
550,0.0399
551,0.0395
552,0.0395
553,0.0394
554,0.0399
555,0.0378
556,0.0408
557,0.0393
558,0.0397
559,0.0392
560,0.0381
561,0.0389
562,0.0396
563,0.0398
564,0.0395
565,0.0401
566,0.0386
567,0.0403
568,0.0396
569,0.0412
570,0.0417
571,0.0410
572,0.0392
573,0.0395
574,0.0416
575,0.0387
576,0.0402
577,0.0413
578,0.0391
579,0.0404
580,0.0403
581,0.0391
582,0.0387
583,0.0378
584,0.0398
585,0.0390
586,0.0384
587,0.0380
588,0.0388
589,0.0379
590,0.0390
591,0.0364
592,0.0376
593,0.0380
594,0.0380
595,0.0359
596,0.0360
597,0.0360
598,0.0358
599,0.0368
600,0.0361
601,0.0361
602,0.0367
603,0.0357
604,0.0367
605,0.0363
606,0.0363
607,0.0360
608,0.0356
609,0.0372
610,0.0354
611,0.0363
612,0.0362
613,0.0366
614,0.0360
615,0.0376
616,0.0363
617,0.0361
618,0.0363
619,0.0363
620,0.0357
621,0.0359
622,0.0370
623,0.0376
624,0.0366
625,0.0368
626,0.0365
627,0.0364
628,0.0370
629,0.0370
630,0.0368
631,0.0361
632,0.0374
633,0.0364
634,0.0361
635,0.0355
636,0.0366
637,0.0355
638,0.0350
639,0.0361
640,0.0361
641,0.0364
642,0.0367
643,0.0355
644,0.0364
645,0.0358
646,0.0363
647,0.0351
648,0.0357
649,0.0352
650,0.0351
651,0.0338
652,0.0343
653,0.0346
654,0.0341
655,0.0343
656,0.0335
657,0.0335
658,0.0339
659,0.0337
660,0.0332
661,0.0328
662,0.0331
663,0.0336
664,0.0337
665,0.0329
666,0.0320
667,0.0333
668,0.0326
669,0.0330
670,0.0327
671,0.0330
672,0.0325
673,0.0319
674,0.0317
675,0.0334
676,0.0328
677,0.0315
678,0.0324
679,0.0315
680,0.0317
681,0.0317
682,0.0317
683,0.0326
684,0.0320
685,0.0315
686,0.0322
687,0.0321
688,0.0326
689,0.0324
690,0.0328
691,0.0326
692,0.0326
693,0.0320
694,0.0333
695,0.0331
696,0.0324
697,0.0326
698,0.0326
699,0.0327
700,0.0333
701,0.0314
702,0.0325
703,0.0321
704,0.0321
705,0.0316
706,0.0327
707,0.0316
708,0.0317
709,0.0323
710,0.0314
711,0.0323
712,0.0308
713,0.0312
714,0.0310
715,0.0329
716,0.0311
717,0.0317
718,0.0303
719,0.0305
720,0.0297
721,0.0291
722,0.0294
723,0.0293
724,0.0296
725,0.0293
726,0.0292
727,0.0285
728,0.0291
729,0.0282
730,0.0272
731,0.0283
732,0.0286
733,0.0271
734,0.0278
735,0.0279
736,0.0273
737,0.0275
738,0.0288
739,0.0280
740,0.0262
741,0.0270
742,0.0277
743,0.0266
744,0.0269
745,0.0276
746,0.0276
747,0.0270
748,0.0274
749,0.0274
750,0.0269
751,0.0271
752,0.0281
753,0.0281
754,0.0275
755,0.0272
756,0.0282
757,0.0274
758,0.0271
759,0.0275
760,0.0275
761,0.0269
762,0.0263
763,0.0283
764,0.0275
765,0.0272
766,0.0274
767,0.0275
768,0.0271
769,0.0268
770,0.0271
771,0.0278
772,0.0266
773,0.0263
774,0.0281
775,0.0263
776,0.0264
777,0.0269
778,0.0265
779,0.0271
780,0.0262
781,0.0273
782,0.0269
783,0.0268
784,0.0267
785,0.0266
786,0.0271
787,0.0271
788,0.0270
789,0.0266
790,0.0267
791,0.0250
792,0.0267
793,0.0254
794,0.0270
795,0.0260
796,0.0257
797,0.0273
798,0.0257
799,0.0267
800,0.0265
801,0.0268
802,0.0263
803,0.0274
804,0.0286
805,0.0272
806,0.0269
807,0.0285
808,0.0290
809,0.0296
810,0.0293
811,0.0286
812,0.0282
813,0.0282
814,0.0274
815,0.0276
816,0.0296
817,0.0281
818,0.0299
819,0.0302
820,0.0302
821,0.0293
822,0.0299
823,0.0292
824,0.0290
825,0.0302
826,0.0283
827,0.0288
828,0.0267
829,0.0290
830,0.0288
831,0.0280
832,0.0260
833,0.0280
834,0.0276
835,0.0269
836,0.0267
837,0.0266
838,0.0255
839,0.0256
840,0.0245
841,0.0251
842,0.0262
843,0.0236
844,0.0240
845,0.0249
846,0.0245
847,0.0234
848,0.0243
849,0.0241
850,0.0232
851,0.0240
852,0.0233
853,0.0228
854,0.0232
855,0.0240
856,0.0217
857,0.0245
858,0.0230
859,0.0228
860,0.0236
861,0.0227
862,0.0226
863,0.0235
864,0.0223
865,0.0230
866,0.0227
867,0.0232
868,0.0222
869,0.0223
870,0.0224
871,0.0220
872,0.0223
873,0.0217
874,0.0207
875,0.0204
876,0.0213
877,0.0214
878,0.0206
879,0.0221
880,0.0231
881,0.0194
882,0.0226
883,0.0242
884,0.0226
885,0.0224
886,0.0221
887,0.0236
888,0.0236
889,0.0242
890,0.0266
891,0.0243
892,0.0251
893,0.0281
894,0.0261
895,0.0240
896,0.0270
897,0.0274
898,0.0273
899,0.0262
900,0.0270
901,0.0274
902,0.0261
903,0.0273
904,0.0295
905,0.0274
906,0.0284
907,0.0312
908,0.0294
909,0.0306
910,0.0283
911,0.0275
912,0.0287
913,0.0272
914,0.0260
915,0.0278
916,0.0277
917,0.0239
918,0.0233
919,0.0230
920,0.0248
921,0.0199
922,0.0231
923,0.0226
924,0.0224
925,0.0214
926,0.0190
927,0.0201
928,0.0175
929,0.0186
930,0.0162
931,0.0147
932,0.0143
933,0.0136
934,0.0144
935,0.0121
936,0.0116
937,0.0097
938,0.0096
939,0.0068
940,0.0060
941,0.0055
942,0.0059
943,0.0034
944,0.0063
945,0.0050
946,0.0021
947,0.0122
