382,NaN
383,1.0000
384,0.5578
385,0.5335
386,1.0000
387,0.0346
388,0.1668
389,0.1680
390,0.1156
391,0.0183
392,0.1021
393,0.0680
394,0.0000
395,0.0278
396,0.0779
397,0.0000
398,0.0868
399,0.0810
400,0.0000
401,0.1453
402,0.0000
403,0.0907
404,0.0186
405,0.0000
406,0.0398
407,0.2035
408,0.1194
409,0.0404
410,0.1092
411,0.0794
412,0.0569
413,0.0721
414,0.0016
415,0.1037
416,0.0787
417,0.0732
418,0.0556
419,0.0000
420,0.0855
421,0.0615
422,0.0000
423,0.0101
424,0.0221
425,0.0314
426,0.0478
427,0.0429
428,0.0348
429,0.0553
430,0.0704
431,0.0486
432,0.0692
433,0.0603
434,0.0471
435,0.0434
436,0.0562
437,0.0781
438,0.0598
439,0.0654
440,0.0621
441,0.0785
442,0.0846
443,0.0751
444,0.0594
445,0.0572
446,0.0381
447,0.0574
448,0.0650
449,0.0637
450,0.0594
451,0.0531
452,0.0433
453,0.0764
454,0.0497
455,0.0717
456,0.0661
457,0.0590
458,0.0555
459,0.0512
460,0.0515
461,0.0635
462,0.0618
463,0.0771
464,0.0418
465,0.0470
466,0.0436
467,0.0563
468,0.0634
469,0.0692
470,0.0714
471,0.0559
472,0.0657
473,0.0666
474,0.0613
475,0.0655
476,0.0691
477,0.0744
478,0.0692
479,0.0789
480,0.0757
481,0.0713
482,0.0749
483,0.0733
484,0.0743
485,0.0848
486,0.0775
487,0.0802
488,0.0770
489,0.0787
490,0.0863
491,0.0815
492,0.0828
493,0.0835
494,0.0836
495,0.0831
496,0.0771
497,0.0743
498,0.0804
499,0.0729
500,0.0786
501,0.0713
502,0.0752
503,0.0705
504,0.0696
505,0.0669
506,0.0674
507,0.0677
508,0.0610
509,0.0653
510,0.0629
511,0.0553
512,0.0594
513,0.0573
514,0.0559
515,0.0519
516,0.0497
517,0.0512
518,0.0467
519,0.0482
520,0.0480
521,0.0448
522,0.0453
523,0.0436
524,0.0460
525,0.0435
526,0.0446
527,0.0461
528,0.0412
529,0.0424
530,0.0405
531,0.0407
532,0.0412
533,0.0430
534,0.0428
535,0.0406
536,0.0397
537,0.0410
538,0.0389
539,0.0404
540,0.0419
541,0.0392
542,0.0397
543,0.0412
544,0.0390
545,0.0390
546,0.0413
547,0.0411
548,0.0395
549,0.0402
550,0.0404
551,0.0382
552,0.0394
553,0.0399
554,0.0398
555,0.0401
556,0.0399
557,0.0403
558,0.0390
559,0.0401
560,0.0396
561,0.0390
562,0.0401
563,0.0395
564,0.0401
565,0.0386
566,0.0388
567,0.0409
568,0.0403
569,0.0409
570,0.0411
571,0.0420
572,0.0411
573,0.0394
574,0.0394
575,0.0387
576,0.0407
577,0.0398
578,0.0396
579,0.0392
580,0.0396
581,0.0395
582,0.0378
583,0.0395
584,0.0385
585,0.0376
586,0.0395
587,0.0370
588,0.0375
589,0.0377
590,0.0388
591,0.0373
592,0.0379
593,0.0364
594,0.0374
595,0.0365
596,0.0372
597,0.0358
598,0.0368
599,0.0373
600,0.0361
601,0.0362
602,0.0367
603,0.0370
604,0.0369
605,0.0356
606,0.0352
607,0.0366
608,0.0364
609,0.0362
610,0.0352
611,0.0379
612,0.0373
613,0.0365
614,0.0370
615,0.0369
616,0.0356
617,0.0354
618,0.0363
619,0.0373
620,0.0355
621,0.0353
622,0.0367
623,0.0370
624,0.0359
625,0.0362
626,0.0364
627,0.0370
628,0.0367
629,0.0370
630,0.0374
631,0.0362
632,0.0359
633,0.0360
634,0.0358
635,0.0351
636,0.0363
637,0.0356
638,0.0361
639,0.0360
640,0.0358
641,0.0363
642,0.0356
643,0.0358
644,0.0363
645,0.0345
646,0.0355
647,0.0343
648,0.0359
649,0.0349
650,0.0348
651,0.0342
652,0.0343
653,0.0342
654,0.0342
655,0.0341
656,0.0342
657,0.0341
658,0.0338
659,0.0327
660,0.0330
661,0.0324
662,0.0325
663,0.0337
664,0.0325
665,0.0329
666,0.0323
667,0.0329
668,0.0326
669,0.0322
670,0.0335
671,0.0338
672,0.0327
673,0.0318
674,0.0318
675,0.0330
676,0.0333
677,0.0315
678,0.0324
679,0.0313
680,0.0315
681,0.0319
682,0.0321
683,0.0317
684,0.0321
685,0.0316
686,0.0327
687,0.0316
688,0.0320
689,0.0327
690,0.0329
691,0.0317
692,0.0327
693,0.0324
694,0.0330
695,0.0325
696,0.0326
697,0.0335
698,0.0329
699,0.0325
700,0.0335
701,0.0321
702,0.0321
703,0.0325
704,0.0314
705,0.0319
706,0.0314
707,0.0321
708,0.0325
709,0.0323
710,0.0325
711,0.0327
712,0.0314
713,0.0302
714,0.0318
715,0.0327
716,0.0317
717,0.0308
718,0.0306
719,0.0297
720,0.0297
721,0.0290
722,0.0291
723,0.0298
724,0.0287
725,0.0283
726,0.0286
727,0.0287
728,0.0274
729,0.0288
730,0.0285
731,0.0271
732,0.0284
733,0.0279
734,0.0284
735,0.0282
736,0.0283
737,0.0281
738,0.0275
739,0.0272
740,0.0273
741,0.0277
742,0.0273
743,0.0275
744,0.0276
745,0.0276
746,0.0269
747,0.0275
748,0.0282
749,0.0258
750,0.0267
751,0.0269
752,0.0271
753,0.0276
754,0.0277
755,0.0289
756,0.0272
757,0.0281
758,0.0268
759,0.0277
760,0.0277
761,0.0280
762,0.0282
763,0.0279
764,0.0275
765,0.0275
766,0.0272
767,0.0273
768,0.0281
769,0.0263
770,0.0268
771,0.0267
772,0.0261
773,0.0262
774,0.0273
775,0.0261
776,0.0268
777,0.0274
778,0.0274
779,0.0274
780,0.0266
781,0.0268
782,0.0273
783,0.0271
784,0.0266
785,0.0262
786,0.0274
787,0.0265
788,0.0270
789,0.0259
790,0.0268
791,0.0250
792,0.0259
793,0.0247
794,0.0261
795,0.0259
796,0.0268
797,0.0272
798,0.0250
799,0.0263
800,0.0272
801,0.0274
802,0.0261
803,0.0277
804,0.0270
805,0.0275
806,0.0265
807,0.0293
808,0.0291
809,0.0280
810,0.0290
811,0.0289
812,0.0283
813,0.0293
814,0.0294
815,0.0296
816,0.0280
817,0.0290
818,0.0285
819,0.0296
820,0.0296
821,0.0303
822,0.0294
823,0.0293
824,0.0288
825,0.0290
826,0.0288
827,0.0272
828,0.0274
829,0.0275
830,0.0275
831,0.0273
832,0.0279
833,0.0285
834,0.0260
835,0.0271
836,0.0263
837,0.0263
838,0.0261
839,0.0246
840,0.0247
841,0.0243
842,0.0267
843,0.0246
844,0.0238
845,0.0242
846,0.0243
847,0.0236
848,0.0239
849,0.0238
850,0.0233
851,0.0244
852,0.0232
853,0.0240
854,0.0243
855,0.0234
856,0.0227
857,0.0240
858,0.0222
859,0.0227
860,0.0231
861,0.0227
862,0.0241
863,0.0244
864,0.0217
865,0.0218
866,0.0235
867,0.0236
868,0.0234
869,0.0204
870,0.0229
871,0.0216
872,0.0232
873,0.0201
874,0.0215
875,0.0204
876,0.0200
877,0.0212
878,0.0202
879,0.0215
880,0.0209
881,0.0213
882,0.0220
883,0.0230
884,0.0239
885,0.0226
886,0.0237
887,0.0232
888,0.0217
889,0.0226
890,0.0256
891,0.0248
892,0.0253
893,0.0261
894,0.0257
895,0.0254
896,0.0261
897,0.0266
898,0.0281
899,0.0256
900,0.0289
901,0.0292
902,0.0247
903,0.0251
904,0.0294
905,0.0289
906,0.0294
907,0.0307
908,0.0306
909,0.0297
910,0.0308
911,0.0273
912,0.0279
913,0.0255
914,0.0284
915,0.0272
916,0.0276
917,0.0243
918,0.0240
919,0.0236
920,0.0261
921,0.0198
922,0.0214
923,0.0211
924,0.0231
925,0.0203
926,0.0199
927,0.0199
928,0.0165
929,0.0197
930,0.0183
931,0.0157
932,0.0142
933,0.0129
934,0.0145
935,0.0126
936,0.0081
937,0.0080
938,0.0087
939,0.0076
940,0.0055
941,0.0061
942,0.0061
943,0.0041
944,0.0043
945,0.0044
946,0.0044
947,0.0078
