382,NaN
383,1.0000
384,1.0000
385,1.0000
386,0.0000
387,0.1568
388,0.2271
389,0.0240
390,0.0000
391,0.3883
392,0.1321
393,0.4409
394,0.0000
395,0.0000
396,0.2114
397,0.0000
398,0.0994
399,0.0794
400,0.0000
401,0.2150
402,0.0000
403,0.1051
404,0.1015
405,0.1711
406,0.0384
407,0.0782
408,0.2269
409,0.0452
410,0.1577
411,0.0851
412,0.1284
413,0.0910
414,0.0000
415,0.0174
416,0.0634
417,0.0558
418,0.0447
419,0.0662
420,0.0697
421,0.0607
422,0.0509
423,0.0588
424,0.0508
425,0.0377
426,0.0766
427,0.0156
428,0.0657
429,0.0463
430,0.0702
431,0.0247
432,0.0568
433,0.0388
434,0.0579
435,0.0792
436,0.0723
437,0.0921
438,0.1042
439,0.0357
440,0.0635
441,0.0822
442,0.0685
443,0.0880
444,0.0436
445,0.0785
446,0.0472
447,0.0624
448,0.0557
449,0.0489
450,0.0632
451,0.0398
452,0.0312
453,0.0673
454,0.0588
455,0.0601
456,0.0449
457,0.0666
458,0.0600
459,0.0467
460,0.0523
461,0.0628
462,0.0578
463,0.0848
464,0.0593
465,0.0488
466,0.0609
467,0.0493
468,0.0687
469,0.0628
470,0.0479
471,0.0538
472,0.0596
473,0.0641
474,0.0635
475,0.0687
476,0.0741
477,0.0849
478,0.0693
479,0.0814
480,0.0799
481,0.0729
482,0.0748
483,0.0796
484,0.0768
485,0.0801
486,0.0840
487,0.0856
488,0.0758
489,0.0788
490,0.0801
491,0.0782
492,0.0804
493,0.0890
494,0.0797
495,0.0819
496,0.0797
497,0.0697
498,0.0783
499,0.0793
500,0.0799
501,0.0704
502,0.0706
503,0.0696
504,0.0720
505,0.0648
506,0.0634
507,0.0694
508,0.0623
509,0.0649
510,0.0612
511,0.0563
512,0.0558
513,0.0552
514,0.0570
515,0.0539
516,0.0504
517,0.0515
518,0.0440
519,0.0489
520,0.0469
521,0.0455
522,0.0448
523,0.0439
524,0.0449
525,0.0428
526,0.0445
527,0.0427
528,0.0426
529,0.0416
530,0.0411
531,0.0421
532,0.0423
533,0.0407
534,0.0416
535,0.0394
536,0.0391
537,0.0391
538,0.0411
539,0.0402
540,0.0405
541,0.0404
542,0.0392
543,0.0387
544,0.0394
545,0.0412
546,0.0413
547,0.0400
548,0.0395
549,0.0385
550,0.0390
551,0.0388
552,0.0400
553,0.0397
554,0.0395
555,0.0381
556,0.0389
557,0.0403
558,0.0395
559,0.0397
560,0.0402
561,0.0405
562,0.0400
563,0.0399
564,0.0401
565,0.0401
566,0.0383
567,0.0395
568,0.0402
569,0.0398
570,0.0404
571,0.0415
572,0.0403
573,0.0391
574,0.0395
575,0.0395
576,0.0408
577,0.0408
578,0.0394
579,0.0394
580,0.0398
581,0.0393
582,0.0389
583,0.0387
584,0.0393
585,0.0397
586,0.0386
587,0.0382
588,0.0376
589,0.0388
590,0.0379
591,0.0365
592,0.0384
593,0.0369
594,0.0375
595,0.0361
596,0.0371
597,0.0369
598,0.0367
599,0.0365
600,0.0361
601,0.0360
602,0.0361
603,0.0362
604,0.0366
605,0.0354
606,0.0354
607,0.0365
608,0.0363
609,0.0363
610,0.0355
611,0.0357
612,0.0370
613,0.0361
614,0.0362
615,0.0366
616,0.0360
617,0.0359
618,0.0360
619,0.0377
620,0.0363
621,0.0357
622,0.0376
623,0.0369
624,0.0371
625,0.0369
626,0.0369
627,0.0370
628,0.0362
629,0.0372
630,0.0373
631,0.0366
632,0.0359
633,0.0355
634,0.0355
635,0.0364
636,0.0356
637,0.0357
638,0.0361
639,0.0348
640,0.0356
641,0.0364
642,0.0357
643,0.0360
644,0.0355
645,0.0352
646,0.0349
647,0.0339
648,0.0351
649,0.0355
650,0.0348
651,0.0348
652,0.0341
653,0.0343
654,0.0339
655,0.0341
656,0.0333
657,0.0331
658,0.0338
659,0.0329
660,0.0332
661,0.0326
662,0.0333
663,0.0333
664,0.0326
665,0.0327
666,0.0323
667,0.0335
668,0.0326
669,0.0334
670,0.0328
671,0.0323
672,0.0333
673,0.0328
674,0.0318
675,0.0329
676,0.0333
677,0.0315
678,0.0324
679,0.0321
680,0.0328
681,0.0323
682,0.0324
683,0.0325
684,0.0335
685,0.0318
686,0.0323
687,0.0324
688,0.0321
689,0.0322
690,0.0326
691,0.0326
692,0.0319
693,0.0328
694,0.0329
695,0.0324
696,0.0322
697,0.0326
698,0.0328
699,0.0327
700,0.0324
701,0.0327
702,0.0326
703,0.0324
704,0.0315
705,0.0317
706,0.0325
707,0.0311
708,0.0326
709,0.0317
710,0.0318
711,0.0322
712,0.0319
713,0.0316
714,0.0318
715,0.0313
716,0.0312
717,0.0309
718,0.0307
719,0.0304
720,0.0303
721,0.0288
722,0.0294
723,0.0300
724,0.0285
725,0.0283
726,0.0281
727,0.0286
728,0.0280
729,0.0279
730,0.0279
731,0.0271
732,0.0282
733,0.0279
734,0.0273
735,0.0278
736,0.0277
737,0.0271
738,0.0284
739,0.0274
740,0.0268
741,0.0270
742,0.0267
743,0.0271
744,0.0270
745,0.0275
746,0.0280
747,0.0264
748,0.0275
749,0.0270
750,0.0265
751,0.0274
752,0.0281
753,0.0282
754,0.0284
755,0.0288
756,0.0274
757,0.0282
758,0.0280
759,0.0282
760,0.0277
761,0.0278
762,0.0273
763,0.0280
764,0.0274
765,0.0287
766,0.0273
767,0.0275
768,0.0274
769,0.0270
770,0.0265
771,0.0274
772,0.0261
773,0.0266
774,0.0282
775,0.0260
776,0.0274
777,0.0259
778,0.0264
779,0.0279
780,0.0268
781,0.0268
782,0.0273
783,0.0260
784,0.0265
785,0.0263
786,0.0272
787,0.0261
788,0.0266
789,0.0268
790,0.0266
791,0.0257
792,0.0259
793,0.0251
794,0.0264
795,0.0251
796,0.0260
797,0.0274
798,0.0265
799,0.0264
800,0.0267
801,0.0265
802,0.0262
803,0.0271
804,0.0270
805,0.0274
806,0.0268
807,0.0287
808,0.0292
809,0.0286
810,0.0300
811,0.0284
812,0.0287
813,0.0290
814,0.0289
815,0.0287
816,0.0288
817,0.0297
818,0.0294
819,0.0301
820,0.0310
821,0.0300
822,0.0288
823,0.0290
824,0.0294
825,0.0296
826,0.0286
827,0.0289
828,0.0275
829,0.0275
830,0.0282
831,0.0283
832,0.0272
833,0.0276
834,0.0262
835,0.0256
836,0.0263
837,0.0259
838,0.0258
839,0.0246
840,0.0246
841,0.0243
842,0.0253
843,0.0234
844,0.0251
845,0.0244
846,0.0241
847,0.0235
848,0.0237
849,0.0236
850,0.0243
851,0.0239
852,0.0240
853,0.0234
854,0.0245
855,0.0230
856,0.0220
857,0.0243
858,0.0231
859,0.0228
860,0.0237
861,0.0235
862,0.0234
863,0.0242
864,0.0215
865,0.0223
866,0.0240
867,0.0239
868,0.0227
869,0.0231
870,0.0225
871,0.0223
872,0.0222
873,0.0208
874,0.0203
875,0.0215
876,0.0213
877,0.0214
878,0.0203
879,0.0224
880,0.0226
881,0.0205
882,0.0224
883,0.0213
884,0.0218
885,0.0239
886,0.0224
887,0.0240
888,0.0215
889,0.0239
890,0.0248
891,0.0243
892,0.0253
893,0.0270
894,0.0268
895,0.0261
896,0.0275
897,0.0259
898,0.0258
899,0.0264
900,0.0288
901,0.0309
902,0.0264
903,0.0274
904,0.0284
905,0.0303
906,0.0278
907,0.0322
908,0.0290
909,0.0301
910,0.0298
911,0.0279
912,0.0309
913,0.0253
914,0.0276
915,0.0264
916,0.0289
917,0.0246
918,0.0237
919,0.0237
920,0.0235
921,0.0223
922,0.0230
923,0.0200
924,0.0226
925,0.0226
926,0.0191
927,0.0203
928,0.0198
929,0.0190
930,0.0165
931,0.0160
932,0.0159
933,0.0134
934,0.0135
935,0.0131
936,0.0110
937,0.0066
938,0.0095
939,0.0054
940,0.0074
941,0.0070
942,0.0049
943,0.0050
944,0.0046
945,0.0080
946,0.0035
947,0.0092
