382,NaN
383,1.0000
384,0.0350
385,1.0000
386,0.0000
387,0.3123
388,0.1983
389,0.0000
390,0.1351
391,0.1600
392,0.0670
393,0.1401
394,0.0000
395,0.0116
396,0.0862
397,0.0000
398,0.0336
399,0.0000
400,0.0000
401,0.1556
402,0.0285
403,0.0000
404,0.0538
405,0.0502
406,0.0625
407,0.0631
408,0.1253
409,0.0639
410,0.1357
411,0.0782
412,0.1440
413,0.0715
414,0.1006
415,0.0465
416,0.0046
417,0.0765
418,0.0000
419,0.0406
420,0.1064
421,0.0609
422,0.0172
423,0.0242
424,0.0557
425,0.0511
426,0.1245
427,0.0372
428,0.0487
429,0.0532
430,0.0890
431,0.0723
432,0.0587
433,0.0774
434,0.0299
435,0.1073
436,0.0545
437,0.0873
438,0.0548
439,0.0296
440,0.0774
441,0.0778
442,0.0770
443,0.0667
444,0.0606
445,0.0479
446,0.0709
447,0.0436
448,0.0498
449,0.0676
450,0.0774
451,0.0512
452,0.0532
453,0.0682
454,0.0734
455,0.0684
456,0.0527
457,0.0640
458,0.0588
459,0.0558
460,0.0637
461,0.0626
462,0.0474
463,0.0720
464,0.0595
465,0.0407
466,0.0573
467,0.0532
468,0.0675
469,0.0714
470,0.0557
471,0.0546
472,0.0641
473,0.0595
474,0.0688
475,0.0657
476,0.0712
477,0.0793
478,0.0674
479,0.0759
480,0.0735
481,0.0780
482,0.0683
483,0.0769
484,0.0745
485,0.0815
486,0.0739
487,0.0876
488,0.0761
489,0.0765
490,0.0829
491,0.0812
492,0.0725
493,0.0906
494,0.0828
495,0.0813
496,0.0809
497,0.0749
498,0.0816
499,0.0728
500,0.0759
501,0.0718
502,0.0739
503,0.0721
504,0.0704
505,0.0643
506,0.0667
507,0.0682
508,0.0687
509,0.0640
510,0.0628
511,0.0579
512,0.0591
513,0.0572
514,0.0525
515,0.0548
516,0.0516
517,0.0492
518,0.0483
519,0.0475
520,0.0483
521,0.0456
522,0.0433
523,0.0442
524,0.0447
525,0.0429
526,0.0432
527,0.0434
528,0.0439
529,0.0436
530,0.0404
531,0.0401
532,0.0424
533,0.0411
534,0.0430
535,0.0398
536,0.0409
537,0.0407
538,0.0405
539,0.0406
540,0.0416
541,0.0397
542,0.0394
543,0.0397
544,0.0384
545,0.0384
546,0.0402
547,0.0387
548,0.0406
549,0.0391
550,0.0395
551,0.0397
552,0.0416
553,0.0388
554,0.0406
555,0.0388
556,0.0398
557,0.0404
558,0.0393
559,0.0403
560,0.0389
561,0.0393
562,0.0394
563,0.0398
564,0.0408
565,0.0408
566,0.0382
567,0.0397
568,0.0403
569,0.0408
570,0.0400
571,0.0408
572,0.0410
573,0.0405
574,0.0409
575,0.0397
576,0.0400
577,0.0398
578,0.0384
579,0.0396
580,0.0408
581,0.0388
582,0.0385
583,0.0397
584,0.0389
585,0.0381
586,0.0389
587,0.0388
588,0.0377
589,0.0380
590,0.0370
591,0.0381
592,0.0369
593,0.0369
594,0.0380
595,0.0377
596,0.0360
597,0.0365
598,0.0360
599,0.0373
600,0.0366
601,0.0367
602,0.0365
603,0.0357
604,0.0368
605,0.0363
606,0.0357
607,0.0366
608,0.0364
609,0.0363
610,0.0359
611,0.0364
612,0.0368
613,0.0362
614,0.0355
615,0.0366
616,0.0356
617,0.0353
618,0.0360
619,0.0379
620,0.0362
621,0.0359
622,0.0372
623,0.0368
624,0.0370
625,0.0367
626,0.0376
627,0.0366
628,0.0368
629,0.0364
630,0.0367
631,0.0367
632,0.0364
633,0.0355
634,0.0354
635,0.0363
636,0.0355
637,0.0364
638,0.0352
639,0.0362
640,0.0361
641,0.0371
642,0.0354
643,0.0352
644,0.0357
645,0.0350
646,0.0354
647,0.0353
648,0.0355
649,0.0345
650,0.0345
651,0.0354
652,0.0351
653,0.0345
654,0.0335
655,0.0333
656,0.0338
657,0.0331
658,0.0337
659,0.0332
660,0.0334
661,0.0331
662,0.0331
663,0.0342
664,0.0332
665,0.0319
666,0.0321
667,0.0326
668,0.0327
669,0.0330
670,0.0334
671,0.0332
672,0.0325
673,0.0327
674,0.0319
675,0.0329
676,0.0318
677,0.0319
678,0.0321
679,0.0319
680,0.0321
681,0.0310
682,0.0322
683,0.0325
684,0.0318
685,0.0326
686,0.0322
687,0.0318
688,0.0325
689,0.0329
690,0.0320
691,0.0329
692,0.0315
693,0.0324
694,0.0324
695,0.0317
696,0.0323
697,0.0329
698,0.0320
699,0.0325
700,0.0327
701,0.0327
702,0.0326
703,0.0325
704,0.0314
705,0.0318
706,0.0318
707,0.0320
708,0.0329
709,0.0315
710,0.0310
711,0.0327
712,0.0316
713,0.0324
714,0.0314
715,0.0322
716,0.0312
717,0.0305
718,0.0307
719,0.0305
720,0.0308
721,0.0290
722,0.0289
723,0.0294
724,0.0293
725,0.0286
726,0.0284
727,0.0292
728,0.0278
729,0.0281
730,0.0277
731,0.0277
732,0.0278
733,0.0274
734,0.0279
735,0.0277
736,0.0282
737,0.0281
738,0.0282
739,0.0279
740,0.0276
741,0.0272
742,0.0273
743,0.0260
744,0.0283
745,0.0268
746,0.0277
747,0.0272
748,0.0280
749,0.0264
750,0.0263
751,0.0270
752,0.0279
753,0.0276
754,0.0281
755,0.0280
756,0.0274
757,0.0275
758,0.0275
759,0.0283
760,0.0276
761,0.0272
762,0.0272
763,0.0278
764,0.0282
765,0.0275
766,0.0270
767,0.0263
768,0.0274
769,0.0265
770,0.0267
771,0.0266
772,0.0257
773,0.0263
774,0.0272
775,0.0267
776,0.0267
777,0.0266
778,0.0263
779,0.0280
780,0.0270
781,0.0274
782,0.0272
783,0.0260
784,0.0255
785,0.0270
786,0.0267
787,0.0256
788,0.0272
789,0.0263
790,0.0256
791,0.0251
792,0.0260
793,0.0262
794,0.0270
795,0.0272
796,0.0258
797,0.0269
798,0.0259
799,0.0270
800,0.0270
801,0.0266
802,0.0260
803,0.0276
804,0.0259
805,0.0268
806,0.0277
807,0.0282
808,0.0292
809,0.0275
810,0.0297
811,0.0291
812,0.0280
813,0.0287
814,0.0285
815,0.0274
816,0.0302
817,0.0289
818,0.0286
819,0.0305
820,0.0303
821,0.0303
822,0.0294
823,0.0287
824,0.0285
825,0.0291
826,0.0295
827,0.0290
828,0.0290
829,0.0284
830,0.0278
831,0.0285
832,0.0276
833,0.0267
834,0.0264
835,0.0268
836,0.0263
837,0.0255
838,0.0259
839,0.0257
840,0.0241
841,0.0248
842,0.0252
843,0.0246
844,0.0253
845,0.0241
846,0.0230
847,0.0230
848,0.0242
849,0.0246
850,0.0246
851,0.0239
852,0.0235
853,0.0230
854,0.0239
855,0.0227
856,0.0232
857,0.0241
858,0.0222
859,0.0224
860,0.0219
861,0.0227
862,0.0234
863,0.0237
864,0.0220
865,0.0216
866,0.0226
867,0.0246
868,0.0219
869,0.0225
870,0.0217
871,0.0214
872,0.0219
873,0.0204
874,0.0214
875,0.0210
876,0.0219
877,0.0224
878,0.0195
879,0.0206
880,0.0217
881,0.0205
882,0.0220
883,0.0223
884,0.0201
885,0.0224
886,0.0234
887,0.0246
888,0.0222
889,0.0242
890,0.0266
891,0.0233
892,0.0237
893,0.0270
894,0.0258
895,0.0254
896,0.0263
897,0.0256
898,0.0247
899,0.0263
900,0.0259
901,0.0275
902,0.0275
903,0.0295
904,0.0294
905,0.0283
906,0.0294
907,0.0298
908,0.0304
909,0.0300
910,0.0290
911,0.0262
912,0.0292
913,0.0274
914,0.0260
915,0.0267
916,0.0247
917,0.0237
918,0.0247
919,0.0242
920,0.0243
921,0.0204
922,0.0228
923,0.0201
924,0.0218
925,0.0219
926,0.0190
927,0.0187
928,0.0182
929,0.0183
930,0.0181
931,0.0159
932,0.0140
933,0.0146
934,0.0156
935,0.0135
936,0.0102
937,0.0080
938,0.0104
939,0.0072
940,0.0071
941,0.0048
942,0.0035
943,0.0037
944,0.0036
945,0.0054
946,0.0051
947,0.0134
