382,NaN
383,0.4859
384,0.0000
385,1.0000
386,0.0000
387,0.0990
388,0.2265
389,0.0000
390,0.0007
391,0.0833
392,0.2137
393,0.0548
394,0.0000
395,0.0000
396,0.1858
397,0.0050
398,0.0312
399,0.0000
400,0.2336
401,0.2623
402,0.0000
403,0.0923
404,0.0613
405,0.0126
406,0.1178
407,0.0840
408,0.1363
409,0.0145
410,0.1141
411,0.0693
412,0.0973
413,0.0182
414,0.0778
415,0.0392
416,0.0667
417,0.1446
418,0.0000
419,0.0322
420,0.0278
421,0.0556
422,0.0276
423,0.0431
424,0.0805
425,0.0426
426,0.0386
427,0.0000
428,0.0664
429,0.0208
430,0.0717
431,0.0559
432,0.0376
433,0.0337
434,0.0732
435,0.0708
436,0.0736
437,0.0772
438,0.0506
439,0.0463
440,0.0639
441,0.0811
442,0.0668
443,0.0681
444,0.0546
445,0.0386
446,0.0652
447,0.0796
448,0.0355
449,0.0786
450,0.0564
451,0.0328
452,0.0362
453,0.0625
454,0.0513
455,0.0632
456,0.0528
457,0.0551
458,0.0507
459,0.0459
460,0.0534
461,0.0606
462,0.0640
463,0.0693
464,0.0609
465,0.0435
466,0.0489
467,0.0525
468,0.0606
469,0.0696
470,0.0511
471,0.0596
472,0.0703
473,0.0737
474,0.0643
475,0.0668
476,0.0720
477,0.0791
478,0.0709
479,0.0865
480,0.0694
481,0.0715
482,0.0686
483,0.0832
484,0.0806
485,0.0882
486,0.0779
487,0.0847
488,0.0806
489,0.0739
490,0.0769
491,0.0768
492,0.0767
493,0.0865
494,0.0878
495,0.0824
496,0.0832
497,0.0748
498,0.0798
499,0.0712
500,0.0753
501,0.0743
502,0.0746
503,0.0683
504,0.0670
505,0.0610
506,0.0671
507,0.0685
508,0.0622
509,0.0647
510,0.0613
511,0.0560
512,0.0554
513,0.0542
514,0.0557
515,0.0528
516,0.0509
517,0.0504
518,0.0485
519,0.0481
520,0.0486
521,0.0433
522,0.0444
523,0.0437
524,0.0442
525,0.0425
526,0.0443
527,0.0423
528,0.0429
529,0.0415
530,0.0425
531,0.0407
532,0.0404
533,0.0402
534,0.0416
535,0.0394
536,0.0415
537,0.0418
538,0.0414
539,0.0392
540,0.0419
541,0.0397
542,0.0399
543,0.0407
544,0.0398
545,0.0389
546,0.0412
547,0.0396
548,0.0397
549,0.0402
550,0.0399
551,0.0381
552,0.0413
553,0.0402
554,0.0403
555,0.0398
556,0.0409
557,0.0399
558,0.0391
559,0.0401
560,0.0399
561,0.0405
562,0.0413
563,0.0408
564,0.0396
565,0.0404
566,0.0384
567,0.0392
568,0.0415
569,0.0400
570,0.0420
571,0.0392
572,0.0399
573,0.0396
574,0.0397
575,0.0400
576,0.0404
577,0.0401
578,0.0387
579,0.0393
580,0.0408
581,0.0390
582,0.0395
583,0.0379
584,0.0390
585,0.0381
586,0.0376
587,0.0383
588,0.0368
589,0.0375
590,0.0385
591,0.0371
592,0.0380
593,0.0373
594,0.0380
595,0.0380
596,0.0362
597,0.0366
598,0.0370
599,0.0360
600,0.0369
601,0.0364
602,0.0361
603,0.0366
604,0.0366
605,0.0362
606,0.0362
607,0.0368
608,0.0365
609,0.0371
610,0.0363
611,0.0363
612,0.0365
613,0.0372
614,0.0361
615,0.0377
616,0.0362
617,0.0354
618,0.0363
619,0.0371
620,0.0364
621,0.0357
622,0.0361
623,0.0376
624,0.0370
625,0.0360
626,0.0355
627,0.0365
628,0.0369
629,0.0365
630,0.0364
631,0.0366
632,0.0360
633,0.0358
634,0.0354
635,0.0364
636,0.0361
637,0.0360
638,0.0348
639,0.0363
640,0.0362
641,0.0367
642,0.0357
643,0.0359
644,0.0363
645,0.0356
646,0.0358
647,0.0345
648,0.0350
649,0.0349
650,0.0342
651,0.0339
652,0.0344
653,0.0347
654,0.0334
655,0.0334
656,0.0340
657,0.0337
658,0.0343
659,0.0332
660,0.0333
661,0.0330
662,0.0331
663,0.0335
664,0.0327
665,0.0329
666,0.0327
667,0.0338
668,0.0326
669,0.0329
670,0.0324
671,0.0334
672,0.0320
673,0.0320
674,0.0318
675,0.0332
676,0.0329
677,0.0310
678,0.0317
679,0.0323
680,0.0319
681,0.0325
682,0.0327
683,0.0327
684,0.0325
685,0.0318
686,0.0324
687,0.0316
688,0.0318
689,0.0328
690,0.0320
691,0.0328
692,0.0328
693,0.0323
694,0.0326
695,0.0328
696,0.0328
697,0.0330
698,0.0315
699,0.0323
700,0.0330
701,0.0331
702,0.0328
703,0.0323
704,0.0306
705,0.0319
706,0.0322
707,0.0318
708,0.0326
709,0.0324
710,0.0315
711,0.0322
712,0.0318
713,0.0312
714,0.0313
715,0.0320
716,0.0312
717,0.0315
718,0.0314
719,0.0297
720,0.0299
721,0.0297
722,0.0287
723,0.0299
724,0.0289
725,0.0294
726,0.0286
727,0.0283
728,0.0279
729,0.0285
730,0.0283
731,0.0288
732,0.0288
733,0.0278
734,0.0277
735,0.0279
736,0.0273
737,0.0278
738,0.0278
739,0.0268
740,0.0262
741,0.0281
742,0.0266
743,0.0270
744,0.0265
745,0.0274
746,0.0272
747,0.0278
748,0.0279
749,0.0264
750,0.0270
751,0.0276
752,0.0272
753,0.0268
754,0.0268
755,0.0288
756,0.0277
757,0.0284
758,0.0273
759,0.0271
760,0.0273
761,0.0274
762,0.0275
763,0.0286
764,0.0269
765,0.0277
766,0.0268
767,0.0270
768,0.0278
769,0.0278
770,0.0266
771,0.0274
772,0.0262
773,0.0269
774,0.0273
775,0.0261
776,0.0275
777,0.0263
778,0.0248
779,0.0271
780,0.0268
781,0.0270
782,0.0271
783,0.0267
784,0.0261
785,0.0277
786,0.0273
787,0.0267
788,0.0256
789,0.0268
790,0.0266
791,0.0250
792,0.0260
793,0.0265
794,0.0256
795,0.0267
796,0.0257
797,0.0272
798,0.0258
799,0.0265
800,0.0273
801,0.0261
802,0.0271
803,0.0279
804,0.0278
805,0.0277
806,0.0263
807,0.0292
808,0.0290
809,0.0299
810,0.0305
811,0.0292
812,0.0286
813,0.0295
814,0.0297
815,0.0288
816,0.0284
817,0.0291
818,0.0303
819,0.0297
820,0.0311
821,0.0311
822,0.0283
823,0.0289
824,0.0282
825,0.0301
826,0.0287
827,0.0271
828,0.0272
829,0.0274
830,0.0272
831,0.0285
832,0.0264
833,0.0273
834,0.0254
835,0.0266
836,0.0260
837,0.0259
838,0.0251
839,0.0258
840,0.0250
841,0.0253
842,0.0256
843,0.0231
844,0.0240
845,0.0243
846,0.0241
847,0.0232
848,0.0239
849,0.0232
850,0.0241
851,0.0238
852,0.0236
853,0.0230
854,0.0225
855,0.0227
856,0.0240
857,0.0238
858,0.0231
859,0.0227
860,0.0230
861,0.0235
862,0.0221
863,0.0242
864,0.0217
865,0.0221
866,0.0223
867,0.0241
868,0.0225
869,0.0222
870,0.0229
871,0.0221
872,0.0227
873,0.0224
874,0.0196
875,0.0216
876,0.0239
877,0.0217
878,0.0209
879,0.0225
880,0.0221
881,0.0197
882,0.0223
883,0.0232
884,0.0223
885,0.0228
886,0.0222
887,0.0255
888,0.0233
889,0.0255
890,0.0244
891,0.0249
892,0.0245
893,0.0259
894,0.0266
895,0.0266
896,0.0283
897,0.0264
898,0.0269
899,0.0252
900,0.0291
901,0.0282
902,0.0268
903,0.0274
904,0.0284
905,0.0303
906,0.0273
907,0.0306
908,0.0327
909,0.0299
910,0.0322
911,0.0280
912,0.0286
913,0.0260
914,0.0273
915,0.0261
916,0.0264
917,0.0239
918,0.0241
919,0.0225
920,0.0267
921,0.0215
922,0.0207
923,0.0204
924,0.0204
925,0.0205
926,0.0180
927,0.0184
928,0.0179
929,0.0199
930,0.0169
931,0.0151
932,0.0155
933,0.0143
934,0.0124
935,0.0126
936,0.0108
937,0.0081
938,0.0089
939,0.0067
940,0.0069
941,0.0066
942,0.0057
943,0.0029
944,0.0040
945,0.0059
946,0.0028
947,0.0053
