382,NaN
383,1.0000
384,0.6354
385,1.0000
386,0.5800
387,0.1527
388,0.1799
389,0.1097
390,0.0000
391,0.0714
392,0.2798
393,0.0437
394,0.0013
395,0.0000
396,0.1786
397,0.0000
398,0.0000
399,0.1054
400,0.1495
401,0.2906
402,0.0000
403,0.1235
404,0.0939
405,0.0989
406,0.1879
407,0.0857
408,0.0290
409,0.0395
410,0.1306
411,0.1097
412,0.0880
413,0.0571
414,0.0148
415,0.0554
416,0.0703
417,0.1170
418,0.0119
419,0.0849
420,0.0742
421,0.0252
422,0.0246
423,0.0511
424,0.0397
425,0.0133
426,0.0963
427,0.0354
428,0.0720
429,0.0543
430,0.1013
431,0.0548
432,0.0411
433,0.0409
434,0.0625
435,0.0861
436,0.0658
437,0.0787
438,0.0622
439,0.0603
440,0.0406
441,0.0813
442,0.0664
443,0.0841
444,0.0574
445,0.0456
446,0.0555
447,0.0766
448,0.0573
449,0.0667
450,0.0544
451,0.0302
452,0.0532
453,0.0774
454,0.0580
455,0.0446
456,0.0551
457,0.0655
458,0.0666
459,0.0629
460,0.0508
461,0.0673
462,0.0464
463,0.0718
464,0.0550
465,0.0403
466,0.0604
467,0.0523
468,0.0644
469,0.0605
470,0.0552
471,0.0574
472,0.0691
473,0.0626
474,0.0628
475,0.0690
476,0.0579
477,0.0827
478,0.0718
479,0.0837
480,0.0798
481,0.0778
482,0.0664
483,0.0820
484,0.0717
485,0.0826
486,0.0821
487,0.0833
488,0.0791
489,0.0735
490,0.0821
491,0.0773
492,0.0758
493,0.0852
494,0.0799
495,0.0772
496,0.0767
497,0.0725
498,0.0833
499,0.0699
500,0.0795
501,0.0707
502,0.0766
503,0.0696
504,0.0689
505,0.0630
506,0.0625
507,0.0661
508,0.0651
509,0.0631
510,0.0657
511,0.0535
512,0.0547
513,0.0553
514,0.0532
515,0.0513
516,0.0507
517,0.0523
518,0.0489
519,0.0476
520,0.0502
521,0.0434
522,0.0457
523,0.0434
524,0.0447
525,0.0433
526,0.0438
527,0.0456
528,0.0425
529,0.0416
530,0.0394
531,0.0401
532,0.0414
533,0.0405
534,0.0403
535,0.0406
536,0.0418
537,0.0408
538,0.0390
539,0.0392
540,0.0410
541,0.0393
542,0.0394
543,0.0396
544,0.0386
545,0.0398
546,0.0411
547,0.0401
548,0.0404
549,0.0415
550,0.0402
551,0.0398
552,0.0389
553,0.0402
554,0.0398
555,0.0383
556,0.0385
557,0.0390
558,0.0398
559,0.0396
560,0.0386
561,0.0391
562,0.0404
563,0.0393
564,0.0391
565,0.0400
566,0.0387
567,0.0399
568,0.0407
569,0.0399
570,0.0405
571,0.0396
572,0.0405
573,0.0400
574,0.0398
575,0.0390
576,0.0404
577,0.0399
578,0.0390
579,0.0404
580,0.0398
581,0.0393
582,0.0390
583,0.0380
584,0.0388
585,0.0388
586,0.0381
587,0.0383
588,0.0392
589,0.0378
590,0.0389
591,0.0368
592,0.0375
593,0.0367
594,0.0380
595,0.0368
596,0.0365
597,0.0367
598,0.0377
599,0.0369
600,0.0360
601,0.0371
602,0.0372
603,0.0360
604,0.0366
605,0.0368
606,0.0362
607,0.0366
608,0.0361
609,0.0353
610,0.0360
611,0.0371
612,0.0375
613,0.0370
614,0.0362
615,0.0359
616,0.0354
617,0.0354
618,0.0362
619,0.0367
620,0.0359
621,0.0359
622,0.0370
623,0.0365
624,0.0368
625,0.0371
626,0.0371
627,0.0366
628,0.0358
629,0.0381
630,0.0371
631,0.0370
632,0.0359
633,0.0355
634,0.0359
635,0.0354
636,0.0350
637,0.0362
638,0.0354
639,0.0357
640,0.0353
641,0.0361
642,0.0349
643,0.0349
644,0.0360
645,0.0352
646,0.0359
647,0.0352
648,0.0356
649,0.0352
650,0.0346
651,0.0350
652,0.0349
653,0.0346
654,0.0338
655,0.0342
656,0.0335
657,0.0340
658,0.0337
659,0.0337
660,0.0327
661,0.0330
662,0.0335
663,0.0326
664,0.0326
665,0.0329
666,0.0331
667,0.0329
668,0.0327
669,0.0323
670,0.0325
671,0.0333
672,0.0328
673,0.0318
674,0.0318
675,0.0326
676,0.0338
677,0.0315
678,0.0321
679,0.0316
680,0.0320
681,0.0321
682,0.0316
683,0.0325
684,0.0321
685,0.0323
686,0.0327
687,0.0317
688,0.0318
689,0.0331
690,0.0322
691,0.0324
692,0.0324
693,0.0324
694,0.0329
695,0.0327
696,0.0320
697,0.0333
698,0.0322
699,0.0322
700,0.0325
701,0.0324
702,0.0323
703,0.0322
704,0.0316
705,0.0315
706,0.0320
707,0.0315
708,0.0318
709,0.0325
710,0.0310
711,0.0327
712,0.0318
713,0.0325
714,0.0302
715,0.0307
716,0.0312
717,0.0322
718,0.0311
719,0.0299
720,0.0304
721,0.0290
722,0.0295
723,0.0294
724,0.0283
725,0.0288
726,0.0281
727,0.0286
728,0.0273
729,0.0283
730,0.0283
731,0.0278
732,0.0285
733,0.0274
734,0.0279
735,0.0284
736,0.0281
737,0.0276
738,0.0277
739,0.0279
740,0.0270
741,0.0272
742,0.0267
743,0.0271
744,0.0283
745,0.0271
746,0.0275
747,0.0270
748,0.0275
749,0.0262
750,0.0269
751,0.0276
752,0.0273
753,0.0277
754,0.0286
755,0.0283
756,0.0273
757,0.0287
758,0.0272
759,0.0272
760,0.0273
761,0.0279
762,0.0273
763,0.0279
764,0.0275
765,0.0274
766,0.0271
767,0.0266
768,0.0264
769,0.0273
770,0.0269
771,0.0274
772,0.0268
773,0.0267
774,0.0264
775,0.0266
776,0.0266
777,0.0258
778,0.0270
779,0.0280
780,0.0257
781,0.0267
782,0.0260
783,0.0272
784,0.0266
785,0.0257
786,0.0263
787,0.0265
788,0.0263
789,0.0257
790,0.0256
791,0.0252
792,0.0263
793,0.0253
794,0.0258
795,0.0268
796,0.0250
797,0.0260
798,0.0258
799,0.0269
800,0.0266
801,0.0264
802,0.0259
803,0.0284
804,0.0268
805,0.0277
806,0.0272
807,0.0288
808,0.0290
809,0.0280
810,0.0290
811,0.0288
812,0.0279
813,0.0289
814,0.0274
815,0.0279
816,0.0279
817,0.0286
818,0.0293
819,0.0288
820,0.0301
821,0.0294
822,0.0292
823,0.0291
824,0.0274
825,0.0289
826,0.0287
827,0.0270
828,0.0268
829,0.0286
830,0.0262
831,0.0280
832,0.0265
833,0.0277
834,0.0271
835,0.0261
836,0.0277
837,0.0268
838,0.0261
839,0.0245
840,0.0242
841,0.0235
842,0.0258
843,0.0225
844,0.0256
845,0.0247
846,0.0231
847,0.0234
848,0.0241
849,0.0246
850,0.0228
851,0.0234
852,0.0239
853,0.0226
854,0.0234
855,0.0230
856,0.0233
857,0.0246
858,0.0225
859,0.0231
860,0.0246
861,0.0232
862,0.0244
863,0.0245
864,0.0225
865,0.0222
866,0.0232
867,0.0228
868,0.0216
869,0.0227
870,0.0219
871,0.0229
872,0.0218
873,0.0217
874,0.0208
875,0.0208
876,0.0215
877,0.0205
878,0.0211
879,0.0218
880,0.0224
881,0.0210
882,0.0221
883,0.0216
884,0.0229
885,0.0240
886,0.0234
887,0.0238
888,0.0222
889,0.0244
890,0.0258
891,0.0256
892,0.0250
893,0.0271
894,0.0268
895,0.0257
896,0.0241
897,0.0265
898,0.0270
899,0.0250
900,0.0298
901,0.0297
902,0.0267
903,0.0272
904,0.0276
905,0.0277
906,0.0286
907,0.0305
908,0.0298
909,0.0311
910,0.0298
911,0.0250
912,0.0288
913,0.0234
914,0.0263
915,0.0264
916,0.0263
917,0.0248
918,0.0239
919,0.0234
920,0.0240
921,0.0225
922,0.0217
923,0.0210
924,0.0227
925,0.0209
926,0.0196
927,0.0173
928,0.0182
929,0.0194
930,0.0169
931,0.0167
932,0.0151
933,0.0135
934,0.0143
935,0.0130
936,0.0111
937,0.0093
938,0.0107
939,0.0060
940,0.0067
941,0.0065
942,0.0043
943,0.0048
944,0.0053
945,0.0040
946,0.0044
947,0.0157
