382,NaN
383,0.2513
384,0.0000
385,1.0000
386,0.1879
387,0.3640
388,0.1769
389,0.0581
390,0.0000
391,0.0000
392,0.1797
393,0.0071
394,0.1583
395,0.0000
396,0.1837
397,0.0000
398,0.0000
399,0.0304
400,0.0564
401,0.1769
402,0.0000
403,0.1351
404,0.0776
405,0.0559
406,0.0071
407,0.1589
408,0.1348
409,0.0000
410,0.1134
411,0.1376
412,0.1191
413,0.1187
414,0.0319
415,0.0269
416,0.0349
417,0.1162
418,0.0630
419,0.0150
420,0.0961
421,0.0334
422,0.0409
423,0.0798
424,0.0764
425,0.0546
426,0.0747
427,0.0444
428,0.0372
429,0.0128
430,0.0895
431,0.0702
432,0.0853
433,0.0279
434,0.0406
435,0.0363
436,0.0625
437,0.0767
438,0.0574
439,0.0446
440,0.0906
441,0.0737
442,0.0569
443,0.0924
444,0.0706
445,0.0660
446,0.0457
447,0.0670
448,0.0609
449,0.0736
450,0.0694
451,0.0383
452,0.0216
453,0.0561
454,0.0607
455,0.0530
456,0.0473
457,0.0717
458,0.0554
459,0.0552
460,0.0607
461,0.0646
462,0.0525
463,0.0681
464,0.0488
465,0.0566
466,0.0708
467,0.0446
468,0.0678
469,0.0696
470,0.0511
471,0.0493
472,0.0702
473,0.0649
474,0.0636
475,0.0751
476,0.0781
477,0.0823
478,0.0769
479,0.0805
480,0.0767
481,0.0687
482,0.0744
483,0.0704
484,0.0690
485,0.0821
486,0.0713
487,0.0893
488,0.0777
489,0.0767
490,0.0854
491,0.0796
492,0.0811
493,0.0846
494,0.0830
495,0.0771
496,0.0845
497,0.0820
498,0.0770
499,0.0738
500,0.0810
501,0.0660
502,0.0715
503,0.0688
504,0.0680
505,0.0664
506,0.0662
507,0.0668
508,0.0634
509,0.0608
510,0.0663
511,0.0521
512,0.0555
513,0.0575
514,0.0522
515,0.0548
516,0.0535
517,0.0494
518,0.0490
519,0.0483
520,0.0481
521,0.0458
522,0.0455
523,0.0435
524,0.0429
525,0.0423
526,0.0445
527,0.0429
528,0.0435
529,0.0419
530,0.0411
531,0.0409
532,0.0414
533,0.0405
534,0.0418
535,0.0397
536,0.0410
537,0.0402
538,0.0399
539,0.0402
540,0.0414
541,0.0394
542,0.0400
543,0.0408
544,0.0401
545,0.0402
546,0.0420
547,0.0419
548,0.0404
549,0.0384
550,0.0393
551,0.0398
552,0.0390
553,0.0393
554,0.0404
555,0.0384
556,0.0403
557,0.0417
558,0.0395
559,0.0384
560,0.0392
561,0.0401
562,0.0411
563,0.0399
564,0.0401
565,0.0396
566,0.0383
567,0.0400
568,0.0408
569,0.0401
570,0.0399
571,0.0409
572,0.0400
573,0.0405
574,0.0406
575,0.0407
576,0.0411
577,0.0399
578,0.0378
579,0.0402
580,0.0412
581,0.0383
582,0.0385
583,0.0392
584,0.0385
585,0.0386
586,0.0380
587,0.0386
588,0.0388
589,0.0378
590,0.0379
591,0.0373
592,0.0375
593,0.0373
594,0.0385
595,0.0366
596,0.0366
597,0.0361
598,0.0364
599,0.0372
600,0.0362
601,0.0365
602,0.0374
603,0.0368
604,0.0368
605,0.0362
606,0.0350
607,0.0361
608,0.0368
609,0.0363
610,0.0364
611,0.0366
612,0.0366
613,0.0366
614,0.0366
615,0.0366
616,0.0359
617,0.0363
618,0.0362
619,0.0364
620,0.0354
621,0.0363
622,0.0368
623,0.0374
624,0.0374
625,0.0367
626,0.0367
627,0.0365
628,0.0367
629,0.0367
630,0.0379
631,0.0367
632,0.0359
633,0.0353
634,0.0350
635,0.0357
636,0.0357
637,0.0356
638,0.0348
639,0.0353
640,0.0363
641,0.0360
642,0.0351
643,0.0359
644,0.0351
645,0.0357
646,0.0353
647,0.0344
648,0.0357
649,0.0349
650,0.0346
651,0.0355
652,0.0343
653,0.0340
654,0.0333
655,0.0335
656,0.0334
657,0.0337
658,0.0338
659,0.0332
660,0.0327
661,0.0325
662,0.0329
663,0.0335
664,0.0330
665,0.0330
666,0.0321
667,0.0323
668,0.0321
669,0.0332
670,0.0330
671,0.0328
672,0.0331
673,0.0323
674,0.0319
675,0.0317
676,0.0327
677,0.0314
678,0.0322
679,0.0313
680,0.0331
681,0.0319
682,0.0323
683,0.0323
684,0.0321
685,0.0320
686,0.0330
687,0.0322
688,0.0322
689,0.0325
690,0.0327
691,0.0324
692,0.0315
693,0.0323
694,0.0322
695,0.0326
696,0.0323
697,0.0328
698,0.0324
699,0.0330
700,0.0339
701,0.0322
702,0.0325
703,0.0325
704,0.0312
705,0.0314
706,0.0318
707,0.0322
708,0.0317
709,0.0319
710,0.0315
711,0.0331
712,0.0315
713,0.0317
714,0.0312
715,0.0320
716,0.0314
717,0.0312
718,0.0306
719,0.0305
720,0.0303
721,0.0293
722,0.0285
723,0.0297
724,0.0296
725,0.0289
726,0.0286
727,0.0289
728,0.0275
729,0.0279
730,0.0280
731,0.0272
732,0.0283
733,0.0276
734,0.0278
735,0.0284
736,0.0279
737,0.0276
738,0.0277
739,0.0275
740,0.0273
741,0.0275
742,0.0268
743,0.0263
744,0.0270
745,0.0269
746,0.0269
747,0.0274
748,0.0278
749,0.0269
750,0.0268
751,0.0276
752,0.0267
753,0.0275
754,0.0280
755,0.0281
756,0.0276
757,0.0286
758,0.0265
759,0.0285
760,0.0272
761,0.0277
762,0.0273
763,0.0277
764,0.0284
765,0.0280
766,0.0267
767,0.0272
768,0.0271
769,0.0269
770,0.0262
771,0.0271
772,0.0271
773,0.0268
774,0.0280
775,0.0269
776,0.0270
777,0.0266
778,0.0268
779,0.0271
780,0.0261
781,0.0266
782,0.0270
783,0.0267
784,0.0268
785,0.0267
786,0.0265
787,0.0268
788,0.0264
789,0.0256
790,0.0268
791,0.0264
792,0.0260
793,0.0253
794,0.0274
795,0.0261
796,0.0259
797,0.0270
798,0.0255
799,0.0270
800,0.0260
801,0.0264
802,0.0270
803,0.0266
804,0.0275
805,0.0266
806,0.0272
807,0.0288
808,0.0286
809,0.0271
810,0.0292
811,0.0292
812,0.0292
813,0.0290
814,0.0294
815,0.0282
816,0.0281
817,0.0291
818,0.0287
819,0.0307
820,0.0302
821,0.0290
822,0.0281
823,0.0290
824,0.0294
825,0.0294
826,0.0294
827,0.0278
828,0.0280
829,0.0276
830,0.0291
831,0.0278
832,0.0277
833,0.0268
834,0.0263
835,0.0285
836,0.0262
837,0.0266
838,0.0249
839,0.0246
840,0.0252
841,0.0251
842,0.0265
843,0.0230
844,0.0247
845,0.0247
846,0.0237
847,0.0239
848,0.0226
849,0.0227
850,0.0233
851,0.0236
852,0.0233
853,0.0231
854,0.0244
855,0.0233
856,0.0225
857,0.0231
858,0.0224
859,0.0219
860,0.0225
861,0.0237
862,0.0229
863,0.0237
864,0.0235
865,0.0215
866,0.0228
867,0.0232
868,0.0220
869,0.0220
870,0.0223
871,0.0213
872,0.0220
873,0.0209
874,0.0202
875,0.0212
876,0.0224
877,0.0219
878,0.0204
879,0.0224
880,0.0220
881,0.0215
882,0.0224
883,0.0218
884,0.0231
885,0.0229
886,0.0232
887,0.0251
888,0.0229
889,0.0227
890,0.0243
891,0.0248
892,0.0243
893,0.0267
894,0.0258
895,0.0266
896,0.0260
897,0.0263
898,0.0264
899,0.0268
900,0.0279
901,0.0273
902,0.0257
903,0.0256
904,0.0299
905,0.0273
906,0.0264
907,0.0304
908,0.0298
909,0.0310
910,0.0311
911,0.0272
912,0.0286
913,0.0263
914,0.0258
915,0.0263
916,0.0267
917,0.0243
918,0.0249
919,0.0249
920,0.0257
921,0.0215
922,0.0236
923,0.0184
924,0.0223
925,0.0212
926,0.0182
927,0.0199
928,0.0169
929,0.0183
930,0.0160
931,0.0153
932,0.0148
933,0.0123
934,0.0125
935,0.0118
936,0.0095
937,0.0098
938,0.0110
939,0.0070
940,0.0067
941,0.0066
942,0.0025
943,0.0056
944,0.0044
945,0.0044
946,0.0038
947,0.0107
