382,NaN
383,1.0000
384,0.8737
385,1.0000
386,0.0000
387,0.3348
388,0.1855
389,0.0549
390,0.0000
391,0.1788
392,0.1469
393,0.2155
394,0.0849
395,0.0199
396,0.2032
397,0.0000
398,0.0588
399,0.1609
400,0.2029
401,0.2819
402,0.0264
403,0.0806
404,0.1034
405,0.0856
406,0.0526
407,0.0473
408,0.1706
409,0.0497
410,0.1593
411,0.1635
412,0.1777
413,0.1403
414,0.0386
415,0.0416
416,0.0292
417,0.0734
418,0.0745
419,0.0736
420,0.0685
421,0.0459
422,0.0058
423,0.0742
424,0.1028
425,0.0503
426,0.0652
427,0.0664
428,0.0572
429,0.0305
430,0.0470
431,0.0860
432,0.0443
433,0.0426
434,0.0886
435,0.0815
436,0.0683
437,0.0685
438,0.0699
439,0.0650
440,0.0757
441,0.0796
442,0.0799
443,0.0846
444,0.0547
445,0.0824
446,0.0688
447,0.0611
448,0.0246
449,0.0695
450,0.0590
451,0.0528
452,0.0276
453,0.0629
454,0.0688
455,0.0693
456,0.0493
457,0.0432
458,0.0605
459,0.0513
460,0.0608
461,0.0736
462,0.0419
463,0.0707
464,0.0397
465,0.0351
466,0.0527
467,0.0487
468,0.0606
469,0.0799
470,0.0616
471,0.0489
472,0.0694
473,0.0656
474,0.0646
475,0.0657
476,0.0682
477,0.0775
478,0.0665
479,0.0793
480,0.0719
481,0.0747
482,0.0727
483,0.0751
484,0.0725
485,0.0825
486,0.0729
487,0.0883
488,0.0802
489,0.0699
490,0.0824
491,0.0769
492,0.0784
493,0.0867
494,0.0847
495,0.0860
496,0.0817
497,0.0755
498,0.0810
499,0.0725
500,0.0765
501,0.0667
502,0.0710
503,0.0662
504,0.0678
505,0.0656
506,0.0678
507,0.0649
508,0.0631
509,0.0640
510,0.0633
511,0.0523
512,0.0570
513,0.0557
514,0.0534
515,0.0514
516,0.0521
517,0.0508
518,0.0460
519,0.0493
520,0.0471
521,0.0450
522,0.0455
523,0.0427
524,0.0467
525,0.0450
526,0.0432
527,0.0441
528,0.0417
529,0.0424
530,0.0411
531,0.0425
532,0.0414
533,0.0415
534,0.0416
535,0.0417
536,0.0409
537,0.0405
538,0.0402
539,0.0406
540,0.0388
541,0.0405
542,0.0381
543,0.0384
544,0.0387
545,0.0395
546,0.0395
547,0.0412
548,0.0412
549,0.0402
550,0.0382
551,0.0382
552,0.0400
553,0.0407
554,0.0399
555,0.0390
556,0.0411
557,0.0390
558,0.0392
559,0.0389
560,0.0391
561,0.0405
562,0.0404
563,0.0408
564,0.0403
565,0.0404
566,0.0379
567,0.0405
568,0.0399
569,0.0396
570,0.0403
571,0.0409
572,0.0404
573,0.0403
574,0.0406
575,0.0394
576,0.0402
577,0.0399
578,0.0385
579,0.0394
580,0.0405
581,0.0383
582,0.0387
583,0.0391
584,0.0385
585,0.0382
586,0.0380
587,0.0379
588,0.0370
589,0.0370
590,0.0374
591,0.0364
592,0.0379
593,0.0374
594,0.0369
595,0.0379
596,0.0375
597,0.0372
598,0.0371
599,0.0377
600,0.0365
601,0.0366
602,0.0372
603,0.0368
604,0.0363
605,0.0354
606,0.0355
607,0.0370
608,0.0360
609,0.0365
610,0.0364
611,0.0363
612,0.0374
613,0.0358
614,0.0364
615,0.0369
616,0.0370
617,0.0356
618,0.0363
619,0.0360
620,0.0369
621,0.0371
622,0.0363
623,0.0375
624,0.0368
625,0.0362
626,0.0370
627,0.0370
628,0.0371
629,0.0382
630,0.0369
631,0.0372
632,0.0352
633,0.0354
634,0.0358
635,0.0345
636,0.0354
637,0.0355
638,0.0349
639,0.0355
640,0.0356
641,0.0358
642,0.0354
643,0.0354
644,0.0351
645,0.0351
646,0.0353
647,0.0355
648,0.0350
649,0.0357
650,0.0344
651,0.0349
652,0.0343
653,0.0344
654,0.0340
655,0.0352
656,0.0334
657,0.0332
658,0.0336
659,0.0331
660,0.0325
661,0.0331
662,0.0325
663,0.0339
664,0.0323
665,0.0336
666,0.0320
667,0.0329
668,0.0336
669,0.0331
670,0.0332
671,0.0329
672,0.0328
673,0.0320
674,0.0318
675,0.0324
676,0.0328
677,0.0320
678,0.0323
679,0.0318
680,0.0328
681,0.0315
682,0.0320
683,0.0323
684,0.0323
685,0.0321
686,0.0316
687,0.0314
688,0.0327
689,0.0320
690,0.0324
691,0.0319
692,0.0321
693,0.0325
694,0.0325
695,0.0321
696,0.0324
697,0.0331
698,0.0320
699,0.0321
700,0.0324
701,0.0323
702,0.0329
703,0.0312
704,0.0316
705,0.0314
706,0.0322
707,0.0312
708,0.0328
709,0.0318
710,0.0305
711,0.0326
712,0.0312
713,0.0313
714,0.0311
715,0.0313
716,0.0315
717,0.0316
718,0.0315
719,0.0298
720,0.0301
721,0.0285
722,0.0285
723,0.0295
724,0.0288
725,0.0290
726,0.0294
727,0.0287
728,0.0289
729,0.0270
730,0.0271
731,0.0282
732,0.0272
733,0.0269
734,0.0280
735,0.0274
736,0.0275
737,0.0279
738,0.0276
739,0.0272
740,0.0259
741,0.0273
742,0.0265
743,0.0269
744,0.0269
745,0.0269
746,0.0273
747,0.0280
748,0.0276
749,0.0266
750,0.0272
751,0.0273
752,0.0274
753,0.0279
754,0.0281
755,0.0278
756,0.0270
757,0.0267
758,0.0266
759,0.0282
760,0.0276
761,0.0273
762,0.0285
763,0.0284
764,0.0288
765,0.0289
766,0.0271
767,0.0267
768,0.0273
769,0.0270
770,0.0262
771,0.0279
772,0.0263
773,0.0264
774,0.0278
775,0.0262
776,0.0270
777,0.0274
778,0.0259
779,0.0263
780,0.0262
781,0.0262
782,0.0264
783,0.0262
784,0.0258
785,0.0264
786,0.0261
787,0.0268
788,0.0270
789,0.0258
790,0.0261
791,0.0257
792,0.0264
793,0.0260
794,0.0263
795,0.0260
796,0.0255
797,0.0264
798,0.0264
799,0.0261
800,0.0271
801,0.0264
802,0.0266
803,0.0275
804,0.0278
805,0.0270
806,0.0273
807,0.0281
808,0.0281
809,0.0283
810,0.0293
811,0.0287
812,0.0285
813,0.0289
814,0.0285
815,0.0287
816,0.0295
817,0.0284
818,0.0279
819,0.0299
820,0.0297
821,0.0306
822,0.0287
823,0.0297
824,0.0290
825,0.0288
826,0.0290
827,0.0288
828,0.0264
829,0.0285
830,0.0278
831,0.0274
832,0.0275
833,0.0258
834,0.0262
835,0.0268
836,0.0266
837,0.0254
838,0.0260
839,0.0248
840,0.0232
841,0.0245
842,0.0264
843,0.0244
844,0.0253
845,0.0237
846,0.0249
847,0.0234
848,0.0229
849,0.0243
850,0.0245
851,0.0240
852,0.0229
853,0.0236
854,0.0237
855,0.0223
856,0.0231
857,0.0248
858,0.0228
859,0.0232
860,0.0219
861,0.0231
862,0.0234
863,0.0242
864,0.0221
865,0.0224
866,0.0229
867,0.0232
868,0.0208
869,0.0211
870,0.0232
871,0.0220
872,0.0226
873,0.0221
874,0.0216
875,0.0202
876,0.0218
877,0.0207
878,0.0216
879,0.0212
880,0.0230
881,0.0221
882,0.0218
883,0.0214
884,0.0214
885,0.0246
886,0.0230
887,0.0233
888,0.0232
889,0.0238
890,0.0243
891,0.0228
892,0.0233
893,0.0262
894,0.0248
895,0.0265
896,0.0274
897,0.0276
898,0.0281
899,0.0261
900,0.0280
901,0.0299
902,0.0270
903,0.0282
904,0.0292
905,0.0284
906,0.0301
907,0.0290
908,0.0310
909,0.0286
910,0.0308
911,0.0275
912,0.0287
913,0.0276
914,0.0271
915,0.0272
916,0.0276
917,0.0240
918,0.0223
919,0.0239
920,0.0256
921,0.0214
922,0.0230
923,0.0220
924,0.0207
925,0.0209
926,0.0183
927,0.0187
928,0.0183
929,0.0189
930,0.0178
931,0.0161
932,0.0175
933,0.0126
934,0.0148
935,0.0128
936,0.0097
937,0.0090
938,0.0109
939,0.0068
940,0.0069
941,0.0078
942,0.0055
943,0.0050
944,0.0058
945,0.0062
946,0.0033
947,0.0081
