382,NaN
383,0.2628
384,0.9174
385,1.0000
386,0.0000
387,0.1898
388,0.1086
389,0.0000
390,0.0000
391,0.1147
392,0.1197
393,0.2778
394,0.0678
395,0.0000
396,0.0858
397,0.0077
398,0.0468
399,0.0743
400,0.1522
401,0.3235
402,0.0000
403,0.0504
404,0.0677
405,0.0305
406,0.0000
407,0.0000
408,0.0663
409,0.1019
410,0.0535
411,0.1211
412,0.0894
413,0.0410
414,0.0970
415,0.0531
416,0.0529
417,0.0515
418,0.0498
419,0.0723
420,0.0538
421,0.1101
422,0.0364
423,0.0489
424,0.0491
425,0.0227
426,0.0882
427,0.0280
428,0.0305
429,0.0665
430,0.0556
431,0.1000
432,0.0642
433,0.0437
434,0.0630
435,0.0791
436,0.0480
437,0.0387
438,0.0617
439,0.0289
440,0.0787
441,0.0700
442,0.0842
443,0.1072
444,0.0633
445,0.0779
446,0.0422
447,0.0839
448,0.0604
449,0.0821
450,0.0694
451,0.0342
452,0.0385
453,0.0645
454,0.0611
455,0.0798
456,0.0478
457,0.0597
458,0.0511
459,0.0466
460,0.0527
461,0.0655
462,0.0548
463,0.0724
464,0.0614
465,0.0373
466,0.0619
467,0.0601
468,0.0591
469,0.0706
470,0.0500
471,0.0630
472,0.0710
473,0.0612
474,0.0656
475,0.0745
476,0.0697
477,0.0787
478,0.0709
479,0.0893
480,0.0770
481,0.0752
482,0.0766
483,0.0789
484,0.0721
485,0.0846
486,0.0772
487,0.0860
488,0.0724
489,0.0746
490,0.0826
491,0.0787
492,0.0764
493,0.0830
494,0.0868
495,0.0789
496,0.0803
497,0.0731
498,0.0774
499,0.0711
500,0.0735
501,0.0716
502,0.0759
503,0.0636
504,0.0703
505,0.0616
506,0.0690
507,0.0683
508,0.0657
509,0.0631
510,0.0625
511,0.0543
512,0.0572
513,0.0555
514,0.0515
515,0.0528
516,0.0515
517,0.0517
518,0.0451
519,0.0464
520,0.0488
521,0.0445
522,0.0458
523,0.0433
524,0.0418
525,0.0415
526,0.0428
527,0.0435
528,0.0412
529,0.0416
530,0.0398
531,0.0402
532,0.0423
533,0.0398
534,0.0406
535,0.0412
536,0.0397
537,0.0403
538,0.0406
539,0.0400
540,0.0412
541,0.0412
542,0.0401
543,0.0403
544,0.0383
545,0.0395
546,0.0396
547,0.0400
548,0.0395
549,0.0380
550,0.0392
551,0.0393
552,0.0397
553,0.0399
554,0.0402
555,0.0394
556,0.0392
557,0.0402
558,0.0395
559,0.0396
560,0.0388
561,0.0395
562,0.0403
563,0.0392
564,0.0402
565,0.0383
566,0.0382
567,0.0408
568,0.0405
569,0.0406
570,0.0414
571,0.0399
572,0.0405
573,0.0395
574,0.0406
575,0.0390
576,0.0406
577,0.0395
578,0.0378
579,0.0397
580,0.0411
581,0.0374
582,0.0386
583,0.0377
584,0.0392
585,0.0392
586,0.0383
587,0.0375
588,0.0375
589,0.0372
590,0.0373
591,0.0376
592,0.0368
593,0.0370
594,0.0374
595,0.0371
596,0.0376
597,0.0371
598,0.0351
599,0.0358
600,0.0361
601,0.0365
602,0.0362
603,0.0366
604,0.0357
605,0.0362
606,0.0360
607,0.0366
608,0.0361
609,0.0360
610,0.0353
611,0.0365
612,0.0354
613,0.0357
614,0.0369
615,0.0365
616,0.0373
617,0.0359
618,0.0362
619,0.0367
620,0.0365
621,0.0368
622,0.0360
623,0.0363
624,0.0364
625,0.0356
626,0.0364
627,0.0363
628,0.0367
629,0.0365
630,0.0366
631,0.0374
632,0.0354
633,0.0352
634,0.0357
635,0.0351
636,0.0354
637,0.0369
638,0.0358
639,0.0358
640,0.0359
641,0.0359
642,0.0355
643,0.0352
644,0.0351
645,0.0355
646,0.0358
647,0.0348
648,0.0343
649,0.0342
650,0.0347
651,0.0345
652,0.0347
653,0.0345
654,0.0337
655,0.0340
656,0.0343
657,0.0332
658,0.0333
659,0.0329
660,0.0327
661,0.0323
662,0.0329
663,0.0337
664,0.0326
665,0.0332
666,0.0323
667,0.0327
668,0.0336
669,0.0322
670,0.0326
671,0.0335
672,0.0319
673,0.0323
674,0.0315
675,0.0328
676,0.0334
677,0.0322
678,0.0320
679,0.0319
680,0.0318
681,0.0322
682,0.0324
683,0.0332
684,0.0325
685,0.0321
686,0.0322
687,0.0315
688,0.0325
689,0.0333
690,0.0326
691,0.0321
692,0.0325
693,0.0321
694,0.0328
695,0.0325
696,0.0319
697,0.0331
698,0.0325
699,0.0329
700,0.0334
701,0.0328
702,0.0327
703,0.0319
704,0.0317
705,0.0312
706,0.0309
707,0.0320
708,0.0323
709,0.0323
710,0.0317
711,0.0324
712,0.0310
713,0.0317
714,0.0302
715,0.0318
716,0.0312
717,0.0314
718,0.0308
719,0.0303
720,0.0300
721,0.0293
722,0.0288
723,0.0292
724,0.0295
725,0.0292
726,0.0286
727,0.0284
728,0.0281
729,0.0279
730,0.0278
731,0.0272
732,0.0276
733,0.0279
734,0.0271
735,0.0269
736,0.0272
737,0.0278
738,0.0275
739,0.0268
740,0.0266
741,0.0270
742,0.0267
743,0.0271
744,0.0265
745,0.0269
746,0.0269
747,0.0277
748,0.0279
749,0.0262
750,0.0265
751,0.0277
752,0.0277
753,0.0276
754,0.0279
755,0.0279
756,0.0268
757,0.0274
758,0.0267
759,0.0280
760,0.0278
761,0.0280
762,0.0270
763,0.0279
764,0.0282
765,0.0276
766,0.0269
767,0.0278
768,0.0275
769,0.0267
770,0.0277
771,0.0275
772,0.0259
773,0.0262
774,0.0274
775,0.0263
776,0.0276
777,0.0263
778,0.0271
779,0.0275
780,0.0263
781,0.0272
782,0.0273
783,0.0267
784,0.0263
785,0.0267
786,0.0264
787,0.0262
788,0.0264
789,0.0261
790,0.0259
791,0.0252
792,0.0263
793,0.0257
794,0.0262
795,0.0265
796,0.0255
797,0.0278
798,0.0267
799,0.0260
800,0.0269
801,0.0272
802,0.0265
803,0.0279
804,0.0278
805,0.0277
806,0.0278
807,0.0283
808,0.0278
809,0.0283
810,0.0303
811,0.0278
812,0.0275
813,0.0296
814,0.0286
815,0.0282
816,0.0289
817,0.0286
818,0.0293
819,0.0307
820,0.0300
821,0.0306
822,0.0302
823,0.0300
824,0.0281
825,0.0295
826,0.0287
827,0.0281
828,0.0284
829,0.0297
830,0.0267
831,0.0281
832,0.0272
833,0.0273
834,0.0270
835,0.0267
836,0.0267
837,0.0260
838,0.0259
839,0.0243
840,0.0251
841,0.0244
842,0.0253
843,0.0238
844,0.0238
845,0.0246
846,0.0245
847,0.0232
848,0.0241
849,0.0232
850,0.0234
851,0.0245
852,0.0231
853,0.0218
854,0.0238
855,0.0232
856,0.0220
857,0.0240
858,0.0220
859,0.0225
860,0.0226
861,0.0234
862,0.0222
863,0.0234
864,0.0206
865,0.0230
866,0.0225
867,0.0232
868,0.0222
869,0.0218
870,0.0217
871,0.0228
872,0.0221
873,0.0221
874,0.0215
875,0.0201
876,0.0222
877,0.0224
878,0.0203
879,0.0215
880,0.0226
881,0.0206
882,0.0210
883,0.0217
884,0.0214
885,0.0230
886,0.0235
887,0.0234
888,0.0221
889,0.0235
890,0.0257
891,0.0251
892,0.0260
893,0.0251
894,0.0263
895,0.0255
896,0.0271
897,0.0259
898,0.0262
899,0.0263
900,0.0278
901,0.0291
902,0.0258
903,0.0265
904,0.0281
905,0.0284
906,0.0276
907,0.0316
908,0.0307
909,0.0302
910,0.0289
911,0.0261
912,0.0282
913,0.0261
914,0.0266
915,0.0276
916,0.0293
917,0.0247
918,0.0241
919,0.0226
920,0.0260
921,0.0196
922,0.0193
923,0.0204
924,0.0208
925,0.0196
926,0.0171
927,0.0206
928,0.0176
929,0.0180
930,0.0178
931,0.0150
932,0.0170
933,0.0127
934,0.0139
935,0.0118
936,0.0124
937,0.0104
938,0.0106
939,0.0051
940,0.0051
941,0.0052
942,0.0048
943,0.0036
944,0.0035
945,0.0043
946,0.0049
947,0.0062
