382,NaN
383,1.0000
384,0.0000
385,0.2695
386,0.0000
387,0.1439
388,0.0000
389,0.0329
390,0.1265
391,0.1000
392,0.2736
393,0.0898
394,0.0000
395,0.0000
396,0.1612
397,0.0000
398,0.0000
399,0.0000
400,0.0188
401,0.2927
402,0.0000
403,0.0536
404,0.1276
405,0.0248
406,0.0788
407,0.0649
408,0.0743
409,0.0686
410,0.0655
411,0.1269
412,0.0727
413,0.1001
414,0.0764
415,0.1178
416,0.0771
417,0.0349
418,0.0960
419,0.0774
420,0.0770
421,0.0827
422,0.0405
423,0.0895
424,0.0212
425,0.0416
426,0.0893
427,0.0230
428,0.0621
429,0.0460
430,0.0673
431,0.0411
432,0.0457
433,0.0354
434,0.0681
435,0.0508
436,0.0749
437,0.0651
438,0.0513
439,0.0497
440,0.0555
441,0.0743
442,0.0557
443,0.0785
444,0.0575
445,0.0648
446,0.0727
447,0.0719
448,0.0409
449,0.0888
450,0.0593
451,0.0463
452,0.0480
453,0.0664
454,0.0684
455,0.0761
456,0.0466
457,0.0552
458,0.0575
459,0.0520
460,0.0596
461,0.0593
462,0.0451
463,0.0607
464,0.0519
465,0.0439
466,0.0536
467,0.0476
468,0.0680
469,0.0722
470,0.0596
471,0.0599
472,0.0672
473,0.0634
474,0.0617
475,0.0701
476,0.0625
477,0.0761
478,0.0698
479,0.0775
480,0.0767
481,0.0626
482,0.0783
483,0.0784
484,0.0739
485,0.0826
486,0.0708
487,0.0861
488,0.0771
489,0.0793
490,0.0769
491,0.0864
492,0.0718
493,0.0816
494,0.0763
495,0.0763
496,0.0845
497,0.0761
498,0.0772
499,0.0765
500,0.0762
501,0.0714
502,0.0719
503,0.0682
504,0.0688
505,0.0691
506,0.0687
507,0.0630
508,0.0632
509,0.0647
510,0.0605
511,0.0549
512,0.0567
513,0.0539
514,0.0519
515,0.0507
516,0.0506
517,0.0505
518,0.0493
519,0.0483
520,0.0494
521,0.0446
522,0.0457
523,0.0446
524,0.0457
525,0.0431
526,0.0448
527,0.0440
528,0.0423
529,0.0408
530,0.0416
531,0.0429
532,0.0429
533,0.0397
534,0.0434
535,0.0411
536,0.0410
537,0.0418
538,0.0407
539,0.0403
540,0.0409
541,0.0400
542,0.0398
543,0.0399
544,0.0389
545,0.0390
546,0.0413
547,0.0406
548,0.0399
549,0.0394
550,0.0393
551,0.0387
552,0.0394
553,0.0393
554,0.0391
555,0.0396
556,0.0397
557,0.0406
558,0.0398
559,0.0406
560,0.0389
561,0.0383
562,0.0399
563,0.0403
564,0.0390
565,0.0402
566,0.0384
567,0.0401
568,0.0400
569,0.0407
570,0.0423
571,0.0413
572,0.0403
573,0.0410
574,0.0404
575,0.0402
576,0.0401
577,0.0398
578,0.0390
579,0.0401
580,0.0397
581,0.0389
582,0.0388
583,0.0385
584,0.0375
585,0.0378
586,0.0384
587,0.0374
588,0.0387
589,0.0377
590,0.0371
591,0.0369
592,0.0378
593,0.0366
594,0.0365
595,0.0364
596,0.0374
597,0.0362
598,0.0367
599,0.0366
600,0.0369
601,0.0361
602,0.0367
603,0.0355
604,0.0366
605,0.0363
606,0.0348
607,0.0365
608,0.0367
609,0.0363
610,0.0361
611,0.0359
612,0.0364
613,0.0367
614,0.0361
615,0.0367
616,0.0361
617,0.0353
618,0.0371
619,0.0366
620,0.0355
621,0.0361
622,0.0367
623,0.0366
624,0.0362
625,0.0374
626,0.0366
627,0.0359
628,0.0365
629,0.0369
630,0.0367
631,0.0371
632,0.0372
633,0.0353
634,0.0360
635,0.0359
636,0.0359
637,0.0360
638,0.0349
639,0.0358
640,0.0360
641,0.0358
642,0.0348
643,0.0350
644,0.0353
645,0.0361
646,0.0348
647,0.0340
648,0.0356
649,0.0348
650,0.0343
651,0.0350
652,0.0344
653,0.0347
654,0.0332
655,0.0342
656,0.0338
657,0.0335
658,0.0339
659,0.0326
660,0.0323
661,0.0330
662,0.0331
663,0.0328
664,0.0333
665,0.0330
666,0.0329
667,0.0333
668,0.0322
669,0.0332
670,0.0327
671,0.0336
672,0.0316
673,0.0330
674,0.0319
675,0.0328
676,0.0326
677,0.0318
678,0.0322
679,0.0312
680,0.0320
681,0.0319
682,0.0315
683,0.0323
684,0.0325
685,0.0322
686,0.0323
687,0.0309
688,0.0321
689,0.0319
690,0.0327
691,0.0322
692,0.0316
693,0.0327
694,0.0327
695,0.0322
696,0.0322
697,0.0332
698,0.0331
699,0.0330
700,0.0325
701,0.0330
702,0.0327
703,0.0316
704,0.0321
705,0.0319
706,0.0317
707,0.0315
708,0.0320
709,0.0324
710,0.0315
711,0.0326
712,0.0314
713,0.0318
714,0.0315
715,0.0319
716,0.0318
717,0.0315
718,0.0306
719,0.0302
720,0.0304
721,0.0292
722,0.0284
723,0.0293
724,0.0292
725,0.0281
726,0.0279
727,0.0283
728,0.0289
729,0.0278
730,0.0276
731,0.0281
732,0.0283
733,0.0265
734,0.0276
735,0.0274
736,0.0282
737,0.0275
738,0.0276
739,0.0274
740,0.0275
741,0.0276
742,0.0271
743,0.0274
744,0.0275
745,0.0272
746,0.0270
747,0.0279
748,0.0275
749,0.0265
750,0.0269
751,0.0283
752,0.0275
753,0.0281
754,0.0285
755,0.0287
756,0.0277
757,0.0281
758,0.0271
759,0.0285
760,0.0282
761,0.0279
762,0.0274
763,0.0288
764,0.0277
765,0.0273
766,0.0264
767,0.0266
768,0.0269
769,0.0266
770,0.0269
771,0.0277
772,0.0261
773,0.0262
774,0.0266
775,0.0274
776,0.0267
777,0.0266
778,0.0267
779,0.0259
780,0.0270
781,0.0269
782,0.0266
783,0.0263
784,0.0254
785,0.0262
786,0.0268
787,0.0269
788,0.0257
789,0.0254
790,0.0258
791,0.0256
792,0.0254
793,0.0263
794,0.0272
795,0.0255
796,0.0266
797,0.0268
798,0.0262
799,0.0270
800,0.0270
801,0.0270
802,0.0269
803,0.0279
804,0.0286
805,0.0275
806,0.0278
807,0.0294
808,0.0286
809,0.0288
810,0.0301
811,0.0284
812,0.0285
813,0.0286
814,0.0277
815,0.0287
816,0.0286
817,0.0296
818,0.0287
819,0.0295
820,0.0303
821,0.0298
822,0.0299
823,0.0288
824,0.0288
825,0.0296
826,0.0291
827,0.0283
828,0.0279
829,0.0276
830,0.0282
831,0.0291
832,0.0282
833,0.0271
834,0.0270
835,0.0274
836,0.0268
837,0.0259
838,0.0249
839,0.0255
840,0.0248
841,0.0244
842,0.0255
843,0.0232
844,0.0257
845,0.0246
846,0.0234
847,0.0233
848,0.0244
849,0.0243
850,0.0238
851,0.0244
852,0.0234
853,0.0246
854,0.0251
855,0.0230
856,0.0225
857,0.0236
858,0.0232
859,0.0233
860,0.0222
861,0.0227
862,0.0234
863,0.0231
864,0.0222
865,0.0211
866,0.0226
867,0.0230
868,0.0227
869,0.0219
870,0.0219
871,0.0221
872,0.0220
873,0.0224
874,0.0209
875,0.0210
876,0.0210
877,0.0221
878,0.0200
879,0.0208
880,0.0224
881,0.0214
882,0.0224
883,0.0237
884,0.0221
885,0.0222
886,0.0221
887,0.0236
888,0.0225
889,0.0248
890,0.0244
891,0.0241
892,0.0248
893,0.0268
894,0.0267
895,0.0275
896,0.0267
897,0.0262
898,0.0266
899,0.0259
900,0.0285
901,0.0276
902,0.0281
903,0.0266
904,0.0295
905,0.0279
906,0.0293
907,0.0326
908,0.0296
909,0.0284
910,0.0306
911,0.0263
912,0.0294
913,0.0240
914,0.0271
915,0.0248
916,0.0290
917,0.0233
918,0.0253
919,0.0238
920,0.0246
921,0.0223
922,0.0226
923,0.0217
924,0.0228
925,0.0215
926,0.0188
927,0.0181
928,0.0191
929,0.0173
930,0.0189
931,0.0168
932,0.0153
933,0.0124
934,0.0120
935,0.0116
936,0.0111
937,0.0071
938,0.0097
939,0.0059
940,0.0077
941,0.0065
942,0.0049
943,0.0049
944,0.0054
945,0.0048
946,0.0029
947,0.0105
