382,NaN
383,1.0000
384,1.0000
385,1.0000
386,0.0000
387,0.3123
388,0.3142
389,0.1260
390,0.0000
391,0.3785
392,0.2005
393,0.0000
394,0.0000
395,0.0606
396,0.1792
397,0.0000
398,0.0426
399,0.0457
400,0.1997
401,0.2635
402,0.0000
403,0.0528
404,0.1171
405,0.1046
406,0.1007
407,0.0000
408,0.1032
409,0.0184
410,0.1312
411,0.1307
412,0.1135
413,0.0000
414,0.0577
415,0.0394
416,0.0834
417,0.0945
418,0.0249
419,0.0313
420,0.0710
421,0.0497
422,0.0360
423,0.0831
424,0.0265
425,0.0088
426,0.0679
427,0.0000
428,0.0646
429,0.0175
430,0.0764
431,0.0453
432,0.0520
433,0.0531
434,0.0448
435,0.0714
436,0.0690
437,0.0846
438,0.0591
439,0.0379
440,0.0714
441,0.0640
442,0.0456
443,0.0829
444,0.0698
445,0.0650
446,0.0383
447,0.0471
448,0.0523
449,0.0608
450,0.0668
451,0.0602
452,0.0469
453,0.0659
454,0.0619
455,0.0556
456,0.0601
457,0.0579
458,0.0644
459,0.0606
460,0.0527
461,0.0544
462,0.0519
463,0.0538
464,0.0484
465,0.0417
466,0.0701
467,0.0498
468,0.0653
469,0.0687
470,0.0551
471,0.0493
472,0.0734
473,0.0651
474,0.0649
475,0.0698
476,0.0686
477,0.0724
478,0.0703
479,0.0798
480,0.0766
481,0.0741
482,0.0755
483,0.0801
484,0.0702
485,0.0743
486,0.0721
487,0.0884
488,0.0816
489,0.0777
490,0.0826
491,0.0771
492,0.0752
493,0.0813
494,0.0789
495,0.0802
496,0.0808
497,0.0726
498,0.0784
499,0.0705
500,0.0773
501,0.0709
502,0.0734
503,0.0699
504,0.0690
505,0.0667
506,0.0695
507,0.0664
508,0.0654
509,0.0618
510,0.0636
511,0.0578
512,0.0582
513,0.0561
514,0.0556
515,0.0477
516,0.0515
517,0.0529
518,0.0487
519,0.0482
520,0.0489
521,0.0451
522,0.0447
523,0.0428
524,0.0457
525,0.0446
526,0.0432
527,0.0449
528,0.0433
529,0.0418
530,0.0424
531,0.0415
532,0.0418
533,0.0402
534,0.0414
535,0.0391
536,0.0417
537,0.0409
538,0.0402
539,0.0416
540,0.0421
541,0.0412
542,0.0377
543,0.0405
544,0.0393
545,0.0401
546,0.0412
547,0.0404
548,0.0401
549,0.0386
550,0.0394
551,0.0388
552,0.0387
553,0.0401
554,0.0401
555,0.0402
556,0.0402
557,0.0403
558,0.0404
559,0.0394
560,0.0386
561,0.0401
562,0.0408
563,0.0396
564,0.0401
565,0.0405
566,0.0400
567,0.0408
568,0.0401
569,0.0417
570,0.0409
571,0.0414
572,0.0392
573,0.0391
574,0.0384
575,0.0400
576,0.0406
577,0.0402
578,0.0393
579,0.0403
580,0.0404
581,0.0393
582,0.0385
583,0.0390
584,0.0384
585,0.0382
586,0.0390
587,0.0383
588,0.0377
589,0.0373
590,0.0390
591,0.0381
592,0.0376
593,0.0375
594,0.0378
595,0.0370
596,0.0378
597,0.0363
598,0.0366
599,0.0373
600,0.0366
601,0.0363
602,0.0372
603,0.0368
604,0.0359
605,0.0367
606,0.0355
607,0.0355
608,0.0365
609,0.0366
610,0.0367
611,0.0358
612,0.0359
613,0.0365
614,0.0351
615,0.0370
616,0.0363
617,0.0355
618,0.0363
619,0.0372
620,0.0369
621,0.0364
622,0.0370
623,0.0372
624,0.0371
625,0.0362
626,0.0370
627,0.0362
628,0.0371
629,0.0360
630,0.0366
631,0.0368
632,0.0350
633,0.0365
634,0.0361
635,0.0357
636,0.0358
637,0.0358
638,0.0349
639,0.0359
640,0.0362
641,0.0358
642,0.0354
643,0.0353
644,0.0349
645,0.0355
646,0.0359
647,0.0351
648,0.0357
649,0.0349
650,0.0346
651,0.0346
652,0.0347
653,0.0341
654,0.0335
655,0.0344
656,0.0336
657,0.0330
658,0.0341
659,0.0332
660,0.0329
661,0.0328
662,0.0333
663,0.0334
664,0.0327
665,0.0335
666,0.0328
667,0.0332
668,0.0325
669,0.0331
670,0.0331
671,0.0331
672,0.0326
673,0.0323
674,0.0318
675,0.0328
676,0.0328
677,0.0317
678,0.0324
679,0.0326
680,0.0313
681,0.0314
682,0.0320
683,0.0324
684,0.0325
685,0.0323
686,0.0321
687,0.0320
688,0.0325
689,0.0322
690,0.0326
691,0.0324
692,0.0322
693,0.0319
694,0.0329
695,0.0315
696,0.0325
697,0.0330
698,0.0319
699,0.0324
700,0.0330
701,0.0326
702,0.0332
703,0.0320
704,0.0317
705,0.0317
706,0.0320
707,0.0315
708,0.0319
709,0.0321
710,0.0320
711,0.0333
712,0.0313
713,0.0313
714,0.0313
715,0.0320
716,0.0308
717,0.0316
718,0.0310
719,0.0314
720,0.0303
721,0.0292
722,0.0290
723,0.0293
724,0.0283
725,0.0286
726,0.0287
727,0.0293
728,0.0287
729,0.0277
730,0.0281
731,0.0278
732,0.0283
733,0.0281
734,0.0282
735,0.0275
736,0.0277
737,0.0279
738,0.0278
739,0.0275
740,0.0266
741,0.0274
742,0.0266
743,0.0272
744,0.0272
745,0.0275
746,0.0274
747,0.0264
748,0.0285
749,0.0266
750,0.0252
751,0.0281
752,0.0273
753,0.0276
754,0.0277
755,0.0277
756,0.0277
757,0.0278
758,0.0278
759,0.0280
760,0.0271
761,0.0275
762,0.0280
763,0.0281
764,0.0279
765,0.0270
766,0.0268
767,0.0270
768,0.0279
769,0.0262
770,0.0260
771,0.0269
772,0.0267
773,0.0265
774,0.0275
775,0.0266
776,0.0269
777,0.0261
778,0.0270
779,0.0267
780,0.0270
781,0.0271
782,0.0262
783,0.0260
784,0.0268
785,0.0259
786,0.0262
787,0.0260
788,0.0272
789,0.0268
790,0.0259
791,0.0253
792,0.0261
793,0.0260
794,0.0270
795,0.0255
796,0.0263
797,0.0264
798,0.0249
799,0.0262
800,0.0271
801,0.0266
802,0.0253
803,0.0279
804,0.0264
805,0.0266
806,0.0272
807,0.0278
808,0.0281
809,0.0288
810,0.0290
811,0.0294
812,0.0278
813,0.0294
814,0.0280
815,0.0283
816,0.0283
817,0.0280
818,0.0297
819,0.0302
820,0.0296
821,0.0302
822,0.0300
823,0.0289
824,0.0292
825,0.0291
826,0.0290
827,0.0280
828,0.0283
829,0.0288
830,0.0271
831,0.0263
832,0.0267
833,0.0268
834,0.0259
835,0.0270
836,0.0251
837,0.0262
838,0.0256
839,0.0260
840,0.0239
841,0.0240
842,0.0262
843,0.0244
844,0.0234
845,0.0246
846,0.0235
847,0.0239
848,0.0233
849,0.0238
850,0.0226
851,0.0237
852,0.0244
853,0.0223
854,0.0234
855,0.0238
856,0.0225
857,0.0238
858,0.0219
859,0.0222
860,0.0227
861,0.0222
862,0.0236
863,0.0241
864,0.0232
865,0.0216
866,0.0244
867,0.0232
868,0.0222
869,0.0211
870,0.0229
871,0.0221
872,0.0218
873,0.0224
874,0.0214
875,0.0214
876,0.0213
877,0.0212
878,0.0198
879,0.0219
880,0.0225
881,0.0211
882,0.0223
883,0.0223
884,0.0214
885,0.0222
886,0.0251
887,0.0241
888,0.0218
889,0.0231
890,0.0258
891,0.0248
892,0.0255
893,0.0259
894,0.0244
895,0.0265
896,0.0257
897,0.0258
898,0.0266
899,0.0266
900,0.0287
901,0.0276
902,0.0263
903,0.0246
904,0.0301
905,0.0284
906,0.0250
907,0.0308
908,0.0313
909,0.0281
910,0.0283
911,0.0275
912,0.0298
913,0.0271
914,0.0276
915,0.0272
916,0.0293
917,0.0268
918,0.0252
919,0.0256
920,0.0256
921,0.0225
922,0.0220
923,0.0195
924,0.0201
925,0.0215
926,0.0179
927,0.0196
928,0.0194
929,0.0185
930,0.0177
931,0.0149
932,0.0173
933,0.0118
934,0.0150
935,0.0121
936,0.0116
937,0.0097
938,0.0087
939,0.0079
940,0.0058
941,0.0063
942,0.0049
943,0.0058
944,0.0049
945,0.0049
946,0.0040
947,0.0102
