382,NaN
383,0.2431
384,0.9215
385,0.0000
386,0.0000
387,0.1698
388,0.4523
389,0.0219
390,0.0815
391,0.0471
392,0.0832
393,0.2923
394,0.0000
395,0.0000
396,0.0623
397,0.0000
398,0.1857
399,0.0597
400,0.0772
401,0.3536
402,0.0000
403,0.0588
404,0.1153
405,0.0497
406,0.0696
407,0.1459
408,0.1013
409,0.0859
410,0.1579
411,0.1201
412,0.0542
413,0.1917
414,0.0837
415,0.0590
416,0.0424
417,0.0154
418,0.0946
419,0.0513
420,0.1116
421,0.0623
422,0.0461
423,0.0594
424,0.0651
425,0.0817
426,0.0644
427,0.0325
428,0.0424
429,0.0222
430,0.0635
431,0.0510
432,0.0414
433,0.0578
434,0.0259
435,0.0420
436,0.0358
437,0.0924
438,0.0853
439,0.0593
440,0.0872
441,0.0742
442,0.0738
443,0.0898
444,0.0693
445,0.0621
446,0.0525
447,0.0498
448,0.0559
449,0.0477
450,0.0548
451,0.0479
452,0.0489
453,0.0734
454,0.0542
455,0.0573
456,0.0611
457,0.0683
458,0.0568
459,0.0625
460,0.0601
461,0.0660
462,0.0546
463,0.0650
464,0.0582
465,0.0333
466,0.0530
467,0.0522
468,0.0650
469,0.0838
470,0.0527
471,0.0504
472,0.0760
473,0.0584
474,0.0561
475,0.0698
476,0.0689
477,0.0788
478,0.0749
479,0.0881
480,0.0764
481,0.0719
482,0.0715
483,0.0739
484,0.0706
485,0.0834
486,0.0749
487,0.0840
488,0.0819
489,0.0702
490,0.0937
491,0.0787
492,0.0803
493,0.0855
494,0.0790
495,0.0845
496,0.0797
497,0.0765
498,0.0839
499,0.0777
500,0.0844
501,0.0808
502,0.0673
503,0.0682
504,0.0686
505,0.0611
506,0.0688
507,0.0684
508,0.0633
509,0.0640
510,0.0649
511,0.0555
512,0.0579
513,0.0536
514,0.0541
515,0.0525
516,0.0517
517,0.0534
518,0.0467
519,0.0495
520,0.0492
521,0.0420
522,0.0437
523,0.0434
524,0.0437
525,0.0427
526,0.0442
527,0.0443
528,0.0430
529,0.0406
530,0.0400
531,0.0421
532,0.0409
533,0.0419
534,0.0434
535,0.0410
536,0.0393
537,0.0395
538,0.0407
539,0.0397
540,0.0407
541,0.0398
542,0.0400
543,0.0404
544,0.0394
545,0.0392
546,0.0416
547,0.0397
548,0.0404
549,0.0388
550,0.0390
551,0.0389
552,0.0401
553,0.0378
554,0.0395
555,0.0385
556,0.0393
557,0.0411
558,0.0398
559,0.0403
560,0.0402
561,0.0405
562,0.0410
563,0.0392
564,0.0391
565,0.0393
566,0.0389
567,0.0400
568,0.0395
569,0.0406
570,0.0416
571,0.0405
572,0.0406
573,0.0402
574,0.0406
575,0.0388
576,0.0403
577,0.0411
578,0.0394
579,0.0403
580,0.0394
581,0.0397
582,0.0396
583,0.0378
584,0.0388
585,0.0382
586,0.0388
587,0.0381
588,0.0393
589,0.0372
590,0.0382
591,0.0377
592,0.0373
593,0.0376
594,0.0381
595,0.0371
596,0.0374
597,0.0357
598,0.0376
599,0.0383
600,0.0369
601,0.0363
602,0.0364
603,0.0367
604,0.0370
605,0.0366
606,0.0366
607,0.0367
608,0.0371
609,0.0358
610,0.0363
611,0.0361
612,0.0369
613,0.0366
614,0.0355
615,0.0362
616,0.0352
617,0.0359
618,0.0367
619,0.0378
620,0.0365
621,0.0357
622,0.0366
623,0.0359
624,0.0365
625,0.0370
626,0.0368
627,0.0364
628,0.0367
629,0.0370
630,0.0362
631,0.0371
632,0.0360
633,0.0359
634,0.0356
635,0.0352
636,0.0357
637,0.0359
638,0.0348
639,0.0359
640,0.0361
641,0.0355
642,0.0344
643,0.0344
644,0.0356
645,0.0359
646,0.0342
647,0.0351
648,0.0358
649,0.0351
650,0.0341
651,0.0350
652,0.0346
653,0.0346
654,0.0334
655,0.0340
656,0.0341
657,0.0333
658,0.0335
659,0.0326
660,0.0334
661,0.0318
662,0.0334
663,0.0329
664,0.0319
665,0.0331
666,0.0326
667,0.0335
668,0.0319
669,0.0325
670,0.0336
671,0.0337
672,0.0325
673,0.0327
674,0.0320
675,0.0321
676,0.0321
677,0.0318
678,0.0320
679,0.0309
680,0.0322
681,0.0322
682,0.0320
683,0.0323
684,0.0317
685,0.0318
686,0.0327
687,0.0316
688,0.0317
689,0.0334
690,0.0329
691,0.0331
692,0.0314
693,0.0321
694,0.0322
695,0.0329
696,0.0332
697,0.0331
698,0.0320
699,0.0320
700,0.0333
701,0.0322
702,0.0332
703,0.0324
704,0.0317
705,0.0316
706,0.0318
707,0.0309
708,0.0322
709,0.0311
710,0.0316
711,0.0315
712,0.0315
713,0.0317
714,0.0315
715,0.0323
716,0.0309
717,0.0310
718,0.0300
719,0.0304
720,0.0314
721,0.0292
722,0.0288
723,0.0297
724,0.0285
725,0.0286
726,0.0285
727,0.0284
728,0.0274
729,0.0283
730,0.0274
731,0.0280
732,0.0278
733,0.0261
734,0.0272
735,0.0281
736,0.0277
737,0.0276
738,0.0273
739,0.0265
740,0.0261
741,0.0265
742,0.0272
743,0.0270
744,0.0274
745,0.0273
746,0.0277
747,0.0265
748,0.0276
749,0.0262
750,0.0265
751,0.0268
752,0.0273
753,0.0274
754,0.0282
755,0.0291
756,0.0271
757,0.0277
758,0.0272
759,0.0277
760,0.0275
761,0.0267
762,0.0270
763,0.0278
764,0.0280
765,0.0277
766,0.0270
767,0.0266
768,0.0276
769,0.0278
770,0.0269
771,0.0273
772,0.0269
773,0.0267
774,0.0273
775,0.0268
776,0.0269
777,0.0278
778,0.0262
779,0.0263
780,0.0268
781,0.0266
782,0.0258
783,0.0270
784,0.0261
785,0.0267
786,0.0265
787,0.0260
788,0.0262
789,0.0254
790,0.0256
791,0.0257
792,0.0262
793,0.0263
794,0.0263
795,0.0262
796,0.0250
797,0.0275
798,0.0263
799,0.0265
800,0.0270
801,0.0272
802,0.0269
803,0.0282
804,0.0275
805,0.0271
806,0.0265
807,0.0283
808,0.0286
809,0.0291
810,0.0305
811,0.0283
812,0.0279
813,0.0285
814,0.0275
815,0.0282
816,0.0297
817,0.0295
818,0.0280
819,0.0293
820,0.0308
821,0.0297
822,0.0305
823,0.0286
824,0.0284
825,0.0289
826,0.0287
827,0.0279
828,0.0271
829,0.0270
830,0.0276
831,0.0279
832,0.0270
833,0.0275
834,0.0270
835,0.0260
836,0.0266
837,0.0260
838,0.0252
839,0.0256
840,0.0252
841,0.0246
842,0.0247
843,0.0234
844,0.0251
845,0.0240
846,0.0240
847,0.0236
848,0.0240
849,0.0232
850,0.0238
851,0.0239
852,0.0243
853,0.0232
854,0.0235
855,0.0234
856,0.0235
857,0.0240
858,0.0241
859,0.0224
860,0.0227
861,0.0229
862,0.0237
863,0.0238
864,0.0219
865,0.0221
866,0.0222
867,0.0239
868,0.0230
869,0.0226
870,0.0214
871,0.0219
872,0.0216
873,0.0226
874,0.0200
875,0.0213
876,0.0224
877,0.0205
878,0.0213
879,0.0219
880,0.0225
881,0.0221
882,0.0218
883,0.0219
884,0.0223
885,0.0228
886,0.0227
887,0.0245
888,0.0240
889,0.0235
890,0.0242
891,0.0247
892,0.0236
893,0.0279
894,0.0257
895,0.0254
896,0.0272
897,0.0260
898,0.0256
899,0.0267
900,0.0264
901,0.0293
902,0.0276
903,0.0274
904,0.0302
905,0.0288
906,0.0312
907,0.0314
908,0.0291
909,0.0300
910,0.0306
911,0.0259
912,0.0302
913,0.0254
914,0.0271
915,0.0266
916,0.0284
917,0.0250
918,0.0245
919,0.0248
920,0.0248
921,0.0230
922,0.0203
923,0.0199
924,0.0216
925,0.0208
926,0.0196
927,0.0179
928,0.0193
929,0.0185
930,0.0172
931,0.0160
932,0.0153
933,0.0136
934,0.0116
935,0.0125
936,0.0086
937,0.0074
938,0.0089
939,0.0069
940,0.0064
941,0.0050
942,0.0070
943,0.0042
944,0.0065
945,0.0045
946,0.0049
947,0.0096
