382,NaN
383,1.0000
384,1.0000
385,1.0000
386,0.0000
387,0.2441
388,0.0800
389,0.0601
390,0.0000
391,0.0855
392,0.2344
393,0.2155
394,0.0069
395,0.0000
396,0.1712
397,0.0091
398,0.0612
399,0.0000
400,0.1441
401,0.3081
402,0.0000
403,0.0738
404,0.1106
405,0.0605
406,0.0624
407,0.0000
408,0.0007
409,0.0786
410,0.0864
411,0.0976
412,0.0407
413,0.0347
414,0.0962
415,0.0960
416,0.0391
417,0.1232
418,0.0794
419,0.0474
420,0.0639
421,0.0000
422,0.0000
423,0.0844
424,0.0362
425,0.0295
426,0.1086
427,0.0819
428,0.0636
429,0.0611
430,0.0510
431,0.0843
432,0.0534
433,0.0566
434,0.0658
435,0.0536
436,0.0637
437,0.0666
438,0.0511
439,0.0485
440,0.0624
441,0.0761
442,0.0712
443,0.0698
444,0.0513
445,0.0402
446,0.0525
447,0.0687
448,0.0412
449,0.0715
450,0.0581
451,0.0530
452,0.0352
453,0.0648
454,0.0550
455,0.0689
456,0.0666
457,0.0537
458,0.0561
459,0.0435
460,0.0592
461,0.0539
462,0.0596
463,0.0566
464,0.0585
465,0.0487
466,0.0523
467,0.0516
468,0.0677
469,0.0767
470,0.0528
471,0.0547
472,0.0703
473,0.0634
474,0.0631
475,0.0756
476,0.0701
477,0.0781
478,0.0676
479,0.0865
480,0.0738
481,0.0736
482,0.0715
483,0.0740
484,0.0766
485,0.0873
486,0.0764
487,0.0866
488,0.0863
489,0.0758
490,0.0825
491,0.0797
492,0.0752
493,0.0840
494,0.0764
495,0.0816
496,0.0797
497,0.0783
498,0.0783
499,0.0809
500,0.0759
501,0.0792
502,0.0733
503,0.0677
504,0.0685
505,0.0641
506,0.0730
507,0.0670
508,0.0670
509,0.0625
510,0.0641
511,0.0541
512,0.0565
513,0.0567
514,0.0539
515,0.0519
516,0.0511
517,0.0512
518,0.0476
519,0.0453
520,0.0487
521,0.0441
522,0.0457
523,0.0437
524,0.0458
525,0.0436
526,0.0418
527,0.0450
528,0.0427
529,0.0435
530,0.0404
531,0.0399
532,0.0408
533,0.0394
534,0.0410
535,0.0404
536,0.0414
537,0.0404
538,0.0399
539,0.0404
540,0.0399
541,0.0415
542,0.0413
543,0.0409
544,0.0413
545,0.0389
546,0.0408
547,0.0401
548,0.0399
549,0.0392
550,0.0405
551,0.0392
552,0.0397
553,0.0400
554,0.0408
555,0.0392
556,0.0393
557,0.0386
558,0.0399
559,0.0395
560,0.0398
561,0.0385
562,0.0407
563,0.0395
564,0.0402
565,0.0388
566,0.0375
567,0.0419
568,0.0390
569,0.0417
570,0.0411
571,0.0416
572,0.0387
573,0.0399
574,0.0409
575,0.0401
576,0.0405
577,0.0388
578,0.0385
579,0.0396
580,0.0399
581,0.0380
582,0.0385
583,0.0390
584,0.0389
585,0.0378
586,0.0383
587,0.0382
588,0.0382
589,0.0382
590,0.0378
591,0.0376
592,0.0378
593,0.0374
594,0.0364
595,0.0367
596,0.0359
597,0.0364
598,0.0372
599,0.0375
600,0.0363
601,0.0368
602,0.0372
603,0.0367
604,0.0365
605,0.0363
606,0.0357
607,0.0367
608,0.0356
609,0.0366
610,0.0365
611,0.0371
612,0.0367
613,0.0364
614,0.0357
615,0.0368
616,0.0356
617,0.0362
618,0.0368
619,0.0372
620,0.0361
621,0.0363
622,0.0369
623,0.0375
624,0.0363
625,0.0368
626,0.0361
627,0.0368
628,0.0363
629,0.0370
630,0.0365
631,0.0367
632,0.0358
633,0.0358
634,0.0355
635,0.0358
636,0.0352
637,0.0359
638,0.0349
639,0.0351
640,0.0359
641,0.0362
642,0.0348
643,0.0352
644,0.0357
645,0.0350
646,0.0355
647,0.0351
648,0.0355
649,0.0345
650,0.0343
651,0.0345
652,0.0351
653,0.0345
654,0.0340
655,0.0342
656,0.0332
657,0.0333
658,0.0338
659,0.0323
660,0.0332
661,0.0328
662,0.0331
663,0.0330
664,0.0327
665,0.0326
666,0.0325
667,0.0339
668,0.0327
669,0.0332
670,0.0330
671,0.0335
672,0.0320
673,0.0322
674,0.0315
675,0.0331
676,0.0324
677,0.0319
678,0.0326
679,0.0323
680,0.0326
681,0.0324
682,0.0315
683,0.0324
684,0.0335
685,0.0322
686,0.0325
687,0.0301
688,0.0327
689,0.0332
690,0.0321
691,0.0330
692,0.0325
693,0.0324
694,0.0326
695,0.0320
696,0.0330
697,0.0326
698,0.0323
699,0.0334
700,0.0331
701,0.0337
702,0.0323
703,0.0317
704,0.0314
705,0.0308
706,0.0324
707,0.0326
708,0.0324
709,0.0326
710,0.0317
711,0.0323
712,0.0314
713,0.0321
714,0.0317
715,0.0325
716,0.0316
717,0.0315
718,0.0312
719,0.0310
720,0.0305
721,0.0290
722,0.0287
723,0.0299
724,0.0280
725,0.0290
726,0.0286
727,0.0287
728,0.0291
729,0.0279
730,0.0279
731,0.0284
732,0.0282
733,0.0271
734,0.0272
735,0.0271
736,0.0275
737,0.0278
738,0.0274
739,0.0282
740,0.0264
741,0.0270
742,0.0276
743,0.0271
744,0.0272
745,0.0268
746,0.0279
747,0.0275
748,0.0277
749,0.0265
750,0.0268
751,0.0269
752,0.0275
753,0.0271
754,0.0276
755,0.0288
756,0.0276
757,0.0277
758,0.0271
759,0.0281
760,0.0285
761,0.0278
762,0.0278
763,0.0279
764,0.0280
765,0.0271
766,0.0275
767,0.0271
768,0.0272
769,0.0276
770,0.0270
771,0.0273
772,0.0262
773,0.0271
774,0.0277
775,0.0265
776,0.0270
777,0.0268
778,0.0270
779,0.0277
780,0.0264
781,0.0266
782,0.0268
783,0.0260
784,0.0265
785,0.0271
786,0.0257
787,0.0262
788,0.0263
789,0.0268
790,0.0265
791,0.0265
792,0.0258
793,0.0255
794,0.0259
795,0.0260
796,0.0263
797,0.0274
798,0.0261
799,0.0264
800,0.0263
801,0.0267
802,0.0251
803,0.0276
804,0.0267
805,0.0262
806,0.0269
807,0.0285
808,0.0291
809,0.0289
810,0.0292
811,0.0280
812,0.0280
813,0.0288
814,0.0287
815,0.0278
816,0.0291
817,0.0294
818,0.0292
819,0.0297
820,0.0294
821,0.0291
822,0.0298
823,0.0303
824,0.0283
825,0.0292
826,0.0285
827,0.0276
828,0.0285
829,0.0286
830,0.0283
831,0.0290
832,0.0261
833,0.0269
834,0.0265
835,0.0268
836,0.0265
837,0.0248
838,0.0258
839,0.0252
840,0.0246
841,0.0246
842,0.0252
843,0.0233
844,0.0235
845,0.0241
846,0.0230
847,0.0240
848,0.0229
849,0.0234
850,0.0222
851,0.0239
852,0.0234
853,0.0222
854,0.0247
855,0.0237
856,0.0236
857,0.0245
858,0.0229
859,0.0227
860,0.0221
861,0.0233
862,0.0247
863,0.0238
864,0.0218
865,0.0218
866,0.0223
867,0.0236
868,0.0209
869,0.0223
870,0.0210
871,0.0234
872,0.0208
873,0.0217
874,0.0210
875,0.0230
876,0.0220
877,0.0218
878,0.0214
879,0.0221
880,0.0225
881,0.0219
882,0.0235
883,0.0230
884,0.0227
885,0.0246
886,0.0233
887,0.0236
888,0.0226
889,0.0221
890,0.0260
891,0.0244
892,0.0235
893,0.0248
894,0.0261
895,0.0247
896,0.0249
897,0.0257
898,0.0262
899,0.0275
900,0.0290
901,0.0290
902,0.0261
903,0.0275
904,0.0291
905,0.0300
906,0.0281
907,0.0322
908,0.0302
909,0.0307
910,0.0298
911,0.0272
912,0.0301
913,0.0282
914,0.0264
915,0.0272
916,0.0267
917,0.0251
918,0.0241
919,0.0250
920,0.0275
921,0.0213
922,0.0211
923,0.0207
924,0.0231
925,0.0205
926,0.0202
927,0.0179
928,0.0195
929,0.0182
930,0.0173
931,0.0160
932,0.0166
933,0.0142
934,0.0143
935,0.0135
936,0.0107
937,0.0104
938,0.0092
939,0.0071
940,0.0058
941,0.0057
942,0.0049
943,0.0045
944,0.0056
945,0.0045
946,0.0022
947,0.0117
