382,NaN
383,1.0000
384,0.3697
385,1.0000
386,0.0000
387,0.2835
388,0.0000
389,0.1548
390,0.1173
391,0.0000
392,0.3399
393,0.1707
394,0.0401
395,0.0000
396,0.0815
397,0.0000
398,0.0000
399,0.1646
400,0.1904
401,0.2266
402,0.0000
403,0.0766
404,0.0678
405,0.1151
406,0.0147
407,0.0758
408,0.0896
409,0.0463
410,0.1164
411,0.0767
412,0.0650
413,0.1103
414,0.0143
415,0.0610
416,0.0429
417,0.0265
418,0.0720
419,0.0576
420,0.1194
421,0.0147
422,0.0201
423,0.0656
424,0.0072
425,0.0335
426,0.0940
427,0.0162
428,0.0576
429,0.0569
430,0.0697
431,0.0338
432,0.0295
433,0.0519
434,0.0513
435,0.0194
436,0.0626
437,0.0519
438,0.0752
439,0.0407
440,0.0419
441,0.0763
442,0.0516
443,0.0744
444,0.0638
445,0.0891
446,0.0620
447,0.0799
448,0.0505
449,0.0785
450,0.0776
451,0.0322
452,0.0520
453,0.0653
454,0.0674
455,0.0613
456,0.0564
457,0.0530
458,0.0542
459,0.0524
460,0.0584
461,0.0671
462,0.0569
463,0.0660
464,0.0571
465,0.0478
466,0.0538
467,0.0513
468,0.0532
469,0.0685
470,0.0507
471,0.0504
472,0.0677
473,0.0628
474,0.0589
475,0.0661
476,0.0714
477,0.0779
478,0.0648
479,0.0823
480,0.0782
481,0.0643
482,0.0765
483,0.0768
484,0.0680
485,0.0779
486,0.0750
487,0.0881
488,0.0781
489,0.0759
490,0.0831
491,0.0757
492,0.0812
493,0.0840
494,0.0799
495,0.0740
496,0.0828
497,0.0785
498,0.0793
499,0.0780
500,0.0785
501,0.0744
502,0.0789
503,0.0675
504,0.0683
505,0.0682
506,0.0675
507,0.0688
508,0.0598
509,0.0626
510,0.0617
511,0.0534
512,0.0593
513,0.0556
514,0.0530
515,0.0525
516,0.0520
517,0.0522
518,0.0470
519,0.0477
520,0.0484
521,0.0466
522,0.0455
523,0.0449
524,0.0440
525,0.0442
526,0.0445
527,0.0438
528,0.0427
529,0.0425
530,0.0410
531,0.0407
532,0.0426
533,0.0392
534,0.0411
535,0.0402
536,0.0404
537,0.0404
538,0.0404
539,0.0408
540,0.0417
541,0.0393
542,0.0396
543,0.0394
544,0.0389
545,0.0385
546,0.0412
547,0.0407
548,0.0390
549,0.0386
550,0.0402
551,0.0389
552,0.0392
553,0.0399
554,0.0411
555,0.0381
556,0.0397
557,0.0403
558,0.0393
559,0.0394
560,0.0391
561,0.0398
562,0.0399
563,0.0403
564,0.0387
565,0.0395
566,0.0397
567,0.0404
568,0.0392
569,0.0421
570,0.0402
571,0.0410
572,0.0397
573,0.0396
574,0.0411
575,0.0397
576,0.0403
577,0.0408
578,0.0392
579,0.0408
580,0.0407
581,0.0390
582,0.0388
583,0.0387
584,0.0380
585,0.0390
586,0.0393
587,0.0389
588,0.0381
589,0.0376
590,0.0381
591,0.0360
592,0.0378
593,0.0369
594,0.0385
595,0.0371
596,0.0368
597,0.0375
598,0.0363
599,0.0366
600,0.0367
601,0.0365
602,0.0363
603,0.0367
604,0.0368
605,0.0359
606,0.0368
607,0.0366
608,0.0362
609,0.0360
610,0.0359
611,0.0359
612,0.0372
613,0.0364
614,0.0366
615,0.0363
616,0.0365
617,0.0352
618,0.0369
619,0.0368
620,0.0370
621,0.0360
622,0.0372
623,0.0376
624,0.0364
625,0.0367
626,0.0366
627,0.0367
628,0.0371
629,0.0372
630,0.0368
631,0.0375
632,0.0358
633,0.0343
634,0.0361
635,0.0356
636,0.0357
637,0.0358
638,0.0350
639,0.0349
640,0.0366
641,0.0361
642,0.0358
643,0.0357
644,0.0356
645,0.0351
646,0.0352
647,0.0349
648,0.0354
649,0.0344
650,0.0344
651,0.0342
652,0.0350
653,0.0349
654,0.0339
655,0.0336
656,0.0329
657,0.0331
658,0.0336
659,0.0331
660,0.0331
661,0.0325
662,0.0335
663,0.0328
664,0.0324
665,0.0335
666,0.0328
667,0.0326
668,0.0325
669,0.0334
670,0.0328
671,0.0335
672,0.0332
673,0.0325
674,0.0324
675,0.0332
676,0.0324
677,0.0318
678,0.0320
679,0.0320
680,0.0313
681,0.0317
682,0.0319
683,0.0330
684,0.0318
685,0.0313
686,0.0329
687,0.0320
688,0.0319
689,0.0329
690,0.0326
691,0.0331
692,0.0324
693,0.0321
694,0.0327
695,0.0321
696,0.0325
697,0.0326
698,0.0325
699,0.0330
700,0.0330
701,0.0324
702,0.0331
703,0.0326
704,0.0312
705,0.0317
706,0.0319
707,0.0316
708,0.0322
709,0.0324
710,0.0321
711,0.0325
712,0.0311
713,0.0309
714,0.0313
715,0.0320
716,0.0310
717,0.0317
718,0.0299
719,0.0305
720,0.0303
721,0.0289
722,0.0286
723,0.0294
724,0.0285
725,0.0290
726,0.0286
727,0.0286
728,0.0278
729,0.0279
730,0.0284
731,0.0280
732,0.0286
733,0.0279
734,0.0284
735,0.0284
736,0.0278
737,0.0280
738,0.0276
739,0.0277
740,0.0268
741,0.0273
742,0.0277
743,0.0275
744,0.0279
745,0.0265
746,0.0269
747,0.0269
748,0.0283
749,0.0269
750,0.0265
751,0.0272
752,0.0272
753,0.0277
754,0.0282
755,0.0272
756,0.0288
757,0.0283
758,0.0277
759,0.0281
760,0.0272
761,0.0283
762,0.0276
763,0.0281
764,0.0281
765,0.0269
766,0.0267
767,0.0260
768,0.0269
769,0.0273
770,0.0271
771,0.0272
772,0.0266
773,0.0266
774,0.0269
775,0.0264
776,0.0267
777,0.0274
778,0.0268
779,0.0273
780,0.0260
781,0.0275
782,0.0267
783,0.0269
784,0.0258
785,0.0266
786,0.0255
787,0.0268
788,0.0267
789,0.0258
790,0.0270
791,0.0254
792,0.0260
793,0.0255
794,0.0265
795,0.0264
796,0.0264
797,0.0268
798,0.0257
799,0.0272
800,0.0262
801,0.0267
802,0.0267
803,0.0281
804,0.0264
805,0.0274
806,0.0270
807,0.0283
808,0.0289
809,0.0282
810,0.0305
811,0.0290
812,0.0283
813,0.0280
814,0.0284
815,0.0289
816,0.0300
817,0.0298
818,0.0298
819,0.0297
820,0.0311
821,0.0307
822,0.0299
823,0.0281
824,0.0289
825,0.0293
826,0.0287
827,0.0282
828,0.0287
829,0.0281
830,0.0275
831,0.0273
832,0.0264
833,0.0265
834,0.0255
835,0.0264
836,0.0265
837,0.0258
838,0.0250
839,0.0252
840,0.0237
841,0.0253
842,0.0252
843,0.0230
844,0.0250
845,0.0232
846,0.0233
847,0.0239
848,0.0247
849,0.0233
850,0.0233
851,0.0245
852,0.0228
853,0.0233
854,0.0255
855,0.0226
856,0.0224
857,0.0246
858,0.0244
859,0.0217
860,0.0232
861,0.0225
862,0.0225
863,0.0248
864,0.0216
865,0.0227
866,0.0223
867,0.0209
868,0.0214
869,0.0215
870,0.0215
871,0.0216
872,0.0228
873,0.0212
874,0.0200
875,0.0211
876,0.0218
877,0.0239
878,0.0199
879,0.0213
880,0.0222
881,0.0211
882,0.0234
883,0.0225
884,0.0218
885,0.0246
886,0.0235
887,0.0244
888,0.0229
889,0.0239
890,0.0259
891,0.0240
892,0.0252
893,0.0262
894,0.0274
895,0.0259
896,0.0261
897,0.0273
898,0.0264
899,0.0250
900,0.0288
901,0.0280
902,0.0281
903,0.0279
904,0.0294
905,0.0287
906,0.0275
907,0.0302
908,0.0325
909,0.0287
910,0.0291
911,0.0285
912,0.0275
913,0.0236
914,0.0269
915,0.0257
916,0.0282
917,0.0256
918,0.0225
919,0.0225
920,0.0251
921,0.0200
922,0.0211
923,0.0210
924,0.0203
925,0.0202
926,0.0203
927,0.0178
928,0.0170
929,0.0188
930,0.0174
931,0.0146
932,0.0150
933,0.0142
934,0.0145
935,0.0123
936,0.0100
937,0.0081
938,0.0089
939,0.0066
940,0.0054
941,0.0057
942,0.0052
943,0.0041
944,0.0051
945,0.0045
946,0.0042
947,0.0054
