382,NaN
383,0.0250
384,0.8264
385,0.3972
386,0.0000
387,0.1778
388,0.3167
389,0.0000
390,0.1545
391,0.1519
392,0.2647
393,0.0140
394,0.0375
395,0.0000
396,0.1612
397,0.0000
398,0.0186
399,0.0679
400,0.0917
401,0.2223
402,0.0108
403,0.1394
404,0.0859
405,0.0918
406,0.1304
407,0.0815
408,0.0662
409,0.0846
410,0.1842
411,0.0953
412,0.1805
413,0.0374
414,0.0296
415,0.0530
416,0.0800
417,0.0913
418,0.0271
419,0.0674
420,0.0276
421,0.0396
422,0.0822
423,0.0547
424,0.0450
425,0.0082
426,0.0614
427,0.0253
428,0.0077
429,0.0658
430,0.0819
431,0.0845
432,0.0575
433,0.0179
434,0.0519
435,0.0553
436,0.0643
437,0.0754
438,0.0758
439,0.0451
440,0.1020
441,0.0598
442,0.0748
443,0.0941
444,0.0688
445,0.0608
446,0.0718
447,0.0644
448,0.0415
449,0.0603
450,0.0437
451,0.0381
452,0.0512
453,0.0779
454,0.0551
455,0.0688
456,0.0565
457,0.0565
458,0.0551
459,0.0470
460,0.0604
461,0.0631
462,0.0449
463,0.0683
464,0.0589
465,0.0455
466,0.0576
467,0.0545
468,0.0703
469,0.0685
470,0.0636
471,0.0531
472,0.0684
473,0.0661
474,0.0556
475,0.0671
476,0.0638
477,0.0843
478,0.0746
479,0.0807
480,0.0703
481,0.0740
482,0.0657
483,0.0696
484,0.0743
485,0.0896
486,0.0758
487,0.0816
488,0.0811
489,0.0773
490,0.0771
491,0.0850
492,0.0764
493,0.0880
494,0.0811
495,0.0785
496,0.0820
497,0.0719
498,0.0790
499,0.0730
500,0.0804
501,0.0746
502,0.0738
503,0.0698
504,0.0659
505,0.0662
506,0.0698
507,0.0693
508,0.0622
509,0.0638
510,0.0616
511,0.0561
512,0.0570
513,0.0564
514,0.0550
515,0.0525
516,0.0530
517,0.0501
518,0.0476
519,0.0472
520,0.0468
521,0.0441
522,0.0453
523,0.0434
524,0.0444
525,0.0421
526,0.0427
527,0.0416
528,0.0410
529,0.0443
530,0.0419
531,0.0415
532,0.0418
533,0.0405
534,0.0421
535,0.0401
536,0.0416
537,0.0419
538,0.0411
539,0.0393
540,0.0403
541,0.0400
542,0.0393
543,0.0398
544,0.0389
545,0.0406
546,0.0425
547,0.0402
548,0.0409
549,0.0388
550,0.0399
551,0.0388
552,0.0401
553,0.0398
554,0.0400
555,0.0409
556,0.0389
557,0.0389
558,0.0411
559,0.0404
560,0.0386
561,0.0394
562,0.0395
563,0.0396
564,0.0393
565,0.0398
566,0.0383
567,0.0394
568,0.0405
569,0.0394
570,0.0404
571,0.0412
572,0.0398
573,0.0391
574,0.0407
575,0.0396
576,0.0412
577,0.0401
578,0.0382
579,0.0405
580,0.0397
581,0.0385
582,0.0396
583,0.0378
584,0.0390
585,0.0385
586,0.0387
587,0.0380
588,0.0381
589,0.0385
590,0.0379
591,0.0383
592,0.0380
593,0.0376
594,0.0372
595,0.0372
596,0.0362
597,0.0373
598,0.0368
599,0.0383
600,0.0367
601,0.0366
602,0.0360
603,0.0368
604,0.0369
605,0.0368
606,0.0351
607,0.0362
608,0.0357
609,0.0365
610,0.0364
611,0.0363
612,0.0369
613,0.0365
614,0.0364
615,0.0372
616,0.0367
617,0.0356
618,0.0362
619,0.0364
620,0.0371
621,0.0359
622,0.0378
623,0.0374
624,0.0371
625,0.0369
626,0.0362
627,0.0371
628,0.0361
629,0.0371
630,0.0372
631,0.0361
632,0.0357
633,0.0361
634,0.0355
635,0.0358
636,0.0347
637,0.0356
638,0.0357
639,0.0355
640,0.0372
641,0.0367
642,0.0353
643,0.0358
644,0.0357
645,0.0351
646,0.0355
647,0.0351
648,0.0345
649,0.0343
650,0.0352
651,0.0347
652,0.0343
653,0.0340
654,0.0338
655,0.0340
656,0.0338
657,0.0333
658,0.0341
659,0.0337
660,0.0333
661,0.0330
662,0.0330
663,0.0331
664,0.0327
665,0.0333
666,0.0316
667,0.0334
668,0.0329
669,0.0339
670,0.0341
671,0.0330
672,0.0315
673,0.0329
674,0.0317
675,0.0328
676,0.0332
677,0.0321
678,0.0327
679,0.0312
680,0.0329
681,0.0320
682,0.0319
683,0.0329
684,0.0328
685,0.0319
686,0.0314
687,0.0315
688,0.0328
689,0.0328
690,0.0316
691,0.0326
692,0.0332
693,0.0328
694,0.0327
695,0.0325
696,0.0324
697,0.0325
698,0.0325
699,0.0329
700,0.0322
701,0.0329
702,0.0327
703,0.0327
704,0.0308
705,0.0317
706,0.0325
707,0.0305
708,0.0316
709,0.0327
710,0.0318
711,0.0329
712,0.0311
713,0.0311
714,0.0315
715,0.0316
716,0.0313
717,0.0314
718,0.0307
719,0.0302
720,0.0300
721,0.0301
722,0.0287
723,0.0291
724,0.0285
725,0.0286
726,0.0282
727,0.0284
728,0.0276
729,0.0284
730,0.0269
731,0.0281
732,0.0282
733,0.0275
734,0.0274
735,0.0278
736,0.0274
737,0.0278
738,0.0284
739,0.0281
740,0.0266
741,0.0274
742,0.0271
743,0.0268
744,0.0270
745,0.0267
746,0.0260
747,0.0268
748,0.0276
749,0.0268
750,0.0268
751,0.0273
752,0.0272
753,0.0286
754,0.0272
755,0.0274
756,0.0277
757,0.0284
758,0.0275
759,0.0266
760,0.0276
761,0.0273
762,0.0279
763,0.0283
764,0.0282
765,0.0277
766,0.0267
767,0.0265
768,0.0276
769,0.0280
770,0.0262
771,0.0278
772,0.0262
773,0.0263
774,0.0274
775,0.0267
776,0.0272
777,0.0268
778,0.0264
779,0.0271
780,0.0260
781,0.0264
782,0.0267
783,0.0270
784,0.0266
785,0.0261
786,0.0273
787,0.0261
788,0.0274
789,0.0263
790,0.0263
791,0.0248
792,0.0256
793,0.0269
794,0.0257
795,0.0254
796,0.0260
797,0.0268
798,0.0261
799,0.0264
800,0.0271
801,0.0260
802,0.0262
803,0.0285
804,0.0271
805,0.0273
806,0.0270
807,0.0279
808,0.0299
809,0.0283
810,0.0297
811,0.0289
812,0.0288
813,0.0283
814,0.0277
815,0.0284
816,0.0302
817,0.0289
818,0.0284
819,0.0315
820,0.0305
821,0.0301
822,0.0303
823,0.0304
824,0.0284
825,0.0294
826,0.0296
827,0.0286
828,0.0277
829,0.0275
830,0.0289
831,0.0287
832,0.0284
833,0.0267
834,0.0266
835,0.0274
836,0.0253
837,0.0264
838,0.0264
839,0.0251
840,0.0249
841,0.0245
842,0.0254
843,0.0248
844,0.0256
845,0.0246
846,0.0240
847,0.0239
848,0.0238
849,0.0230
850,0.0236
851,0.0242
852,0.0222
853,0.0240
854,0.0246
855,0.0241
856,0.0223
857,0.0231
858,0.0233
859,0.0231
860,0.0232
861,0.0233
862,0.0229
863,0.0255
864,0.0219
865,0.0217
866,0.0231
867,0.0228
868,0.0216
869,0.0219
870,0.0216
871,0.0217
872,0.0221
873,0.0212
874,0.0208
875,0.0212
876,0.0223
877,0.0216
878,0.0215
879,0.0230
880,0.0227
881,0.0207
882,0.0215
883,0.0229
884,0.0223
885,0.0222
886,0.0244
887,0.0238
888,0.0239
889,0.0237
890,0.0251
891,0.0245
892,0.0230
893,0.0256
894,0.0273
895,0.0265
896,0.0275
897,0.0268
898,0.0275
899,0.0272
900,0.0289
901,0.0280
902,0.0264
903,0.0267
904,0.0293
905,0.0288
906,0.0282
907,0.0302
908,0.0319
909,0.0296
910,0.0291
911,0.0271
912,0.0304
913,0.0269
914,0.0261
915,0.0271
916,0.0276
917,0.0245
918,0.0255
919,0.0256
920,0.0272
921,0.0224
922,0.0218
923,0.0198
924,0.0230
925,0.0199
926,0.0179
927,0.0185
928,0.0161
929,0.0178
930,0.0181
931,0.0163
932,0.0163
933,0.0118
934,0.0144
935,0.0121
936,0.0088
937,0.0077
938,0.0102
939,0.0081
940,0.0087
941,0.0058
942,0.0038
943,0.0051
944,0.0058
945,0.0067
946,0.0053
947,0.0081
