382,NaN
383,1.0000
384,1.0000
385,1.0000
386,0.0000
387,0.1508
388,0.1389
389,0.1294
390,0.0000
391,0.1660
392,0.1651
393,0.1482
394,0.0000
395,0.0470
396,0.2524
397,0.0000
398,0.0067
399,0.0000
400,0.0464
401,0.3776
402,0.0000
403,0.0843
404,0.0121
405,0.0094
406,0.1096
407,0.0912
408,0.0486
409,0.0716
410,0.0720
411,0.1449
412,0.1248
413,0.0601
414,0.0682
415,0.0294
416,0.0270
417,0.0404
418,0.0272
419,0.0456
420,0.0593
421,0.0651
422,0.0472
423,0.0363
424,0.0454
425,0.0439
426,0.1123
427,0.0219
428,0.0757
429,0.0371
430,0.1002
431,0.0792
432,0.0571
433,0.0401
434,0.0674
435,0.0552
436,0.0770
437,0.0909
438,0.0787
439,0.0762
440,0.0556
441,0.1071
442,0.0645
443,0.0972
444,0.0736
445,0.0589
446,0.0686
447,0.0603
448,0.0580
449,0.0486
450,0.0629
451,0.0503
452,0.0504
453,0.0758
454,0.0568
455,0.0716
456,0.0639
457,0.0564
458,0.0519
459,0.0573
460,0.0687
461,0.0670
462,0.0637
463,0.0652
464,0.0585
465,0.0398
466,0.0622
467,0.0660
468,0.0609
469,0.0732
470,0.0620
471,0.0551
472,0.0598
473,0.0690
474,0.0635
475,0.0607
476,0.0742
477,0.0819
478,0.0773
479,0.0781
480,0.0749
481,0.0754
482,0.0729
483,0.0767
484,0.0768
485,0.0754
486,0.0739
487,0.0836
488,0.0752
489,0.0771
490,0.0805
491,0.0848
492,0.0769
493,0.0887
494,0.0791
495,0.0793
496,0.0791
497,0.0751
498,0.0753
499,0.0767
500,0.0802
501,0.0779
502,0.0781
503,0.0621
504,0.0690
505,0.0655
506,0.0705
507,0.0695
508,0.0623
509,0.0640
510,0.0631
511,0.0567
512,0.0593
513,0.0581
514,0.0562
515,0.0528
516,0.0525
517,0.0539
518,0.0499
519,0.0484
520,0.0471
521,0.0468
522,0.0432
523,0.0437
524,0.0458
525,0.0420
526,0.0417
527,0.0438
528,0.0425
529,0.0415
530,0.0429
531,0.0406
532,0.0446
533,0.0406
534,0.0423
535,0.0409
536,0.0400
537,0.0401
538,0.0395
539,0.0401
540,0.0420
541,0.0412
542,0.0395
543,0.0392
544,0.0405
545,0.0402
546,0.0403
547,0.0417
548,0.0398
549,0.0388
550,0.0396
551,0.0392
552,0.0398
553,0.0386
554,0.0399
555,0.0387
556,0.0395
557,0.0402
558,0.0400
559,0.0397
560,0.0390
561,0.0401
562,0.0407
563,0.0397
564,0.0406
565,0.0407
566,0.0388
567,0.0399
568,0.0412
569,0.0397
570,0.0407
571,0.0405
572,0.0405
573,0.0395
574,0.0402
575,0.0397
576,0.0409
577,0.0407
578,0.0390
579,0.0415
580,0.0403
581,0.0395
582,0.0399
583,0.0375
584,0.0392
585,0.0388
586,0.0379
587,0.0388
588,0.0379
589,0.0391
590,0.0379
591,0.0374
592,0.0382
593,0.0381
594,0.0377
595,0.0367
596,0.0362
597,0.0369
598,0.0356
599,0.0369
600,0.0367
601,0.0364
602,0.0367
603,0.0361
604,0.0368
605,0.0367
606,0.0363
607,0.0376
608,0.0367
609,0.0361
610,0.0353
611,0.0362
612,0.0376
613,0.0363
614,0.0362
615,0.0367
616,0.0350
617,0.0360
618,0.0368
619,0.0369
620,0.0360
621,0.0366
622,0.0367
623,0.0375
624,0.0371
625,0.0364
626,0.0373
627,0.0361
628,0.0364
629,0.0374
630,0.0365
631,0.0377
632,0.0361
633,0.0359
634,0.0363
635,0.0355
636,0.0366
637,0.0357
638,0.0352
639,0.0357
640,0.0365
641,0.0363
642,0.0358
643,0.0349
644,0.0354
645,0.0351
646,0.0366
647,0.0346
648,0.0351
649,0.0353
650,0.0349
651,0.0350
652,0.0345
653,0.0343
654,0.0345
655,0.0345
656,0.0343
657,0.0342
658,0.0338
659,0.0324
660,0.0341
661,0.0331
662,0.0329
663,0.0338
664,0.0326
665,0.0329
666,0.0323
667,0.0331
668,0.0326
669,0.0332
670,0.0331
671,0.0333
672,0.0322
673,0.0324
674,0.0312
675,0.0334
676,0.0325
677,0.0324
678,0.0328
679,0.0314
680,0.0328
681,0.0323
682,0.0322
683,0.0320
684,0.0326
685,0.0321
686,0.0325
687,0.0318
688,0.0317
689,0.0324
690,0.0330
691,0.0322
692,0.0328
693,0.0322
694,0.0326
695,0.0327
696,0.0329
697,0.0329
698,0.0318
699,0.0322
700,0.0330
701,0.0318
702,0.0316
703,0.0327
704,0.0318
705,0.0313
706,0.0316
707,0.0312
708,0.0323
709,0.0327
710,0.0307
711,0.0329
712,0.0314
713,0.0312
714,0.0313
715,0.0312
716,0.0315
717,0.0313
718,0.0309
719,0.0300
720,0.0303
721,0.0282
722,0.0285
723,0.0291
724,0.0285
725,0.0285
726,0.0281
727,0.0285
728,0.0275
729,0.0281
730,0.0277
731,0.0276
732,0.0288
733,0.0271
734,0.0276
735,0.0279
736,0.0281
737,0.0277
738,0.0285
739,0.0271
740,0.0265
741,0.0275
742,0.0267
743,0.0263
744,0.0267
745,0.0265
746,0.0277
747,0.0273
748,0.0275
749,0.0259
750,0.0261
751,0.0278
752,0.0274
753,0.0277
754,0.0272
755,0.0288
756,0.0275
757,0.0269
758,0.0277
759,0.0279
760,0.0290
761,0.0277
762,0.0277
763,0.0282
764,0.0284
765,0.0283
766,0.0268
767,0.0266
768,0.0270
769,0.0265
770,0.0277
771,0.0270
772,0.0275
773,0.0267
774,0.0265
775,0.0264
776,0.0269
777,0.0265
778,0.0267
779,0.0273
780,0.0265
781,0.0267
782,0.0277
783,0.0266
784,0.0264
785,0.0268
786,0.0268
787,0.0264
788,0.0271
789,0.0265
790,0.0257
791,0.0256
792,0.0273
793,0.0268
794,0.0259
795,0.0269
796,0.0254
797,0.0259
798,0.0262
799,0.0271
800,0.0264
801,0.0259
802,0.0273
803,0.0287
804,0.0271
805,0.0279
806,0.0270
807,0.0285
808,0.0289
809,0.0284
810,0.0287
811,0.0288
812,0.0275
813,0.0308
814,0.0290
815,0.0280
816,0.0293
817,0.0295
818,0.0288
819,0.0300
820,0.0306
821,0.0301
822,0.0298
823,0.0303
824,0.0281
825,0.0292
826,0.0298
827,0.0274
828,0.0267
829,0.0282
830,0.0285
831,0.0287
832,0.0281
833,0.0271
834,0.0258
835,0.0280
836,0.0258
837,0.0263
838,0.0261
839,0.0251
840,0.0254
841,0.0247
842,0.0242
843,0.0238
844,0.0244
845,0.0246
846,0.0229
847,0.0229
848,0.0232
849,0.0240
850,0.0232
851,0.0240
852,0.0234
853,0.0229
854,0.0254
855,0.0227
856,0.0226
857,0.0241
858,0.0228
859,0.0217
860,0.0222
861,0.0230
862,0.0223
863,0.0234
864,0.0232
865,0.0216
866,0.0228
867,0.0223
868,0.0221
869,0.0214
870,0.0225
871,0.0221
872,0.0230
873,0.0219
874,0.0215
875,0.0224
876,0.0217
877,0.0213
878,0.0209
879,0.0228
880,0.0227
881,0.0211
882,0.0220
883,0.0238
884,0.0226
885,0.0221
886,0.0223
887,0.0234
888,0.0234
889,0.0246
890,0.0256
891,0.0235
892,0.0247
893,0.0270
894,0.0270
895,0.0270
896,0.0264
897,0.0270
898,0.0278
899,0.0251
900,0.0273
901,0.0276
902,0.0286
903,0.0283
904,0.0297
905,0.0265
906,0.0278
907,0.0316
908,0.0286
909,0.0297
910,0.0290
911,0.0284
912,0.0293
913,0.0271
914,0.0263
915,0.0271
916,0.0288
917,0.0259
918,0.0258
919,0.0230
920,0.0254
921,0.0209
922,0.0231
923,0.0241
924,0.0218
925,0.0196
926,0.0214
927,0.0184
928,0.0185
929,0.0202
930,0.0187
931,0.0165
932,0.0156
933,0.0118
934,0.0150
935,0.0134
936,0.0097
937,0.0089
938,0.0078
939,0.0081
940,0.0076
941,0.0061
942,0.0084
943,0.0043
944,0.0050
945,0.0024
946,0.0072
947,0.0068
