382,NaN
383,1.0000
384,0.0000
385,1.0000
386,0.0000
387,0.2340
388,0.2119
389,0.1547
390,0.0985
391,0.0684
392,0.2725
393,0.0993
394,0.0000
395,0.0000
396,0.0426
397,0.0117
398,0.1040
399,0.0594
400,0.1331
401,0.2310
402,0.0000
403,0.0360
404,0.2196
405,0.0000
406,0.0175
407,0.0000
408,0.1280
409,0.0000
410,0.1028
411,0.1273
412,0.1285
413,0.0997
414,0.0854
415,0.0914
416,0.0343
417,0.0739
418,0.0645
419,0.1102
420,0.0629
421,0.0735
422,0.0015
423,0.0324
424,0.0351
425,0.0332
426,0.0878
427,0.0220
428,0.0390
429,0.0403
430,0.0671
431,0.0704
432,0.0208
433,0.0530
434,0.0639
435,0.0495
436,0.0547
437,0.0897
438,0.0503
439,0.0327
440,0.0568
441,0.0753
442,0.0562
443,0.0716
444,0.0389
445,0.0591
446,0.0483
447,0.0757
448,0.0501
449,0.0637
450,0.0698
451,0.0347
452,0.0290
453,0.0843
454,0.0540
455,0.0562
456,0.0498
457,0.0604
458,0.0514
459,0.0594
460,0.0621
461,0.0709
462,0.0617
463,0.0642
464,0.0444
465,0.0541
466,0.0520
467,0.0528
468,0.0785
469,0.0614
470,0.0617
471,0.0526
472,0.0687
473,0.0726
474,0.0663
475,0.0685
476,0.0733
477,0.0756
478,0.0772
479,0.0810
480,0.0764
481,0.0770
482,0.0750
483,0.0742
484,0.0729
485,0.0842
486,0.0722
487,0.0856
488,0.0683
489,0.0782
490,0.0854
491,0.0756
492,0.0769
493,0.0871
494,0.0819
495,0.0845
496,0.0824
497,0.0751
498,0.0824
499,0.0736
500,0.0775
501,0.0733
502,0.0700
503,0.0649
504,0.0707
505,0.0627
506,0.0687
507,0.0671
508,0.0631
509,0.0627
510,0.0606
511,0.0539
512,0.0566
513,0.0559
514,0.0579
515,0.0511
516,0.0515
517,0.0525
518,0.0467
519,0.0477
520,0.0491
521,0.0440
522,0.0439
523,0.0440
524,0.0469
525,0.0430
526,0.0445
527,0.0455
528,0.0426
529,0.0404
530,0.0393
531,0.0400
532,0.0434
533,0.0391
534,0.0411
535,0.0407
536,0.0420
537,0.0399
538,0.0396
539,0.0389
540,0.0409
541,0.0404
542,0.0397
543,0.0405
544,0.0395
545,0.0391
546,0.0414
547,0.0382
548,0.0400
549,0.0393
550,0.0387
551,0.0387
552,0.0395
553,0.0399
554,0.0399
555,0.0402
556,0.0392
557,0.0393
558,0.0404
559,0.0392
560,0.0406
561,0.0404
562,0.0402
563,0.0402
564,0.0406
565,0.0407
566,0.0388
567,0.0411
568,0.0407
569,0.0407
570,0.0404
571,0.0409
572,0.0415
573,0.0405
574,0.0400
575,0.0404
576,0.0403
577,0.0401
578,0.0392
579,0.0402
580,0.0412
581,0.0396
582,0.0392
583,0.0383
584,0.0378
585,0.0384
586,0.0378
587,0.0378
588,0.0378
589,0.0379
590,0.0389
591,0.0373
592,0.0379
593,0.0374
594,0.0375
595,0.0366
596,0.0370
597,0.0364
598,0.0360
599,0.0368
600,0.0365
601,0.0360
602,0.0371
603,0.0364
604,0.0357
605,0.0359
606,0.0357
607,0.0373
608,0.0374
609,0.0363
610,0.0358
611,0.0367
612,0.0363
613,0.0357
614,0.0367
615,0.0370
616,0.0363
617,0.0349
618,0.0356
619,0.0366
620,0.0362
621,0.0363
622,0.0370
623,0.0370
624,0.0371
625,0.0356
626,0.0362
627,0.0367
628,0.0371
629,0.0374
630,0.0370
631,0.0368
632,0.0363
633,0.0364
634,0.0359
635,0.0359
636,0.0353
637,0.0358
638,0.0351
639,0.0355
640,0.0363
641,0.0367
642,0.0359
643,0.0354
644,0.0347
645,0.0359
646,0.0353
647,0.0346
648,0.0355
649,0.0346
650,0.0342
651,0.0345
652,0.0340
653,0.0346
654,0.0344
655,0.0339
656,0.0338
657,0.0332
658,0.0331
659,0.0330
660,0.0337
661,0.0329
662,0.0334
663,0.0343
664,0.0331
665,0.0335
666,0.0328
667,0.0331
668,0.0330
669,0.0327
670,0.0335
671,0.0324
672,0.0325
673,0.0323
674,0.0319
675,0.0333
676,0.0332
677,0.0323
678,0.0326
679,0.0318
680,0.0329
681,0.0319
682,0.0320
683,0.0318
684,0.0330
685,0.0314
686,0.0323
687,0.0312
688,0.0330
689,0.0328
690,0.0328
691,0.0325
692,0.0319
693,0.0326
694,0.0324
695,0.0328
696,0.0326
697,0.0326
698,0.0331
699,0.0325
700,0.0334
701,0.0326
702,0.0325
703,0.0324
704,0.0312
705,0.0317
706,0.0314
707,0.0321
708,0.0307
709,0.0325
710,0.0312
711,0.0325
712,0.0311
713,0.0316
714,0.0305
715,0.0321
716,0.0312
717,0.0310
718,0.0308
719,0.0301
720,0.0304
721,0.0285
722,0.0292
723,0.0294
724,0.0290
725,0.0293
726,0.0289
727,0.0290
728,0.0287
729,0.0282
730,0.0278
731,0.0270
732,0.0278
733,0.0281
734,0.0286
735,0.0271
736,0.0272
737,0.0267
738,0.0274
739,0.0278
740,0.0268
741,0.0273
742,0.0269
743,0.0261
744,0.0276
745,0.0275
746,0.0267
747,0.0275
748,0.0270
749,0.0264
750,0.0267
751,0.0280
752,0.0275
753,0.0271
754,0.0284
755,0.0272
756,0.0280
757,0.0280
758,0.0271
759,0.0277
760,0.0280
761,0.0284
762,0.0280
763,0.0286
764,0.0280
765,0.0281
766,0.0269
767,0.0277
768,0.0270
769,0.0270
770,0.0267
771,0.0269
772,0.0259
773,0.0261
774,0.0281
775,0.0263
776,0.0272
777,0.0268
778,0.0269
779,0.0276
780,0.0271
781,0.0267
782,0.0260
783,0.0270
784,0.0264
785,0.0257
786,0.0267
787,0.0262
788,0.0270
789,0.0263
790,0.0258
791,0.0255
792,0.0259
793,0.0255
794,0.0264
795,0.0263
796,0.0260
797,0.0277
798,0.0253
799,0.0267
800,0.0268
801,0.0270
802,0.0267
803,0.0269
804,0.0271
805,0.0267
806,0.0276
807,0.0286
808,0.0291
809,0.0287
810,0.0291
811,0.0283
812,0.0280
813,0.0287
814,0.0274
815,0.0298
816,0.0290
817,0.0295
818,0.0294
819,0.0287
820,0.0300
821,0.0304
822,0.0288
823,0.0284
824,0.0289
825,0.0295
826,0.0284
827,0.0281
828,0.0278
829,0.0275
830,0.0276
831,0.0280
832,0.0273
833,0.0267
834,0.0261
835,0.0266
836,0.0269
837,0.0259
838,0.0252
839,0.0257
840,0.0235
841,0.0252
842,0.0246
843,0.0238
844,0.0239
845,0.0237
846,0.0237
847,0.0218
848,0.0243
849,0.0232
850,0.0233
851,0.0248
852,0.0235
853,0.0234
854,0.0235
855,0.0239
856,0.0233
857,0.0240
858,0.0237
859,0.0214
860,0.0214
861,0.0228
862,0.0233
863,0.0239
864,0.0234
865,0.0229
866,0.0236
867,0.0242
868,0.0223
869,0.0212
870,0.0216
871,0.0225
872,0.0221
873,0.0228
874,0.0201
875,0.0210
876,0.0208
877,0.0228
878,0.0222
879,0.0216
880,0.0216
881,0.0205
882,0.0226
883,0.0228
884,0.0221
885,0.0224
886,0.0243
887,0.0239
888,0.0232
889,0.0255
890,0.0258
891,0.0224
892,0.0247
893,0.0263
894,0.0274
895,0.0272
896,0.0264
897,0.0257
898,0.0258
899,0.0264
900,0.0286
901,0.0296
902,0.0261
903,0.0290
904,0.0296
905,0.0287
906,0.0276
907,0.0305
908,0.0312
909,0.0288
910,0.0300
911,0.0259
912,0.0284
913,0.0251
914,0.0285
915,0.0249
916,0.0285
917,0.0249
918,0.0246
919,0.0236
920,0.0263
921,0.0210
922,0.0208
923,0.0201
924,0.0203
925,0.0208
926,0.0192
927,0.0183
928,0.0176
929,0.0190
930,0.0169
931,0.0151
932,0.0156
933,0.0145
934,0.0160
935,0.0121
936,0.0098
937,0.0068
938,0.0082
939,0.0065
940,0.0070
941,0.0056
942,0.0054
943,0.0052
944,0.0055
945,0.0058
946,0.0046
947,0.0056
