382,NaN
383,1.0000
384,1.0000
385,1.0000
386,0.0000
387,0.1598
388,0.0735
389,0.0505
390,0.0000
391,0.0000
392,0.1783
393,0.0623
394,0.0000
395,0.0001
396,0.1109
397,0.0338
398,0.0000
399,0.1012
400,0.0516
401,0.1758
402,0.0000
403,0.0569
404,0.1092
405,0.0000
406,0.0966
407,0.0823
408,0.0502
409,0.0974
410,0.0745
411,0.1729
412,0.1049
413,0.0260
414,0.0508
415,0.0671
416,0.0363
417,0.0641
418,0.0461
419,0.0502
420,0.0414
421,0.0608
422,0.0654
423,0.0424
424,0.0355
425,0.0742
426,0.1330
427,0.0393
428,0.0552
429,0.0724
430,0.0959
431,0.0375
432,0.0474
433,0.0954
434,0.0578
435,0.0379
436,0.0669
437,0.0875
438,0.0766
439,0.0400
440,0.0537
441,0.0685
442,0.0665
443,0.0885
444,0.0676
445,0.0588
446,0.0520
447,0.0619
448,0.0555
449,0.0534
450,0.0624
451,0.0512
452,0.0607
453,0.0581
454,0.0577
455,0.0658
456,0.0484
457,0.0498
458,0.0548
459,0.0524
460,0.0583
461,0.0716
462,0.0656
463,0.0720
464,0.0490
465,0.0539
466,0.0555
467,0.0640
468,0.0692
469,0.0755
470,0.0667
471,0.0627
472,0.0725
473,0.0608
474,0.0588
475,0.0643
476,0.0687
477,0.0751
478,0.0689
479,0.0754
480,0.0701
481,0.0731
482,0.0696
483,0.0825
484,0.0737
485,0.0836
486,0.0829
487,0.0861
488,0.0764
489,0.0776
490,0.0797
491,0.0776
492,0.0775
493,0.0814
494,0.0803
495,0.0793
496,0.0785
497,0.0787
498,0.0820
499,0.0764
500,0.0787
501,0.0744
502,0.0716
503,0.0637
504,0.0692
505,0.0684
506,0.0700
507,0.0685
508,0.0641
509,0.0616
510,0.0591
511,0.0533
512,0.0532
513,0.0558
514,0.0532
515,0.0535
516,0.0524
517,0.0499
518,0.0467
519,0.0463
520,0.0489
521,0.0453
522,0.0439
523,0.0443
524,0.0431
525,0.0436
526,0.0443
527,0.0428
528,0.0442
529,0.0440
530,0.0411
531,0.0419
532,0.0414
533,0.0408
534,0.0429
535,0.0407
536,0.0413
537,0.0416
538,0.0404
539,0.0391
540,0.0410
541,0.0405
542,0.0396
543,0.0406
544,0.0388
545,0.0390
546,0.0419
547,0.0401
548,0.0411
549,0.0381
550,0.0397
551,0.0399
552,0.0404
553,0.0395
554,0.0406
555,0.0384
556,0.0396
557,0.0396
558,0.0396
559,0.0408
560,0.0386
561,0.0390
562,0.0403
563,0.0389
564,0.0391
565,0.0390
566,0.0387
567,0.0407
568,0.0416
569,0.0407
570,0.0416
571,0.0398
572,0.0402
573,0.0401
574,0.0401
575,0.0391
576,0.0413
577,0.0399
578,0.0397
579,0.0392
580,0.0410
581,0.0372
582,0.0393
583,0.0383
584,0.0383
585,0.0382
586,0.0384
587,0.0373
588,0.0380
589,0.0374
590,0.0377
591,0.0364
592,0.0373
593,0.0382
594,0.0377
595,0.0373
596,0.0368
597,0.0366
598,0.0368
599,0.0371
600,0.0359
601,0.0372
602,0.0371
603,0.0363
604,0.0363
605,0.0353
606,0.0353
607,0.0365
608,0.0354
609,0.0367
610,0.0361
611,0.0368
612,0.0363
613,0.0371
614,0.0357
615,0.0370
616,0.0358
617,0.0358
618,0.0367
619,0.0373
620,0.0365
621,0.0365
622,0.0368
623,0.0370
624,0.0383
625,0.0362
626,0.0369
627,0.0371
628,0.0372
629,0.0363
630,0.0373
631,0.0378
632,0.0357
633,0.0355
634,0.0357
635,0.0358
636,0.0359
637,0.0359
638,0.0363
639,0.0354
640,0.0352
641,0.0367
642,0.0360
643,0.0353
644,0.0357
645,0.0356
646,0.0354
647,0.0358
648,0.0355
649,0.0354
650,0.0345
651,0.0348
652,0.0345
653,0.0343
654,0.0329
655,0.0340
656,0.0338
657,0.0336
658,0.0330
659,0.0341
660,0.0328
661,0.0322
662,0.0324
663,0.0345
664,0.0328
665,0.0324
666,0.0324
667,0.0327
668,0.0330
669,0.0334
670,0.0324
671,0.0329
672,0.0331
673,0.0330
674,0.0313
675,0.0329
676,0.0329
677,0.0312
678,0.0322
679,0.0313
680,0.0323
681,0.0316
682,0.0321
683,0.0330
684,0.0318
685,0.0312
686,0.0320
687,0.0318
688,0.0323
689,0.0328
690,0.0322
691,0.0319
692,0.0327
693,0.0322
694,0.0324
695,0.0325
696,0.0321
697,0.0331
698,0.0312
699,0.0319
700,0.0322
701,0.0327
702,0.0328
703,0.0325
704,0.0312
705,0.0315
706,0.0317
707,0.0323
708,0.0320
709,0.0324
710,0.0313
711,0.0325
712,0.0315
713,0.0322
714,0.0319
715,0.0321
716,0.0308
717,0.0308
718,0.0308
719,0.0303
720,0.0304
721,0.0289
722,0.0284
723,0.0296
724,0.0289
725,0.0291
726,0.0287
727,0.0285
728,0.0266
729,0.0284
730,0.0284
731,0.0283
732,0.0286
733,0.0272
734,0.0279
735,0.0286
736,0.0275
737,0.0278
738,0.0275
739,0.0273
740,0.0270
741,0.0266
742,0.0266
743,0.0273
744,0.0274
745,0.0280
746,0.0268
747,0.0281
748,0.0279
749,0.0262
750,0.0269
751,0.0269
752,0.0274
753,0.0279
754,0.0271
755,0.0274
756,0.0267
757,0.0286
758,0.0274
759,0.0279
760,0.0275
761,0.0276
762,0.0275
763,0.0281
764,0.0282
765,0.0286
766,0.0269
767,0.0268
768,0.0272
769,0.0272
770,0.0261
771,0.0279
772,0.0263
773,0.0273
774,0.0268
775,0.0267
776,0.0267
777,0.0275
778,0.0261
779,0.0281
780,0.0260
781,0.0273
782,0.0274
783,0.0259
784,0.0265
785,0.0264
786,0.0267
787,0.0270
788,0.0266
789,0.0270
790,0.0260
791,0.0256
792,0.0262
793,0.0259
794,0.0246
795,0.0259
796,0.0257
797,0.0270
798,0.0260
799,0.0273
800,0.0277
801,0.0263
802,0.0271
803,0.0276
804,0.0272
805,0.0274
806,0.0271
807,0.0290
808,0.0284
809,0.0280
810,0.0294
811,0.0288
812,0.0283
813,0.0288
814,0.0282
815,0.0279
816,0.0288
817,0.0296
818,0.0301
819,0.0298
820,0.0306
821,0.0296
822,0.0290
823,0.0291
824,0.0273
825,0.0296
826,0.0281
827,0.0284
828,0.0268
829,0.0289
830,0.0278
831,0.0283
832,0.0270
833,0.0265
834,0.0252
835,0.0264
836,0.0264
837,0.0253
838,0.0246
839,0.0242
840,0.0242
841,0.0251
842,0.0251
843,0.0242
844,0.0248
845,0.0239
846,0.0234
847,0.0226
848,0.0230
849,0.0224
850,0.0233
851,0.0240
852,0.0227
853,0.0234
854,0.0239
855,0.0231
856,0.0227
857,0.0245
858,0.0226
859,0.0216
860,0.0219
861,0.0228
862,0.0227
863,0.0230
864,0.0223
865,0.0223
866,0.0228
867,0.0236
868,0.0223
869,0.0222
870,0.0221
871,0.0209
872,0.0211
873,0.0204
874,0.0213
875,0.0213
876,0.0211
877,0.0210
878,0.0205
879,0.0218
880,0.0225
881,0.0209
882,0.0218
883,0.0223
884,0.0214
885,0.0230
886,0.0234
887,0.0223
888,0.0214
889,0.0245
890,0.0256
891,0.0251
892,0.0253
893,0.0263
894,0.0257
895,0.0246
896,0.0267
897,0.0261
898,0.0267
899,0.0271
900,0.0285
901,0.0301
902,0.0258
903,0.0253
904,0.0285
905,0.0281
906,0.0273
907,0.0306
908,0.0312
909,0.0304
910,0.0284
911,0.0269
912,0.0293
913,0.0252
914,0.0275
915,0.0276
916,0.0261
917,0.0231
918,0.0246
919,0.0221
920,0.0241
921,0.0211
922,0.0216
923,0.0221
924,0.0229
925,0.0211
926,0.0195
927,0.0182
928,0.0185
929,0.0181
930,0.0185
931,0.0160
932,0.0162
933,0.0134
934,0.0147
935,0.0131
936,0.0099
937,0.0094
938,0.0115
939,0.0076
940,0.0072
941,0.0068
942,0.0065
943,0.0028
944,0.0035
945,0.0052
946,0.0045
947,0.0104
