382,NaN
383,0.8959
384,0.0000
385,1.0000
386,1.0000
387,0.2653
388,0.1051
389,0.0000
390,0.0000
391,0.0000
392,0.2100
393,0.2044
394,0.0578
395,0.0391
396,0.2218
397,0.0000
398,0.0919
399,0.0000
400,0.0902
401,0.1844
402,0.0039
403,0.0956
404,0.0266
405,0.1396
406,0.1371
407,0.1183
408,0.1344
409,0.0000
410,0.0800
411,0.1013
412,0.1273
413,0.1072
414,0.1169
415,0.0574
416,0.0012
417,0.0975
418,0.0242
419,0.0678
420,0.0652
421,0.0967
422,0.0049
423,0.0879
424,0.0565
425,0.0521
426,0.0707
427,0.0225
428,0.0675
429,0.0639
430,0.1119
431,0.0849
432,0.0520
433,0.0693
434,0.0558
435,0.0479
436,0.0729
437,0.0938
438,0.0503
439,0.0656
440,0.0799
441,0.0765
442,0.0669
443,0.1032
444,0.0345
445,0.0622
446,0.0537
447,0.0490
448,0.0541
449,0.0708
450,0.0496
451,0.0388
452,0.0317
453,0.0663
454,0.0721
455,0.0684
456,0.0501
457,0.0579
458,0.0600
459,0.0610
460,0.0605
461,0.0611
462,0.0441
463,0.0679
464,0.0491
465,0.0486
466,0.0540
467,0.0465
468,0.0674
469,0.0699
470,0.0541
471,0.0526
472,0.0719
473,0.0699
474,0.0671
475,0.0671
476,0.0722
477,0.0872
478,0.0671
479,0.0796
480,0.0770
481,0.0748
482,0.0723
483,0.0756
484,0.0736
485,0.0798
486,0.0703
487,0.0887
488,0.0740
489,0.0695
490,0.0889
491,0.0825
492,0.0783
493,0.0859
494,0.0743
495,0.0849
496,0.0843
497,0.0735
498,0.0790
499,0.0749
500,0.0787
501,0.0709
502,0.0704
503,0.0653
504,0.0651
505,0.0640
506,0.0672
507,0.0686
508,0.0613
509,0.0677
510,0.0663
511,0.0574
512,0.0616
513,0.0565
514,0.0529
515,0.0532
516,0.0500
517,0.0532
518,0.0451
519,0.0469
520,0.0466
521,0.0436
522,0.0445
523,0.0435
524,0.0461
525,0.0436
526,0.0428
527,0.0442
528,0.0426
529,0.0420
530,0.0415
531,0.0416
532,0.0419
533,0.0407
534,0.0422
535,0.0409
536,0.0415
537,0.0395
538,0.0411
539,0.0405
540,0.0401
541,0.0404
542,0.0404
543,0.0393
544,0.0394
545,0.0392
546,0.0412
547,0.0404
548,0.0402
549,0.0405
550,0.0397
551,0.0385
552,0.0402
553,0.0399
554,0.0397
555,0.0399
556,0.0393
557,0.0400
558,0.0396
559,0.0401
560,0.0405
561,0.0392
562,0.0413
563,0.0396
564,0.0394
565,0.0406
566,0.0405
567,0.0394
568,0.0400
569,0.0406
570,0.0406
571,0.0404
572,0.0406
573,0.0403
574,0.0408
575,0.0391
576,0.0402
577,0.0396
578,0.0388
579,0.0406
580,0.0403
581,0.0390
582,0.0398
583,0.0385
584,0.0388
585,0.0385
586,0.0380
587,0.0383
588,0.0381
589,0.0368
590,0.0374
591,0.0379
592,0.0372
593,0.0376
594,0.0375
595,0.0373
596,0.0373
597,0.0362
598,0.0367
599,0.0370
600,0.0360
601,0.0360
602,0.0359
603,0.0368
604,0.0367
605,0.0360
606,0.0356
607,0.0358
608,0.0372
609,0.0364
610,0.0354
611,0.0365
612,0.0366
613,0.0365
614,0.0360
615,0.0368
616,0.0361
617,0.0355
618,0.0353
619,0.0368
620,0.0357
621,0.0355
622,0.0373
623,0.0378
624,0.0369
625,0.0368
626,0.0359
627,0.0358
628,0.0376
629,0.0375
630,0.0377
631,0.0361
632,0.0357
633,0.0361
634,0.0359
635,0.0354
636,0.0355
637,0.0354
638,0.0358
639,0.0356
640,0.0360
641,0.0364
642,0.0355
643,0.0359
644,0.0352
645,0.0353
646,0.0358
647,0.0351
648,0.0357
649,0.0344
650,0.0341
651,0.0340
652,0.0352
653,0.0349
654,0.0336
655,0.0338
656,0.0338
657,0.0333
658,0.0339
659,0.0335
660,0.0329
661,0.0329
662,0.0332
663,0.0332
664,0.0332
665,0.0325
666,0.0328
667,0.0336
668,0.0329
669,0.0330
670,0.0329
671,0.0329
672,0.0333
673,0.0327
674,0.0322
675,0.0329
676,0.0328
677,0.0319
678,0.0320
679,0.0312
680,0.0321
681,0.0320
682,0.0322
683,0.0321
684,0.0320
685,0.0318
686,0.0316
687,0.0325
688,0.0332
689,0.0322
690,0.0323
691,0.0323
692,0.0324
693,0.0321
694,0.0330
695,0.0325
696,0.0324
697,0.0332
698,0.0328
699,0.0332
700,0.0325
701,0.0331
702,0.0323
703,0.0318
704,0.0322
705,0.0310
706,0.0317
707,0.0325
708,0.0323
709,0.0324
710,0.0316
711,0.0323
712,0.0316
713,0.0317
714,0.0313
715,0.0319
716,0.0317
717,0.0313
718,0.0308
719,0.0302
720,0.0302
721,0.0298
722,0.0287
723,0.0289
724,0.0296
725,0.0287
726,0.0284
727,0.0285
728,0.0280
729,0.0284
730,0.0284
731,0.0276
732,0.0279
733,0.0274
734,0.0277
735,0.0275
736,0.0273
737,0.0283
738,0.0279
739,0.0277
740,0.0269
741,0.0266
742,0.0271
743,0.0267
744,0.0274
745,0.0275
746,0.0278
747,0.0276
748,0.0277
749,0.0262
750,0.0272
751,0.0281
752,0.0271
753,0.0280
754,0.0282
755,0.0279
756,0.0270
757,0.0287
758,0.0272
759,0.0280
760,0.0274
761,0.0278
762,0.0277
763,0.0285
764,0.0275
765,0.0283
766,0.0275
767,0.0272
768,0.0272
769,0.0273
770,0.0257
771,0.0277
772,0.0262
773,0.0264
774,0.0261
775,0.0270
776,0.0266
777,0.0273
778,0.0268
779,0.0274
780,0.0268
781,0.0263
782,0.0260
783,0.0272
784,0.0268
785,0.0267
786,0.0261
787,0.0265
788,0.0272
789,0.0266
790,0.0254
791,0.0259
792,0.0272
793,0.0265
794,0.0260
795,0.0261
796,0.0254
797,0.0267
798,0.0266
799,0.0265
800,0.0274
801,0.0262
802,0.0275
803,0.0278
804,0.0281
805,0.0271
806,0.0271
807,0.0280
808,0.0290
809,0.0286
810,0.0306
811,0.0291
812,0.0285
813,0.0297
814,0.0294
815,0.0292
816,0.0289
817,0.0285
818,0.0292
819,0.0314
820,0.0314
821,0.0295
822,0.0302
823,0.0287
824,0.0290
825,0.0289
826,0.0281
827,0.0281
828,0.0278
829,0.0283
830,0.0291
831,0.0277
832,0.0269
833,0.0258
834,0.0268
835,0.0266
836,0.0257
837,0.0255
838,0.0250
839,0.0253
840,0.0244
841,0.0246
842,0.0262
843,0.0240
844,0.0241
845,0.0242
846,0.0230
847,0.0241
848,0.0243
849,0.0234
850,0.0231
851,0.0234
852,0.0240
853,0.0237
854,0.0245
855,0.0243
856,0.0224
857,0.0239
858,0.0223
859,0.0221
860,0.0227
861,0.0236
862,0.0227
863,0.0229
864,0.0221
865,0.0216
866,0.0243
867,0.0236
868,0.0225
869,0.0216
870,0.0220
871,0.0228
872,0.0213
873,0.0217
874,0.0206
875,0.0210
876,0.0213
877,0.0214
878,0.0208
879,0.0211
880,0.0211
881,0.0207
882,0.0224
883,0.0235
884,0.0215
885,0.0229
886,0.0235
887,0.0236
888,0.0223
889,0.0253
890,0.0267
891,0.0251
892,0.0259
893,0.0270
894,0.0267
895,0.0239
896,0.0270
897,0.0270
898,0.0263
899,0.0275
900,0.0281
901,0.0286
902,0.0275
903,0.0282
904,0.0298
905,0.0282
906,0.0287
907,0.0317
908,0.0292
909,0.0293
910,0.0294
911,0.0279
912,0.0294
913,0.0247
914,0.0262
915,0.0263
916,0.0273
917,0.0250
918,0.0246
919,0.0246
920,0.0270
921,0.0213
922,0.0230
923,0.0185
924,0.0210
925,0.0203
926,0.0190
927,0.0182
928,0.0164
929,0.0160
930,0.0186
931,0.0155
932,0.0158
933,0.0132
934,0.0154
935,0.0127
936,0.0101
937,0.0076
938,0.0085
939,0.0073
940,0.0076
941,0.0058
942,0.0050
943,0.0021
944,0.0057
945,0.0051
946,0.0036
947,0.0110
