382,NaN
383,1.0000
384,1.0000
385,1.0000
386,0.0000
387,0.3117
388,0.1590
389,0.1989
390,0.0659
391,0.0303
392,0.1550
393,0.1147
394,0.0000
395,0.1010
396,0.2477
397,0.0000
398,0.0209
399,0.0514
400,0.1274
401,0.2175
402,0.0000
403,0.1109
404,0.0498
405,0.1121
406,0.0972
407,0.1103
408,0.0375
409,0.0422
410,0.0647
411,0.0869
412,0.1092
413,0.0825
414,0.0232
415,0.0784
416,0.0882
417,0.0528
418,0.0277
419,0.0626
420,0.0496
421,0.0259
422,0.0008
423,0.0805
424,0.0022
425,0.0161
426,0.0865
427,0.0414
428,0.0361
429,0.0617
430,0.0669
431,0.0665
432,0.0501
433,0.0457
434,0.0526
435,0.0826
436,0.0521
437,0.0868
438,0.0528
439,0.0425
440,0.0595
441,0.0731
442,0.0599
443,0.0674
444,0.0748
445,0.0632
446,0.0674
447,0.0824
448,0.0382
449,0.0522
450,0.0530
451,0.0498
452,0.0412
453,0.0552
454,0.0632
455,0.0653
456,0.0639
457,0.0706
458,0.0625
459,0.0645
460,0.0609
461,0.0668
462,0.0528
463,0.0725
464,0.0508
465,0.0462
466,0.0654
467,0.0591
468,0.0745
469,0.0782
470,0.0582
471,0.0528
472,0.0675
473,0.0627
474,0.0678
475,0.0612
476,0.0614
477,0.0688
478,0.0786
479,0.0847
480,0.0796
481,0.0717
482,0.0781
483,0.0790
484,0.0802
485,0.0765
486,0.0729
487,0.0850
488,0.0798
489,0.0788
490,0.0862
491,0.0809
492,0.0662
493,0.0839
494,0.0757
495,0.0843
496,0.0809
497,0.0769
498,0.0788
499,0.0758
500,0.0798
501,0.0702
502,0.0750
503,0.0653
504,0.0699
505,0.0678
506,0.0661
507,0.0694
508,0.0657
509,0.0611
510,0.0605
511,0.0548
512,0.0559
513,0.0548
514,0.0533
515,0.0540
516,0.0525
517,0.0512
518,0.0485
519,0.0472
520,0.0488
521,0.0450
522,0.0441
523,0.0429
524,0.0443
525,0.0444
526,0.0453
527,0.0436
528,0.0431
529,0.0414
530,0.0412
531,0.0408
532,0.0434
533,0.0396
534,0.0410
535,0.0405
536,0.0408
537,0.0420
538,0.0398
539,0.0424
540,0.0400
541,0.0414
542,0.0401
543,0.0401
544,0.0409
545,0.0403
546,0.0405
547,0.0417
548,0.0405
549,0.0390
550,0.0393
551,0.0399
552,0.0410
553,0.0407
554,0.0400
555,0.0390
556,0.0402
557,0.0398
558,0.0391
559,0.0391
560,0.0404
561,0.0395
562,0.0414
563,0.0400
564,0.0401
565,0.0411
566,0.0392
567,0.0404
568,0.0406
569,0.0395
570,0.0415
571,0.0417
572,0.0409
573,0.0401
574,0.0398
575,0.0399
576,0.0403
577,0.0404
578,0.0385
579,0.0412
580,0.0403
581,0.0391
582,0.0387
583,0.0389
584,0.0396
585,0.0401
586,0.0387
587,0.0387
588,0.0382
589,0.0370
590,0.0380
591,0.0367
592,0.0372
593,0.0379
594,0.0385
595,0.0372
596,0.0365
597,0.0360
598,0.0369
599,0.0366
600,0.0366
601,0.0366
602,0.0372
603,0.0367
604,0.0375
605,0.0368
606,0.0370
607,0.0376
608,0.0371
609,0.0372
610,0.0361
611,0.0364
612,0.0364
613,0.0367
614,0.0364
615,0.0369
616,0.0364
617,0.0359
618,0.0361
619,0.0371
620,0.0353
621,0.0367
622,0.0369
623,0.0370
624,0.0367
625,0.0369
626,0.0373
627,0.0368
628,0.0377
629,0.0370
630,0.0372
631,0.0372
632,0.0363
633,0.0353
634,0.0357
635,0.0367
636,0.0362
637,0.0361
638,0.0350
639,0.0358
640,0.0360
641,0.0357
642,0.0359
643,0.0355
644,0.0356
645,0.0347
646,0.0353
647,0.0354
648,0.0351
649,0.0349
650,0.0348
651,0.0345
652,0.0346
653,0.0347
654,0.0339
655,0.0338
656,0.0333
657,0.0333
658,0.0334
659,0.0329
660,0.0331
661,0.0321
662,0.0338
663,0.0335
664,0.0325
665,0.0330
666,0.0324
667,0.0332
668,0.0326
669,0.0323
670,0.0325
671,0.0341
672,0.0324
673,0.0328
674,0.0320
675,0.0327
676,0.0327
677,0.0323
678,0.0324
679,0.0313
680,0.0315
681,0.0314
682,0.0317
683,0.0320
684,0.0329
685,0.0318
686,0.0329
687,0.0311
688,0.0319
689,0.0322
690,0.0326
691,0.0323
692,0.0321
693,0.0326
694,0.0322
695,0.0318
696,0.0322
697,0.0326
698,0.0322
699,0.0335
700,0.0332
701,0.0319
702,0.0325
703,0.0325
704,0.0318
705,0.0310
706,0.0320
707,0.0312
708,0.0319
709,0.0316
710,0.0324
711,0.0324
712,0.0316
713,0.0315
714,0.0318
715,0.0317
716,0.0318
717,0.0304
718,0.0304
719,0.0304
720,0.0297
721,0.0292
722,0.0292
723,0.0293
724,0.0289
725,0.0287
726,0.0284
727,0.0297
728,0.0281
729,0.0284
730,0.0275
731,0.0280
732,0.0287
733,0.0269
734,0.0277
735,0.0278
736,0.0274
737,0.0276
738,0.0277
739,0.0267
740,0.0272
741,0.0272
742,0.0272
743,0.0266
744,0.0271
745,0.0275
746,0.0274
747,0.0269
748,0.0274
749,0.0266
750,0.0258
751,0.0261
752,0.0274
753,0.0274
754,0.0285
755,0.0277
756,0.0270
757,0.0283
758,0.0270
759,0.0277
760,0.0286
761,0.0272
762,0.0275
763,0.0282
764,0.0271
765,0.0276
766,0.0271
767,0.0261
768,0.0271
769,0.0268
770,0.0271
771,0.0271
772,0.0264
773,0.0265
774,0.0277
775,0.0268
776,0.0267
777,0.0261
778,0.0264
779,0.0269
780,0.0265
781,0.0263
782,0.0267
783,0.0271
784,0.0255
785,0.0269
786,0.0266
787,0.0272
788,0.0264
789,0.0269
790,0.0263
791,0.0249
792,0.0259
793,0.0254
794,0.0265
795,0.0268
796,0.0256
797,0.0268
798,0.0263
799,0.0258
800,0.0278
801,0.0261
802,0.0262
803,0.0277
804,0.0283
805,0.0276
806,0.0284
807,0.0288
808,0.0281
809,0.0284
810,0.0299
811,0.0287
812,0.0280
813,0.0290
814,0.0276
815,0.0283
816,0.0290
817,0.0290
818,0.0298
819,0.0298
820,0.0303
821,0.0298
822,0.0307
823,0.0292
824,0.0292
825,0.0281
826,0.0280
827,0.0282
828,0.0282
829,0.0281
830,0.0285
831,0.0282
832,0.0276
833,0.0271
834,0.0269
835,0.0276
836,0.0266
837,0.0257
838,0.0263
839,0.0260
840,0.0246
841,0.0239
842,0.0244
843,0.0228
844,0.0256
845,0.0238
846,0.0245
847,0.0239
848,0.0232
849,0.0241
850,0.0227
851,0.0238
852,0.0229
853,0.0242
854,0.0246
855,0.0230
856,0.0232
857,0.0238
858,0.0221
859,0.0232
860,0.0226
861,0.0232
862,0.0239
863,0.0239
864,0.0213
865,0.0211
866,0.0239
867,0.0236
868,0.0218
869,0.0221
870,0.0220
871,0.0200
872,0.0228
873,0.0215
874,0.0219
875,0.0216
876,0.0217
877,0.0221
878,0.0222
879,0.0227
880,0.0231
881,0.0222
882,0.0228
883,0.0225
884,0.0217
885,0.0244
886,0.0226
887,0.0232
888,0.0232
889,0.0235
890,0.0265
891,0.0245
892,0.0251
893,0.0272
894,0.0269
895,0.0266
896,0.0257
897,0.0268
898,0.0270
899,0.0278
900,0.0282
901,0.0285
902,0.0274
903,0.0266
904,0.0303
905,0.0278
906,0.0287
907,0.0305
908,0.0295
909,0.0314
910,0.0314
911,0.0279
912,0.0310
913,0.0259
914,0.0262
915,0.0272
916,0.0287
917,0.0249
918,0.0238
919,0.0231
920,0.0284
921,0.0224
922,0.0226
923,0.0198
924,0.0241
925,0.0210
926,0.0201
927,0.0191
928,0.0189
929,0.0184
930,0.0182
931,0.0157
932,0.0144
933,0.0149
934,0.0141
935,0.0131
936,0.0098
937,0.0083
938,0.0079
939,0.0070
940,0.0081
941,0.0067
942,0.0061
943,0.0039
944,0.0043
945,0.0046
946,0.0037
947,0.0123
