399.985280,0.396825
400.329500,0.444444
400.673680,0.413333
401.017820,0.365854
401.361920,0.375000
401.705980,0.405405
402.050000,0.369048
402.393980,0.360465
402.737920,0.416667
403.081820,0.357143
403.425680,0.369048
403.769500,0.348837
404.113280,0.385542
404.457020,0.317647
404.800720,0.388889
405.144380,0.300000
405.488000,0.333333
405.831580,0.356322
406.175120,0.357143
406.518620,0.381443
406.862080,0.411111
407.205500,0.264706
407.548880,0.333333
407.892220,0.354167
408.235520,0.305263
408.578780,0.305263
408.922000,0.290323
409.265180,0.288889
409.608320,0.307692
409.951420,0.369565
410.294480,0.323232
410.637500,0.315789
410.980480,0.304348
411.323420,0.247423
411.666320,0.393939
412.009180,0.311927
412.352000,0.272727
412.694780,0.323529
413.037520,0.281818
413.380220,0.304762
413.722880,0.355140
414.065500,0.376147
414.408080,0.316667
414.750620,0.240000
415.093120,0.305785
415.435580,0.261905
415.778000,0.328244
416.120380,0.289256
416.462720,0.283333
416.805020,0.358209
417.147280,0.320312
417.489500,0.279412
417.831680,0.333333
418.173820,0.305344
418.515920,0.312925
418.857980,0.270440
419.200000,0.312102
419.541980,0.308642
419.883920,0.318750
420.225820,0.311765
420.567680,0.264706
420.909500,0.307229
421.251280,0.291667
421.593020,0.296703
421.934720,0.306452
422.276380,0.324742
422.618000,0.310881
422.959580,0.275000
423.301120,0.342723
423.642620,0.330189
423.984080,0.315271
424.325500,0.342342
424.666880,0.309417
425.008220,0.321739
425.349520,0.322870
425.690780,0.318966
426.032000,0.358650
426.373180,0.297959
426.714320,0.331915
427.055420,0.323770
427.396480,0.344538
427.737500,0.326446
428.078480,0.313492
428.419420,0.306452
428.760320,0.329317
429.101180,0.324895
429.442000,0.342629
429.782780,0.319502
430.123520,0.341176
430.464220,0.350195
430.804880,0.330709
431.145500,0.333333
431.486080,0.352713
431.826620,0.343629
432.167120,0.368627
432.507580,0.337209
432.848000,0.364706
433.188380,0.361940
433.528720,0.360153
433.869020,0.370229
434.209280,0.389513
434.549500,0.391791
434.889680,0.375451
435.229820,0.371648
435.569920,0.389961
435.909980,0.375427
436.250000,0.380952
436.589980,0.407534
436.929920,0.386667
437.269820,0.395270
437.609680,0.427653
437.949500,0.392971
438.289280,0.374622
438.629020,0.400000
438.968720,0.398119
439.308380,0.428994
439.648000,0.430267
439.987580,0.396648
440.327120,0.423729
440.666620,0.410112
441.006080,0.409091
441.345500,0.425316
441.684880,0.422977
442.024220,0.428954
442.363520,0.452020
442.702780,0.430288
443.042000,0.430876
443.381180,0.452436
443.720320,0.452055
444.059420,0.464953
444.398480,0.451467
444.737500,0.458333
445.076480,0.485588
445.415420,0.506637
445.754320,0.472160
446.093180,0.465021
446.432000,0.504032
446.770780,0.505030
447.109520,0.483366
447.448220,0.505010
447.786880,0.498008
448.125500,0.473077
448.464080,0.500982
448.802620,0.494275
449.141120,0.500945
449.479580,0.521822
449.818000,0.512195
450.156380,0.518051
450.494720,0.515957
450.833020,0.525813
451.171280,0.506667
451.509500,0.517824
451.847680,0.530055
452.185820,0.511194
452.523920,0.524345
452.861980,0.534672
453.200000,0.540441
453.537980,0.528864
453.875920,0.542593
454.213820,0.557009
454.551680,0.552434
454.889500,0.522769
455.227280,0.562376
455.565020,0.575238
455.902720,0.567970
456.240380,0.573034
456.578000,0.565966
456.915580,0.573284
457.253120,0.566728
457.590620,0.558140
457.928080,0.571429
458.265500,0.586957
458.602880,0.566004
458.940220,0.570423
459.277520,0.580357
459.614780,0.583187
459.952000,0.577703
460.289180,0.602041
460.626320,0.605802
460.963420,0.574106
461.300480,0.585246
461.637500,0.609428
461.974480,0.587849
462.311420,0.592000
462.648320,0.598387
462.985180,0.598450
463.322000,0.578125
463.658780,0.590634
463.995520,0.608434
464.332220,0.597968
464.668880,0.613905
465.005500,0.603616
465.342080,0.601955
465.678620,0.623656
466.015120,0.602476
466.351580,0.616327
466.688000,0.610818
467.024380,0.612192
467.360720,0.617466
467.697020,0.609903
468.033280,0.619855
468.369500,0.603571
468.705680,0.620482
469.041820,0.636153
469.377920,0.628707
469.713980,0.602477
470.050000,0.629947
470.385980,0.635281
470.721920,0.637913
471.057820,0.613944
471.393680,0.596545
471.729500,0.613479
472.065280,0.610568
472.401020,0.610365
472.736720,0.622010
473.072380,0.601358
473.408000,0.612360
473.743580,0.626186
474.079120,0.619003
474.414620,0.614822
474.750080,0.624777
475.085500,0.629091
475.420880,0.626825
475.756220,0.624442
476.091520,0.617080
476.426780,0.612762
476.762000,0.605659
477.097180,0.629730
477.432320,0.632287
477.767420,0.616216
478.102480,0.620629
478.437500,0.607774
478.772480,0.628092
479.107420,0.599297
479.442320,0.610184
479.777180,0.597780
480.112000,0.608734
480.446780,0.599119
480.781520,0.594571
481.116220,0.602067
481.450880,0.607517
481.785500,0.599312
482.120080,0.594595
482.454620,0.601363
482.789120,0.601411
483.123580,0.588488
483.458000,0.598090
483.792380,0.587479
484.126720,0.584327
484.461020,0.587674
484.795280,0.592027
485.129500,0.597210
485.463680,0.591525
485.797820,0.578904
486.131920,0.575424
486.465980,0.567316
486.800000,0.589873
487.133980,0.565581
487.467920,0.571784
487.801820,0.558751
488.135680,0.551020
488.469500,0.563218
488.803280,0.555556
489.137020,0.574816
489.470720,0.554560
489.804380,0.550889
490.138000,0.550000
490.471580,0.540094
490.805120,0.560897
491.138620,0.540123
491.472080,0.541122
491.805500,0.538872
492.138880,0.516804
492.472220,0.532725
492.805520,0.518574
493.138780,0.533632
493.472000,0.530112
493.805180,0.523983
494.138320,0.512931
494.471420,0.515991
494.804480,0.516476
495.137500,0.509091
495.470480,0.508322
495.803420,0.513684
496.136320,0.505405
496.469180,0.506016
496.802000,0.520889
497.134780,0.502978
497.467520,0.502928
497.800220,0.509628
498.132880,0.493961
498.465500,0.494637
498.798080,0.502491
499.130620,0.491662
499.463120,0.493151
499.795580,0.494801
500.128000,0.489413
500.460380,0.486391
500.792720,0.482599
501.125020,0.478111
501.457280,0.488838
501.789500,0.476862
502.121680,0.476217
502.453820,0.472067
502.785920,0.473684
503.117980,0.472013
503.450000,0.471761
503.781980,0.466190
504.113920,0.478541
504.445820,0.458555
504.777680,0.460209
505.109500,0.463670
505.441280,0.466004
505.773020,0.462982
506.104720,0.459669
506.436380,0.459979
506.768000,0.454969
507.099580,0.445734
507.431120,0.451813
507.762620,0.446521
508.094080,0.452111
508.425500,0.448400
508.756880,0.447996
509.088220,0.440766
509.419520,0.441619
509.750780,0.439262
510.082000,0.433091
510.413180,0.439836
510.744320,0.435072
511.075420,0.434338
511.406480,0.441606
511.737500,0.434558
512.068480,0.429381
512.399420,0.430063
512.730320,0.439306
513.061180,0.430460
513.392000,0.436441
513.722780,0.432708
514.053520,0.433600
514.384220,0.436800
514.714880,0.425147
515.045500,0.436589
515.376080,0.427724
515.706620,0.435414
516.037120,0.426543
516.367580,0.429748
516.698000,0.431253
517.028380,0.413621
517.358720,0.423313
517.689020,0.424326
518.019280,0.424107
518.349500,0.435248
518.679680,0.438068
519.009820,0.418161
519.339920,0.430246
519.669980,0.424242
520.000000,0.427283
520.329980,0.441995
520.659920,0.430927
520.989820,0.436676
521.319680,0.428979
521.649500,0.429066
521.979280,0.434857
522.309020,0.446064
522.638720,0.439908
522.968380,0.432028
523.298000,0.437282
523.627580,0.432277
523.957120,0.429642
524.286620,0.434555
524.616080,0.443293
524.945500,0.449182
525.274880,0.447399
525.604220,0.436782
525.933520,0.447839
526.262780,0.445714
526.592000,0.448682
526.921180,0.448725
527.250320,0.443508
527.579420,0.442577
527.908480,0.440307
528.237500,0.446949
528.566480,0.444628
528.895420,0.456083
529.224320,0.450386
529.553180,0.452368
529.882000,0.455961
530.210780,0.466702
530.539520,0.460805
530.868220,0.462474
531.196880,0.467656
531.525500,0.470219
531.854080,0.476596
532.182620,0.484026
532.511120,0.476531
532.839580,0.491662
533.168000,0.481707
533.496380,0.489136
533.824720,0.476026
534.153020,0.483776
534.481280,0.505226
534.809500,0.510483
535.137680,0.502192
535.465820,0.499520
535.793920,0.493164
536.121980,0.500464
536.450000,0.517564
536.777980,0.521963
537.105920,0.516890
537.433820,0.511374
537.761680,0.530289
538.089500,0.522108
538.417280,0.533156
538.745020,0.526704
539.072720,0.537418
539.400380,0.540175
539.728000,0.541613
540.055580,0.541949
540.383120,0.538173
540.710620,0.549625
541.038080,0.545680
541.365500,0.558787
541.692880,0.553513
542.020220,0.553320
542.347520,0.558695
542.674780,0.572565
543.002000,0.569570
543.329180,0.575900
543.656320,0.577465
543.983420,0.578077
544.310480,0.584526
544.637500,0.589422
544.964480,0.592115
545.291420,0.594361
545.618320,0.597903
545.945180,0.604677
546.272000,0.599926
546.598780,0.598670
546.925520,0.611896
547.252220,0.601614
547.578880,0.620920
547.905500,0.623795
548.232080,0.633641
548.558620,0.635225
548.885120,0.635552
549.211580,0.630332
549.538000,0.643513
549.864380,0.638462
550.190720,0.651410
550.517020,0.649355
550.843280,0.652461
551.169500,0.661196
551.495680,0.669907
551.821820,0.652190
552.147920,0.677083
552.473980,0.672039
552.800000,0.677177
553.125980,0.687406
553.451920,0.676756
553.777820,0.692250
554.103680,0.693103
554.429500,0.685573
554.755280,0.692045
555.081020,0.694700
555.406720,0.714563
555.732380,0.704264
556.058000,0.706294
556.383580,0.712894
556.709120,0.712549
557.034620,0.722784
557.360080,0.718150
557.685500,0.718354
558.010880,0.731573
558.336220,0.733253
558.661520,0.736778
558.986780,0.746057
559.312000,0.736715
559.637180,0.750820
559.962320,0.756525
560.287420,0.758634
560.612480,0.758663
560.937500,0.766223
561.262480,0.760825
561.587420,0.769231
561.912320,0.773964
562.237180,0.766962
562.562000,0.769915
562.886780,0.776288
563.211520,0.776551
563.536220,0.774194
563.860880,0.790343
564.185500,0.789519
564.510080,0.805412
564.834620,0.819594
565.159120,0.800771
565.483580,0.803272
565.808000,0.799914
566.132380,0.798812
566.456720,0.817283
566.781020,0.808874
567.105280,0.823555
567.429500,0.825712
567.753680,0.814783
568.077820,0.822857
568.401920,0.831529
568.725980,0.828998
569.050000,0.842537
569.373980,0.836009
569.697920,0.847826
570.021820,0.835448
570.345680,0.846288
570.669500,0.858073
570.993280,0.859634
571.317020,0.866919
571.640720,0.858165
571.964380,0.853016
572.288000,0.858171
572.611580,0.852583
572.935120,0.864636
573.258620,0.860840
573.582080,0.877637
573.905500,0.866359
574.228880,0.877525
574.552220,0.881497
574.875520,0.882228
575.198780,0.888706
575.522000,0.881201
575.845180,0.882039
576.168320,0.896566
576.491420,0.888617
576.814480,0.902228
577.137500,0.903186
577.460480,0.895842
577.783420,0.914798
578.106320,0.899678
578.429180,0.911031
578.752000,0.904426
579.074780,0.896330
579.397520,0.924169
579.720220,0.911743
580.042880,0.908072
580.365500,0.931818
580.688080,0.917017
581.010620,0.914352
581.333120,0.927973
581.655580,0.915254
581.978000,0.917603
582.300380,0.934488
582.622720,0.928146
582.945020,0.942430
583.267280,0.929210
583.589500,0.936700
583.911680,0.928882
584.233820,0.934003
584.555920,0.940455
584.877980,0.948098
585.200000,0.950375
585.521980,0.922435
585.843920,0.949235
586.165820,0.939163
586.487680,0.937543
586.809500,0.942098
587.131280,0.948657
587.453020,0.954685
587.774720,0.964686
588.096380,0.942358
588.418000,0.961771
588.739580,0.953053
589.061120,0.965756
589.382620,0.954188
589.704080,0.959922
590.025500,0.949984
590.346880,0.952608
590.668220,0.974392
590.989520,0.972765
591.310780,0.962998
591.632000,0.960803
591.953180,0.964229
592.274320,0.956358
592.595420,0.970065
592.916480,0.959937
593.237500,0.971813
593.558480,0.961243
593.879420,0.960979
594.200320,0.962189
594.521180,0.970844
594.842000,0.966636
595.162780,0.975504
595.483520,0.983591
595.804220,0.969278
596.124880,0.955900
596.445500,0.966251
596.766080,0.972730
597.086620,0.974406
597.407120,0.961750
597.727580,0.969028
598.048000,0.966189
598.368380,0.963222
598.688720,0.961174
599.009020,0.973627
599.329280,0.965730
599.649500,0.960820
599.969680,0.959543
600.289820,0.976636
600.609920,0.968293
600.929980,0.973766
601.250000,0.974303
601.569980,0.964868
601.889920,0.965076
602.209820,0.955989
602.529680,0.961755
602.849500,0.965353
603.169280,0.967360
603.489020,0.954271
603.808720,0.963701
604.128380,0.963782
604.448000,0.960323
604.767580,0.958683
605.087120,0.943152
605.406620,0.963470
605.726080,0.951380
606.045500,0.953686
606.364880,0.936539
606.684220,0.940633
607.003520,0.956199
607.322780,0.947751
607.642000,0.936979
607.961180,0.942185
608.280320,0.937752
608.599420,0.939476
608.918480,0.937096
609.237500,0.944482
609.556480,0.941797
609.875420,0.938041
610.194320,0.938642
610.513180,0.937674
610.832000,0.932729
611.150780,0.923050
611.469520,0.928093
611.788220,0.922459
612.106880,0.907692
612.425500,0.921182
612.744080,0.929547
613.062620,0.925620
613.381120,0.914448
613.699580,0.919326
614.018000,0.921214
614.336380,0.911596
614.654720,0.916215
614.973020,0.902562
615.291280,0.906014
615.609500,0.911517
615.927680,0.911337
616.245820,0.901008
616.563920,0.899818
616.881980,0.891462
617.200000,0.898299
617.517980,0.892532
617.835920,0.889334
618.153820,0.888602
618.471680,0.889975
618.789500,0.879619
619.107280,0.868793
619.425020,0.886380
619.742720,0.868344
620.060380,0.878058
620.378000,0.876917
620.695580,0.864775
621.013120,0.864727
621.330620,0.872488
621.648080,0.865177
621.965500,0.850236
622.282880,0.863855
622.600220,0.850238
622.917520,0.851471
623.234780,0.864785
623.552000,0.860227
623.869180,0.851715
624.186320,0.840457
624.503420,0.847298
624.820480,0.847145
625.137500,0.850074
625.454480,0.841001
625.771420,0.834250
626.088320,0.818579
626.405180,0.830508
626.722000,0.816752
627.038780,0.828131
627.355520,0.820579
627.672220,0.813406
627.988880,0.819761
628.305500,0.810258
628.622080,0.821442
628.938620,0.820734
629.255120,0.822068
629.571580,0.825818
629.888000,0.812093
630.204380,0.796197
630.520720,0.789678
630.837020,0.784774
631.153280,0.793128
631.469500,0.787900
631.785680,0.787729
632.101820,0.792107
632.417920,0.786822
632.733980,0.783158
633.050000,0.775838
633.365980,0.780860
633.681920,0.777467
633.997820,0.768136
634.313680,0.773598
634.629500,0.768106
634.945280,0.761496
635.261020,0.756775
635.576720,0.759742
635.892380,0.758995
636.208000,0.747021
636.523580,0.754762
636.839120,0.741892
637.154620,0.748562
637.470080,0.746198
637.785500,0.734854
638.100880,0.738498
638.416220,0.734427
638.731520,0.734322
639.046780,0.729840
639.362000,0.729280
639.677180,0.725687
639.992320,0.721800
640.307420,0.711741
640.622480,0.728690
640.937500,0.726973
641.252480,0.714521
641.567420,0.717435
641.882320,0.704105
642.197180,0.695481
642.512000,0.696662
642.826780,0.698206
643.141520,0.706868
643.456220,0.706362
643.770880,0.697106
644.085500,0.694563
644.400080,0.697329
644.714620,0.691052
645.029120,0.670747
645.343580,0.670825
645.658000,0.671935
645.972380,0.674299
646.286720,0.671790
646.601020,0.672780
646.915280,0.676157
647.229500,0.669805
647.543680,0.673355
647.857820,0.666667
648.171920,0.667098
648.485980,0.669683
648.800000,0.652089
649.113980,0.658265
649.427920,0.664584
649.741820,0.647444
650.055680,0.635340
650.369500,0.639425
650.683280,0.641354
650.997020,0.635214
651.310720,0.630809
651.624380,0.637976
651.938000,0.634539
652.251580,0.637479
652.565120,0.628116
652.878620,0.625542
653.192080,0.631579
653.505500,0.614163
653.818880,0.616694
654.132220,0.615693
654.445520,0.620551
654.758780,0.622834
655.072000,0.608770
655.385180,0.611092
655.698320,0.604202
656.011420,0.612321
656.324480,0.606944
656.637500,0.601449
656.950480,0.596154
657.263420,0.598813
657.576320,0.600142
657.889180,0.594906
658.202000,0.598439
658.514780,0.588152
658.827520,0.591974
659.140220,0.592034
659.452880,0.582229
659.765500,0.590975
660.078080,0.581818
660.390620,0.586725
660.703120,0.579641
661.015580,0.573891
661.328000,0.579910
661.640380,0.582101
661.952720,0.573971
662.265020,0.574081
662.577280,0.568353
662.889500,0.564595
663.201680,0.570719
663.513820,0.557604
663.825920,0.561644
664.137980,0.562835
664.450000,0.559218
664.761980,0.559984
665.073920,0.543267
665.385820,0.562255
665.697680,0.554632
666.009500,0.546307
666.321280,0.549980
666.633020,0.545132
666.944720,0.546293
667.256380,0.548011
667.568000,0.543195
667.879580,0.539367
668.191120,0.543902
668.502620,0.547990
668.814080,0.551897
669.125500,0.538462
669.436880,0.524712
669.748220,0.536292
670.059520,0.534247
670.370780,0.531614
670.682000,0.537395
670.993180,0.526886
671.304320,0.532807
671.615420,0.522727
671.926480,0.528080
672.237500,0.521867
672.548480,0.526587
672.859420,0.526316
673.170320,0.520914
673.481180,0.529688
673.792000,0.526132
674.102780,0.522453
674.413520,0.526751
674.724220,0.525270
675.034880,0.521397
675.345500,0.512765
675.656080,0.525120
675.966620,0.525319
676.277120,0.510620
676.587580,0.523240
676.898000,0.515299
677.208380,0.518535
677.518720,0.510779
677.829020,0.518008
678.139280,0.517683
678.449500,0.515152
678.759680,0.522321
679.069820,0.522108
679.379920,0.515785
679.689980,0.513981
680.000000,0.507844
680.309980,0.516028
680.619920,0.524842
680.929820,0.507589
681.239680,0.511111
681.549500,0.510357
681.859280,0.523511
682.169020,0.511638
682.478720,0.510648
682.788380,0.503282
683.098000,0.502218
683.407580,0.518552
683.717120,0.506295
684.026620,0.505845
684.336080,0.505450
684.645500,0.511191
684.954880,0.511203
685.264220,0.508636
685.573520,0.510195
685.882780,0.511091
686.192000,0.523140
686.501180,0.515996
686.810320,0.516828
687.119420,0.508804
687.428480,0.510638
687.737500,0.513551
688.046480,0.516988
688.355420,0.515357
688.664320,0.511692
688.973180,0.515445
689.282000,0.515539
689.590780,0.512500
689.899520,0.514984
690.208220,0.510735
690.516880,0.516247
690.825500,0.514040
691.134080,0.521481
691.442620,0.522485
691.751120,0.515895
692.059580,0.520497
692.368000,0.524703
692.676380,0.523875
692.984720,0.522079
693.293020,0.521581
693.601280,0.514246
693.909500,0.525000
694.217680,0.527132
694.525820,0.525011
694.833920,0.523155
695.141980,0.529823
695.450000,0.523390
695.757980,0.531338
696.065920,0.531383
696.373820,0.538354
696.681680,0.525822
696.989500,0.527893
697.297280,0.530508
697.605020,0.532864
697.912720,0.534644
698.220380,0.532732
698.528000,0.545498
698.835580,0.530952
699.143120,0.537954
699.450620,0.530000
699.758080,0.539234
700.065500,0.544231
700.372880,0.549235
700.680220,0.556807
700.987520,0.547676
701.294780,0.544182
701.602000,0.544583
701.909180,0.546367
702.216320,0.547045
702.523420,0.549952
702.830480,0.555238
703.137500,0.555345
703.444480,0.554913
703.751420,0.559394
704.058320,0.560592
704.365180,0.564299
704.672000,0.567593
704.978780,0.565217
705.285520,0.570956
705.592220,0.570820
705.898880,0.569928
706.205500,0.561148
706.512080,0.574234
706.818620,0.571162
707.125120,0.570225
707.431580,0.569464
707.738000,0.579196
708.044380,0.578184
708.350720,0.585887
708.657020,0.579710
708.963280,0.576869
709.269500,0.573321
709.575680,0.591710
709.881820,0.587294
710.187920,0.593542
710.493980,0.591145
710.800000,0.594984
711.105980,0.581684
711.411920,0.591321
711.717820,0.591663
712.023680,0.595724
712.329500,0.594031
712.635280,0.600094
712.941020,0.601323
713.246720,0.603182
713.552380,0.607685
713.858000,0.607006
714.163580,0.611084
714.469120,0.612069
714.774620,0.604773
715.080080,0.608716
715.385500,0.617675
715.690880,0.609487
715.996220,0.622542
716.301520,0.617605
716.606780,0.622169
716.912000,0.616127
717.217180,0.641125
717.522320,0.633898
717.827420,0.629867
718.132480,0.625486
718.437500,0.638119
718.742480,0.628946
719.047420,0.632704
719.352320,0.651326
719.657180,0.644776
719.962000,0.642281
720.266780,0.636087
720.571520,0.643614
720.876220,0.653226
721.180880,0.641633
721.485500,0.655804
721.790080,0.642566
722.094620,0.658562
722.399120,0.663021
722.703580,0.655643
723.008000,0.666314
723.312380,0.667713
723.616720,0.665975
723.921020,0.680975
724.225280,0.665250
724.529500,0.676898
724.833680,0.681941
725.137820,0.669691
725.441920,0.685296
725.745980,0.698901
726.050000,0.686608
726.353980,0.680110
726.657920,0.684916
726.961820,0.685165
727.265680,0.686874
727.569500,0.696970
727.873280,0.693052
728.177020,0.687919
728.480720,0.706682
728.784380,0.706422
729.088000,0.700229
729.391580,0.708430
729.695120,0.712883
729.998620,0.721637
730.302080,0.709316
730.605500,0.712441
730.908880,0.718117
731.212220,0.718563
731.515520,0.724344
731.818780,0.719976
732.122000,0.724865
732.425180,0.726444
732.728320,0.739852
733.031420,0.714461
733.334480,0.735385
733.637500,0.738728
733.940480,0.745307
734.243420,0.732877
734.546320,0.733375
734.849180,0.746523
735.152000,0.760278
735.454780,0.764555
735.757520,0.759974
736.060220,0.755442
736.362880,0.757244
736.665500,0.760628
736.968080,0.753086
737.270620,0.766958
737.573120,0.755644
737.875580,0.761968
738.178000,0.777482
738.480380,0.786819
738.782720,0.774280
739.085020,0.781843
739.387280,0.773931
739.689500,0.760027
739.991680,0.783654
740.293820,0.776271
740.595920,0.770169
740.897980,0.793366
741.200000,0.774303
741.501980,0.791117
741.803920,0.795518
742.105820,0.799437
742.407680,0.778955
742.709500,0.796466
743.011280,0.813131
743.313020,0.806705
743.614720,0.807525
743.916380,0.810519
744.218000,0.792208
744.519580,0.822040
744.821120,0.825109
745.122620,0.826895
745.424080,0.799704
745.725500,0.821162
746.026880,0.832579
746.328220,0.824680
746.629520,0.823396
746.930780,0.834356
747.232000,0.839666
747.533180,0.844275
747.834320,0.832220
748.135420,0.842636
748.436480,0.844086
748.737500,0.850850
749.038480,0.850114
749.339420,0.838081
749.640320,0.848092
749.941180,0.839724
750.242000,0.844444
750.542780,0.845622
750.843520,0.847179
751.144220,0.867788
751.444880,0.882682
751.745500,0.859511
752.046080,0.880597
752.346620,0.879742
752.647120,0.866455
752.947580,0.873591
753.248000,0.873701
753.548380,0.892333
753.848720,0.899840
754.149020,0.883834
754.449280,0.885972
754.749500,0.884710
755.049680,0.893901
755.349820,0.873779
755.649920,0.901072
755.949980,0.894608
756.250000,0.881547
756.549980,0.886252
756.849920,0.913518
757.149820,0.889443
757.449680,0.909390
757.749500,0.897651
758.049280,0.890365
758.349020,0.905300
758.648720,0.924831
758.948380,0.897544
759.248000,0.900083
759.547580,0.936242
759.847120,0.906223
760.146620,0.916458
760.446080,0.934509
760.745500,0.950920
761.044880,0.918261
761.344220,0.940285
761.643520,0.927147
761.942780,0.912088
762.242000,0.934974
762.541180,0.924528
762.840320,0.943182
763.139420,0.958808
763.438480,0.927792
763.737500,0.949281
764.036480,0.958656
764.335420,0.949609
764.634320,0.939966
764.933180,0.957759
765.232000,0.955288
765.530780,0.960000
765.829520,0.942882
766.128220,0.943005
766.426880,0.954113
766.725500,0.945992
767.024080,0.980325
767.322620,0.941275
767.621120,0.958403
767.919580,0.969218
768.218000,0.977816
768.516380,0.999153
768.814720,0.996537
769.113020,0.963805
769.411280,0.993981
769.709500,0.964725
770.007680,0.974937
770.305820,1.007666
770.603920,0.977985
770.901980,0.999147
771.200000,0.988964
771.497980,1.011935
771.795920,0.997485
772.093820,0.999157
772.391680,0.983010
772.689500,0.990879
772.987280,0.979475
773.285020,1.016156
773.582720,1.007513
773.880380,1.000837
774.178000,1.020270
774.475580,1.017573
774.773120,0.997517
775.070620,0.994258
775.368080,1.011628
775.665500,1.020202
775.962880,1.008319
776.260220,1.020219
776.557520,1.021523
776.854780,1.002477
777.152000,1.028286
777.449180,1.035655
777.746320,1.041946
778.043420,1.020356
778.340480,1.017241
778.637500,1.031746
778.934480,1.034281
779.231420,1.028428
779.528320,1.044688
779.825180,1.030329
780.122000,1.041982
780.418780,1.013400
780.715520,1.040732
781.012220,1.042194
781.308880,1.028595
781.605500,1.068376
781.902080,1.063629
782.198620,1.060580
782.495120,1.033557
782.791580,1.049580
783.088000,1.059574
783.384380,1.047980
783.680720,1.028452
783.977020,1.041773
784.273280,1.033812
784.569500,1.057265
784.865680,1.074106
785.161820,1.045957
785.457920,1.065925
785.753980,1.052721
786.050000,1.074614
786.345980,1.067591
786.641920,1.058925
786.937820,1.064767
787.233680,1.081953
787.529500,1.063793
787.825280,1.080844
788.121020,1.062937
788.416720,1.066260
788.712380,1.080420
789.008000,1.102404
789.303580,1.094727
789.599120,1.087035
789.894620,1.090747
790.190080,1.074107
790.485500,1.083110
790.780880,1.093168
791.076220,1.082342
791.371520,1.086643
791.666780,1.078804
791.962000,1.099091
792.257180,1.101010
792.552320,1.073609
792.847420,1.105948
793.142480,1.095325
793.437500,1.081227
793.732480,1.100271
794.027420,1.112888
794.322320,1.097426
794.617180,1.103993
794.912000,1.104967
795.206780,1.100652
795.501520,1.073901
795.796220,1.122740
796.090880,1.114770
796.385500,1.088346
796.680080,1.093259
796.974620,1.092351
797.269120,1.119461
797.563580,1.097078
797.858000,1.096386
798.152380,1.121154
798.446720,1.092469
798.741020,1.105364
799.035280,1.132094
799.329500,1.104550
799.623680,1.121504
