399.985280,0.351351
400.329500,0.391892
400.673680,0.354430
401.017820,0.441176
401.361920,0.393939
401.705980,0.353659
402.050000,0.376623
402.393980,0.435294
402.737920,0.449438
403.081820,0.422680
403.425680,0.395349
403.769500,0.312500
404.113280,0.402299
404.457020,0.438202
404.800720,0.380435
405.144380,0.444444
405.488000,0.408602
405.831580,0.371134
406.175120,0.351064
406.518620,0.390000
406.862080,0.381443
407.205500,0.364583
407.548880,0.397959
407.892220,0.401961
408.235520,0.446809
408.578780,0.419048
408.922000,0.365385
409.265180,0.434343
409.608320,0.393939
409.951420,0.432990
410.294480,0.411765
410.637500,0.369565
410.980480,0.421569
411.323420,0.479592
411.666320,0.385321
412.009180,0.409091
412.352000,0.326733
412.694780,0.449541
413.037520,0.376147
413.380220,0.405405
413.722880,0.473214
414.065500,0.387387
414.408080,0.371681
414.750620,0.389381
415.093120,0.347107
415.435580,0.453782
415.778000,0.378788
416.120380,0.445378
416.462720,0.373016
416.805020,0.398496
417.147280,0.373134
417.489500,0.407143
417.831680,0.397260
418.173820,0.439716
418.515920,0.454545
418.857980,0.398734
419.200000,0.378205
419.541980,0.426036
419.883920,0.398876
420.225820,0.404624
420.567680,0.374302
420.909500,0.409836
421.251280,0.406250
421.593020,0.418367
421.934720,0.358586
422.276380,0.400000
422.618000,0.387255
422.959580,0.401961
423.301120,0.410959
423.642620,0.356522
423.984080,0.386047
424.325500,0.367713
424.666880,0.362069
425.008220,0.386555
425.349520,0.377119
425.690780,0.357692
426.032000,0.364706
426.373180,0.365145
426.714320,0.367187
427.055420,0.374517
427.396480,0.382022
427.737500,0.371542
428.078480,0.371542
428.419420,0.353414
428.760320,0.371648
429.101180,0.393701
429.442000,0.379310
429.782780,0.376923
430.123520,0.372549
430.464220,0.369004
430.804880,0.383142
431.145500,0.345455
431.486080,0.359551
431.826620,0.348837
432.167120,0.349265
432.507580,0.365942
432.848000,0.348921
433.188380,0.350181
433.528720,0.384906
433.869020,0.332143
434.209280,0.326316
434.549500,0.365854
434.889680,0.346801
435.229820,0.334471
435.569920,0.328720
435.909980,0.320388
436.250000,0.369492
436.589980,0.315789
436.929920,0.333333
437.269820,0.319749
437.609680,0.328402
437.949500,0.322289
438.289280,0.337110
438.629020,0.322674
438.968720,0.313953
439.308380,0.317073
439.648000,0.320548
439.987580,0.312169
440.327120,0.309333
440.666620,0.306494
441.006080,0.335038
441.345500,0.314496
441.684880,0.308612
442.024220,0.312655
442.363520,0.304762
442.702780,0.313636
443.042000,0.286344
443.381180,0.316810
443.720320,0.317495
444.059420,0.289916
444.398480,0.276151
444.737500,0.293033
445.076480,0.297619
445.415420,0.305389
445.754320,0.286902
446.093180,0.289908
446.432000,0.291353
446.770780,0.296015
447.109520,0.295956
447.448220,0.291592
447.786880,0.289803
448.125500,0.287931
448.464080,0.276786
448.802620,0.271277
449.141120,0.280277
449.479580,0.262238
449.818000,0.275387
450.156380,0.280936
450.494720,0.266116
450.833020,0.276224
451.171280,0.265411
451.509500,0.278746
451.847680,0.261383
452.185820,0.275387
452.523920,0.264605
452.861980,0.264755
453.200000,0.257475
453.537980,0.247059
453.875920,0.258824
454.213820,0.261986
454.551680,0.258278
454.889500,0.263069
455.227280,0.240214
455.565020,0.251256
455.902720,0.256240
456.240380,0.241265
456.578000,0.254355
456.915580,0.253886
457.253120,0.246711
457.590620,0.254516
457.928080,0.254209
458.265500,0.243243
458.602880,0.228896
458.940220,0.243655
459.277520,0.241600
459.614780,0.227496
459.952000,0.225155
460.289180,0.250000
460.626320,0.242520
460.963420,0.234249
461.300480,0.233945
461.637500,0.228043
461.974480,0.235474
462.311420,0.230999
462.648320,0.218155
462.985180,0.212339
463.322000,0.223214
463.658780,0.220994
463.995520,0.213205
464.332220,0.218837
464.668880,0.227151
465.005500,0.219839
465.342080,0.218950
465.678620,0.220172
466.015120,0.222510
466.351580,0.217446
466.688000,0.211937
467.024380,0.212637
467.360720,0.204545
467.697020,0.209567
468.033280,0.214444
468.369500,0.213024
468.705680,0.211950
469.041820,0.201042
469.377920,0.201735
469.713980,0.208033
470.050000,0.211594
470.385980,0.199609
470.721920,0.195886
471.057820,0.198830
471.393680,0.194574
471.729500,0.194625
472.065280,0.202147
472.401020,0.191489
472.736720,0.189354
473.072380,0.189408
473.408000,0.196693
473.743580,0.193772
474.079120,0.190353
474.414620,0.181510
474.750080,0.184703
475.085500,0.186678
475.420880,0.184013
475.756220,0.191333
476.091520,0.183291
476.426780,0.187702
476.762000,0.183427
477.097180,0.187200
477.432320,0.187399
477.767420,0.181373
478.102480,0.181102
478.437500,0.178982
478.772480,0.177305
479.107420,0.177380
479.442320,0.184652
479.777180,0.180589
480.112000,0.182589
480.446780,0.173032
480.781520,0.173913
481.116220,0.169766
481.450880,0.176425
481.785500,0.183544
482.120080,0.174765
482.454620,0.175602
482.789120,0.175159
483.123580,0.176012
483.458000,0.170886
483.792380,0.174920
484.126720,0.172973
484.461020,0.167838
484.795280,0.172706
485.129500,0.171473
485.463680,0.166667
485.797820,0.175739
486.131920,0.169090
486.465980,0.175290
486.800000,0.172519
487.133980,0.166163
487.467920,0.167559
487.801820,0.166285
488.135680,0.172100
488.469500,0.167171
488.803280,0.170134
489.137020,0.162637
489.470720,0.166172
489.804380,0.170750
490.138000,0.169881
490.471580,0.176861
490.805120,0.173695
491.138620,0.168443
491.472080,0.174558
491.805500,0.167364
492.138880,0.166782
492.472220,0.163322
492.805520,0.173883
493.138780,0.172984
493.472000,0.171906
493.805180,0.173261
494.138320,0.170113
494.471420,0.161458
494.804480,0.163648
495.137500,0.167522
495.470480,0.173359
495.803420,0.168136
496.136320,0.175439
496.469180,0.167587
496.802000,0.161980
497.134780,0.172226
497.467520,0.176147
497.800220,0.165094
498.132880,0.165785
498.465500,0.165701
498.798080,0.163242
499.130620,0.172375
499.463120,0.171252
499.795580,0.172717
500.128000,0.168392
500.460380,0.171690
500.792720,0.169671
501.125020,0.168681
501.457280,0.165013
501.789500,0.169421
502.121680,0.171591
502.453820,0.169301
502.785920,0.162581
503.117980,0.174190
503.450000,0.175289
503.781980,0.177379
504.113920,0.169749
504.445820,0.168692
504.777680,0.168941
505.109500,0.173558
505.441280,0.175430
505.773020,0.175669
506.104720,0.172869
506.436380,0.176526
506.768000,0.177736
507.099580,0.170709
507.431120,0.175644
507.762620,0.182801
508.094080,0.175479
508.425500,0.178338
508.756880,0.176040
509.088220,0.178473
509.419520,0.180633
509.750780,0.180412
510.082000,0.180970
510.413180,0.181944
510.744320,0.186378
511.075420,0.179652
511.406480,0.182417
511.737500,0.182870
512.068480,0.185620
512.399420,0.186854
512.730320,0.185681
513.061180,0.183159
513.392000,0.181259
513.722780,0.188280
514.053520,0.188788
514.384220,0.182683
514.714880,0.191479
515.045500,0.186782
515.376080,0.186441
515.706620,0.188505
516.037120,0.187255
516.367580,0.193691
516.698000,0.192647
517.028380,0.193644
517.358720,0.193086
517.689020,0.201286
518.019280,0.200201
518.349500,0.201723
518.679680,0.198385
519.009820,0.196356
519.339920,0.204910
519.669980,0.199397
520.000000,0.205807
520.329980,0.201659
520.659920,0.210634
520.989820,0.210010
521.319680,0.206790
521.649500,0.208740
521.979280,0.208768
522.309020,0.204357
522.638720,0.209421
522.968380,0.209928
523.298000,0.216597
523.627580,0.207967
523.957120,0.220779
524.286620,0.217301
524.616080,0.217684
524.945500,0.222222
525.274880,0.221139
525.604220,0.222050
525.933520,0.218029
526.262780,0.215915
526.592000,0.219685
526.921180,0.223464
527.250320,0.224759
527.579420,0.232441
527.908480,0.226982
528.237500,0.234359
528.566480,0.234531
528.895420,0.230655
529.224320,0.233779
529.553180,0.236145
529.882000,0.237470
530.210780,0.237934
530.539520,0.242090
530.868220,0.245093
531.196880,0.236980
531.525500,0.243099
531.854080,0.242026
532.182620,0.246147
532.511120,0.246404
532.839580,0.248185
533.168000,0.253874
533.496380,0.253425
533.824720,0.249439
534.153020,0.255461
534.481280,0.254626
534.809500,0.257696
535.137680,0.257378
535.465820,0.248711
535.793920,0.255922
536.121980,0.260596
536.450000,0.263425
536.777980,0.264349
537.105920,0.266916
537.433820,0.267185
537.761680,0.271837
538.089500,0.273978
538.417280,0.269001
538.745020,0.279319
539.072720,0.276845
539.400380,0.279720
539.728000,0.275717
540.055580,0.281648
540.383120,0.285927
540.710620,0.284970
541.038080,0.282921
541.365500,0.281250
541.692880,0.279433
542.020220,0.284995
542.347520,0.288586
542.674780,0.289697
543.002000,0.287964
543.329180,0.298141
543.656320,0.291842
543.983420,0.287179
544.310480,0.293918
544.637500,0.295121
544.964480,0.300135
545.291420,0.299103
545.618320,0.305777
545.945180,0.297956
546.272000,0.296199
546.598780,0.304490
546.925520,0.303660
547.252220,0.310994
547.578880,0.313131
547.905500,0.313725
548.232080,0.313840
548.558620,0.315652
548.885120,0.315669
549.211580,0.312761
549.538000,0.313554
549.864380,0.321222
550.190720,0.323862
550.517020,0.323990
550.843280,0.324104
551.169500,0.323791
551.495680,0.326544
551.821820,0.332789
552.147920,0.334092
552.473980,0.332565
552.800000,0.335186
553.125980,0.342174
553.451920,0.339416
553.777820,0.344437
554.103680,0.336704
554.429500,0.344158
554.755280,0.342123
555.081020,0.340575
555.406720,0.343718
555.732380,0.348695
556.058000,0.343517
556.383580,0.351592
556.709120,0.343901
557.034620,0.349294
557.360080,0.356477
557.685500,0.352006
558.010880,0.354593
558.336220,0.358524
558.661520,0.364055
558.986780,0.361446
559.312000,0.366453
559.637180,0.366248
559.962320,0.365611
560.287420,0.370240
560.612480,0.363832
560.937500,0.368943
561.262480,0.369135
561.587420,0.370330
561.912320,0.377671
562.237180,0.377128
562.562000,0.379723
562.886780,0.383501
563.211520,0.383756
563.536220,0.385158
563.860880,0.387401
564.185500,0.382364
564.510080,0.384876
564.834620,0.381466
565.159120,0.385714
565.483580,0.389586
565.808000,0.391979
566.132380,0.390153
566.456720,0.400227
566.781020,0.391223
567.105280,0.392817
567.429500,0.400228
567.753680,0.400460
568.077820,0.399304
568.401920,0.406417
568.725980,0.413662
569.050000,0.409506
569.373980,0.401218
569.697920,0.415245
570.021820,0.412360
570.345680,0.411787
570.669500,0.413201
570.993280,0.414544
571.317020,0.412861
571.640720,0.416080
571.964380,0.408686
572.288000,0.423591
572.611580,0.423811
572.935120,0.419379
573.258620,0.431189
573.582080,0.418778
573.905500,0.427774
574.228880,0.428359
574.552220,0.433126
574.875520,0.434103
575.198780,0.433321
575.522000,0.431818
575.845180,0.430516
576.168320,0.438376
576.491420,0.439317
576.814480,0.440145
577.137500,0.450577
577.460480,0.449438
577.783420,0.444802
578.106320,0.449430
578.429180,0.448568
578.752000,0.446336
579.074780,0.458193
579.397520,0.457069
579.720220,0.459138
580.042880,0.453254
580.365500,0.457644
580.688080,0.462347
581.010620,0.460682
581.333120,0.462926
581.655580,0.468198
581.978000,0.466245
582.300380,0.464460
582.622720,0.465722
582.945020,0.468140
583.267280,0.469554
583.589500,0.468379
583.911680,0.474119
584.233820,0.475291
584.555920,0.478412
584.877980,0.483668
585.200000,0.472069
585.521980,0.485635
585.843920,0.476510
586.165820,0.478062
586.487680,0.480289
586.809500,0.482148
587.131280,0.485951
587.453020,0.491071
587.774720,0.490834
588.096380,0.486873
588.418000,0.491659
588.739580,0.491233
589.061120,0.499425
589.382620,0.498281
589.704080,0.492847
590.025500,0.505137
590.346880,0.504497
590.668220,0.503220
590.989520,0.499723
591.310780,0.507318
591.632000,0.510929
591.953180,0.510102
592.274320,0.496587
592.595420,0.506196
592.916480,0.509101
593.237500,0.513878
593.558480,0.512779
593.879420,0.508767
594.200320,0.508170
594.521180,0.509163
594.842000,0.518538
595.162780,0.515759
595.483520,0.514225
595.804220,0.519603
596.124880,0.520650
596.445500,0.515326
596.766080,0.526755
597.086620,0.518843
597.407120,0.523433
597.727580,0.528242
598.048000,0.522613
598.368380,0.530247
598.688720,0.528178
599.009020,0.527070
599.329280,0.531666
599.649500,0.526677
599.969680,0.536592
600.289820,0.534188
600.609920,0.534331
600.929980,0.534474
601.250000,0.535405
601.569980,0.531731
601.889920,0.531943
602.209820,0.533550
602.529680,0.542983
602.849500,0.534370
603.169280,0.541747
603.489020,0.541378
603.808720,0.537301
604.128380,0.540011
604.448000,0.534530
604.767580,0.546369
605.087120,0.538504
605.406620,0.545480
605.726080,0.556886
606.045500,0.538312
606.364880,0.554579
606.684220,0.549115
607.003520,0.545585
607.322780,0.550597
607.642000,0.546525
607.961180,0.548424
608.280320,0.554234
608.599420,0.548957
608.918480,0.550440
609.237500,0.555751
609.556480,0.557561
609.875420,0.556113
610.194320,0.553587
610.513180,0.558153
610.832000,0.555092
611.150780,0.565335
611.469520,0.560483
611.788220,0.563785
612.106880,0.563329
612.425500,0.565773
612.744080,0.580486
613.062620,0.567278
613.381120,0.560024
613.699580,0.566217
614.018000,0.564189
614.336380,0.568168
614.654720,0.561860
614.973020,0.565875
615.291280,0.563681
615.609500,0.581300
615.927680,0.573857
616.245820,0.572356
616.563920,0.571029
616.881980,0.571874
617.200000,0.575739
617.517980,0.575296
617.835920,0.576266
618.153820,0.573827
618.471680,0.578295
618.789500,0.576778
619.107280,0.578091
619.425020,0.581985
619.742720,0.579724
620.060380,0.570981
620.378000,0.577407
620.695580,0.580460
621.013120,0.579528
621.330620,0.587072
621.648080,0.578864
621.965500,0.580615
622.282880,0.578184
622.600220,0.574226
622.917520,0.581285
623.234780,0.598200
623.552000,0.583705
623.869180,0.584305
624.186320,0.581980
624.503420,0.592476
624.820480,0.592209
625.137500,0.597411
625.454480,0.589872
625.771420,0.585120
626.088320,0.589849
626.405180,0.593030
626.722000,0.592535
627.038780,0.592105
627.355520,0.597812
627.672220,0.598134
627.988880,0.596267
628.305500,0.603303
628.622080,0.592627
628.938620,0.595413
629.255120,0.605787
629.571580,0.588416
629.888000,0.593740
630.204380,0.593740
630.520720,0.597806
630.837020,0.600987
631.153280,0.595624
631.469500,0.594906
631.785680,0.602170
632.101820,0.601025
632.417920,0.598510
632.733980,0.600240
633.050000,0.609157
633.365980,0.599585
633.681920,0.601730
633.997820,0.601614
634.313680,0.598349
634.629500,0.598054
634.945280,0.603519
635.261020,0.603463
635.576720,0.611861
635.892380,0.599477
636.208000,0.601104
636.523580,0.611225
636.839120,0.608280
637.154620,0.609855
637.470080,0.608321
637.785500,0.616061
638.100880,0.617724
638.416220,0.607708
638.731520,0.605444
639.046780,0.601515
639.362000,0.599484
639.677180,0.605654
639.992320,0.605018
640.307420,0.602978
640.622480,0.605713
640.937500,0.608877
641.252480,0.612120
641.567420,0.615232
641.882320,0.609410
642.197180,0.607805
642.512000,0.612091
642.826780,0.613870
643.141520,0.613226
643.456220,0.612341
643.770880,0.618574
644.085500,0.615148
644.400080,0.612921
644.714620,0.618172
645.029120,0.614136
645.343580,0.606967
645.658000,0.620316
645.972380,0.623458
646.286720,0.610793
646.601020,0.612787
646.915280,0.609816
647.229500,0.612363
647.543680,0.613090
647.857820,0.612717
648.171920,0.609333
648.485980,0.616333
648.800000,0.608983
649.113980,0.615576
649.427920,0.618585
649.741820,0.609233
650.055680,0.616840
650.369500,0.615191
650.683280,0.615705
650.997020,0.613036
651.310720,0.606494
651.624380,0.610989
651.938000,0.616620
652.251580,0.616476
652.565120,0.614589
652.878620,0.606982
653.192080,0.618258
653.505500,0.609257
653.818880,0.621837
654.132220,0.613500
654.445520,0.609189
654.758780,0.611615
655.072000,0.609742
655.385180,0.604850
655.698320,0.606745
656.011420,0.606764
656.324480,0.617313
656.637500,0.614716
656.950480,0.611568
657.263420,0.616317
657.576320,0.607175
657.889180,0.613978
658.202000,0.609903
658.514780,0.611492
658.827520,0.622449
659.140220,0.612826
659.452880,0.612504
659.765500,0.606562
660.078080,0.609088
660.390620,0.615643
660.703120,0.617476
661.015580,0.626074
661.328000,0.613665
661.640380,0.612302
661.952720,0.607599
662.265020,0.606805
662.577280,0.610687
662.889500,0.608010
663.201680,0.612955
663.513820,0.612416
663.825920,0.608389
664.137980,0.614092
664.450000,0.607737
664.761980,0.605892
665.073920,0.602402
665.385820,0.607330
665.697680,0.605620
666.009500,0.620552
666.321280,0.605699
666.633020,0.608378
666.944720,0.610718
667.256380,0.602288
667.568000,0.603601
667.879580,0.612925
668.191120,0.619162
668.502620,0.604245
668.814080,0.602456
669.125500,0.608621
669.436880,0.604426
669.748220,0.611284
670.059520,0.610294
670.370780,0.604732
670.682000,0.605664
670.993180,0.610289
671.304320,0.590717
671.615420,0.615057
671.926480,0.605039
672.237500,0.596999
672.548480,0.599006
672.859420,0.614010
673.170320,0.610446
673.481180,0.608255
673.792000,0.598990
674.102780,0.597127
674.413520,0.602260
674.724220,0.602541
675.034880,0.613495
675.345500,0.606856
675.656080,0.592740
675.966620,0.601673
676.277120,0.604907
676.587580,0.602725
676.898000,0.603210
677.208380,0.587431
677.518720,0.594457
677.829020,0.607539
678.139280,0.594514
678.449500,0.599332
678.759680,0.608093
679.069820,0.584758
679.379920,0.605432
679.689980,0.603788
680.000000,0.595514
680.309980,0.596882
680.619920,0.599016
680.929820,0.595371
681.239680,0.587518
681.549500,0.588889
681.859280,0.593353
682.169020,0.596792
682.478720,0.593493
682.788380,0.586563
683.098000,0.600598
683.407580,0.593996
683.717120,0.587838
684.026620,0.586220
684.336080,0.592649
684.645500,0.586981
684.954880,0.587835
685.264220,0.583994
685.573520,0.594975
685.882780,0.593019
686.192000,0.598570
686.501180,0.597049
686.810320,0.584935
687.119420,0.589130
687.428480,0.586783
687.737500,0.586339
688.046480,0.597009
688.355420,0.580913
688.664320,0.579189
688.973180,0.579632
689.282000,0.595679
689.590780,0.588574
689.899520,0.580327
690.208220,0.579128
690.516880,0.584574
690.825500,0.589434
691.134080,0.578588
691.442620,0.579268
691.751120,0.596132
692.059580,0.582728
692.368000,0.581977
692.676380,0.569466
692.984720,0.582824
693.293020,0.574468
693.601280,0.574208
693.909500,0.578888
694.217680,0.574257
694.525820,0.579208
694.833920,0.571538
695.141980,0.574238
695.450000,0.571756
695.757980,0.574866
696.065920,0.570097
696.373820,0.563125
696.681680,0.574607
696.989500,0.568892
697.297280,0.570595
697.605020,0.578571
697.912720,0.566103
698.220380,0.574183
698.528000,0.566456
698.835580,0.570525
699.143120,0.561964
699.450620,0.566428
699.758080,0.557255
700.065500,0.552275
700.372880,0.573600
700.680220,0.560830
700.987520,0.567063
701.294780,0.576642
701.602000,0.559826
701.909180,0.563990
702.216320,0.567071
702.523420,0.564325
702.830480,0.560792
703.137500,0.560016
703.444480,0.558580
703.751420,0.561341
704.058320,0.565097
704.365180,0.558360
704.672000,0.560000
704.978780,0.556379
705.285520,0.559468
705.592220,0.548235
705.898880,0.551221
706.205500,0.549296
706.512080,0.560427
706.818620,0.553793
707.125120,0.558462
707.431580,0.549043
707.738000,0.550781
708.044380,0.544191
708.350720,0.544135
708.657020,0.560766
708.963280,0.553183
709.269500,0.547162
709.575680,0.557957
709.881820,0.545991
710.187920,0.543191
710.493980,0.548099
710.800000,0.540427
711.105980,0.529744
711.411920,0.540796
711.717820,0.543080
712.023680,0.543335
712.329500,0.547713
712.635280,0.547674
712.941020,0.544646
713.246720,0.547036
713.552380,0.540816
713.858000,0.542373
714.163580,0.536701
714.469120,0.532630
714.774620,0.542440
715.080080,0.536710
715.385500,0.538369
715.690880,0.534517
715.996220,0.540412
716.301520,0.536759
716.606780,0.530660
716.912000,0.537964
717.217180,0.541101
717.522320,0.516899
717.827420,0.527665
718.132480,0.531915
718.437500,0.529556
718.742480,0.530242
719.047420,0.519013
719.352320,0.523039
719.657180,0.533933
719.962000,0.537221
720.266780,0.524304
720.571520,0.523612
720.876220,0.516776
721.180880,0.525084
721.485500,0.518178
721.790080,0.522293
722.094620,0.527015
722.399120,0.526066
722.703580,0.518217
723.008000,0.529107
723.312380,0.521309
723.616720,0.517212
723.921020,0.507146
724.225280,0.512653
724.529500,0.508319
724.833680,0.524021
725.137820,0.507048
725.441920,0.510923
725.745980,0.507830
726.050000,0.511502
726.353980,0.511492
726.657920,0.500225
726.961820,0.509132
727.265680,0.507166
727.569500,0.506399
727.873280,0.501617
728.177020,0.513588
728.480720,0.510648
728.784380,0.506341
729.088000,0.500707
729.391580,0.505448
729.695120,0.502399
729.998620,0.505258
730.302080,0.500240
730.605500,0.500728
730.908880,0.500245
731.212220,0.506856
731.515520,0.496343
731.818780,0.494660
732.122000,0.501969
732.425180,0.485461
732.728320,0.486366
733.031420,0.497744
733.334480,0.498980
733.637500,0.494456
733.940480,0.487718
734.243420,0.492355
734.546320,0.496369
734.849180,0.482438
735.152000,0.486515
735.454780,0.483988
735.757520,0.484721
736.060220,0.483939
736.362880,0.477416
736.665500,0.480418
736.968080,0.473401
737.270620,0.476320
737.573120,0.473253
737.875580,0.478835
738.178000,0.470876
738.480380,0.478919
738.782720,0.477644
739.085020,0.475771
739.387280,0.470621
739.689500,0.483012
739.991680,0.472768
740.293820,0.470426
740.595920,0.474680
740.897980,0.476567
741.200000,0.463825
741.501980,0.469914
741.803920,0.466779
742.105820,0.464185
742.407680,0.478160
742.709500,0.463636
743.011280,0.466589
743.313020,0.455652
743.614720,0.450958
743.916380,0.456395
744.218000,0.461217
744.519580,0.469807
744.821120,0.475449
745.122620,0.450569
745.424080,0.453726
745.725500,0.472541
746.026880,0.461207
746.328220,0.459309
746.629520,0.435280
746.930780,0.449142
747.232000,0.453709
747.533180,0.452715
747.834320,0.456482
748.135420,0.447483
748.436480,0.452277
748.737500,0.454602
749.038480,0.447159
749.339420,0.456752
749.640320,0.453803
749.941180,0.457214
750.242000,0.449121
750.542780,0.441067
750.843520,0.450352
751.144220,0.446154
751.444880,0.455929
751.745500,0.455844
752.046080,0.452213
752.346620,0.429124
752.647120,0.443501
752.947580,0.435964
753.248000,0.435203
753.548380,0.444372
753.848720,0.431423
754.149020,0.419729
754.449280,0.437295
754.749500,0.436629
755.049680,0.435333
755.349820,0.437625
755.649920,0.432915
755.949980,0.428666
756.250000,0.435897
756.549980,0.422442
756.849920,0.422842
757.149820,0.427146
757.449680,0.436304
757.749500,0.436946
758.049280,0.427304
758.349020,0.428373
758.648720,0.428571
758.948380,0.421306
759.248000,0.433288
759.547580,0.430397
759.847120,0.431427
760.146620,0.424899
760.446080,0.424731
760.745500,0.413287
761.044880,0.419744
761.344220,0.418389
761.643520,0.426554
761.942780,0.424073
762.242000,0.420085
762.541180,0.415493
762.840320,0.408708
763.139420,0.414909
763.438480,0.418319
763.737500,0.410751
764.036480,0.415793
764.335420,0.408610
764.634320,0.408177
764.933180,0.410274
765.232000,0.401804
765.530780,0.414737
765.829520,0.415385
766.128220,0.400139
766.426880,0.408671
766.725500,0.406443
767.024080,0.403292
767.322620,0.401107
767.621120,0.401084
767.919580,0.404096
768.218000,0.399453
768.516380,0.394185
768.814720,0.400549
769.113020,0.403170
769.411280,0.399862
769.709500,0.398512
770.007680,0.403545
770.305820,0.403651
770.603920,0.390836
770.901980,0.395492
771.200000,0.385870
771.497980,0.385389
771.795920,0.379933
772.093820,0.391043
772.391680,0.389585
772.689500,0.390541
772.987280,0.383838
773.285020,0.391661
773.582720,0.393919
773.880380,0.391215
774.178000,0.389911
774.475580,0.389149
774.773120,0.384873
775.070620,0.390805
775.368080,0.389446
775.665500,0.380121
775.962880,0.380921
776.260220,0.380888
776.557520,0.378252
776.854780,0.382691
777.152000,0.372016
777.449180,0.382333
777.746320,0.372312
778.043420,0.386767
778.340480,0.383627
778.637500,0.379310
778.934480,0.375252
779.231420,0.380597
779.528320,0.370073
779.825180,0.364295
780.122000,0.376494
780.418780,0.380301
780.715520,0.360161
781.012220,0.376027
781.308880,0.371197
781.605500,0.365068
781.902080,0.369610
782.198620,0.370472
782.495120,0.371056
782.791580,0.367263
783.088000,0.371291
783.384380,0.361073
783.680720,0.369357
783.977020,0.363386
784.273280,0.370629
784.569500,0.363382
784.865680,0.367177
785.161820,0.359722
785.457920,0.356895
785.753980,0.366364
786.050000,0.351519
786.345980,0.361111
786.641920,0.353921
786.937820,0.364672
787.233680,0.348643
787.529500,0.345354
787.825280,0.362606
788.121020,0.352691
788.416720,0.350741
788.712380,0.351199
789.008000,0.344901
789.303580,0.351237
789.599120,0.352000
789.894620,0.353791
790.190080,0.349529
790.485500,0.349172
790.780880,0.341935
791.076220,0.346320
791.371520,0.338417
791.666780,0.349818
791.962000,0.342395
792.257180,0.346266
792.552320,0.355330
792.847420,0.333333
793.142480,0.347253
793.437500,0.340810
793.732480,0.344550
794.027420,0.333828
794.322320,0.330350
794.617180,0.330609
794.912000,0.340267
795.206780,0.334825
795.501520,0.341445
795.796220,0.328889
796.090880,0.336850
796.385500,0.335832
796.680080,0.332835
796.974620,0.329341
797.269120,0.332324
797.563580,0.329771
797.858000,0.334093
798.152380,0.334107
798.446720,0.331538
798.741020,0.340524
799.035280,0.322981
799.329500,0.318707
799.623680,0.334109
