399.985280,0.324324
400.329500,0.378378
400.673680,0.392405
401.017820,0.338235
401.361920,0.469697
401.705980,0.365854
402.050000,0.389610
402.393980,0.423529
402.737920,0.393258
403.081820,0.402062
403.425680,0.430233
403.769500,0.333333
404.113280,0.356322
404.457020,0.404494
404.800720,0.347826
405.144380,0.464646
405.488000,0.354839
405.831580,0.391753
406.175120,0.372340
406.518620,0.420000
406.862080,0.422680
407.205500,0.375000
407.548880,0.377551
407.892220,0.411765
408.235520,0.393617
408.578780,0.438095
408.922000,0.346154
409.265180,0.414141
409.608320,0.404040
409.951420,0.412371
410.294480,0.411765
410.637500,0.423913
410.980480,0.352941
411.323420,0.387755
411.666320,0.330275
412.009180,0.354545
412.352000,0.386139
412.694780,0.376147
413.037520,0.385321
413.380220,0.432432
413.722880,0.383929
414.065500,0.396396
414.408080,0.345133
414.750620,0.398230
415.093120,0.322314
415.435580,0.369748
415.778000,0.371212
416.120380,0.336134
416.462720,0.349206
416.805020,0.360902
417.147280,0.373134
417.489500,0.407143
417.831680,0.356164
418.173820,0.340426
418.515920,0.356643
418.857980,0.335443
419.200000,0.352564
419.541980,0.360947
419.883920,0.365169
420.225820,0.369942
420.567680,0.357542
420.909500,0.349727
421.251280,0.364583
421.593020,0.331633
421.934720,0.318182
422.276380,0.348718
422.618000,0.352941
422.959580,0.343137
423.301120,0.333333
423.642620,0.295652
423.984080,0.325581
424.325500,0.345291
424.666880,0.340517
425.008220,0.340336
425.349520,0.313559
425.690780,0.315385
426.032000,0.298039
426.373180,0.319502
426.714320,0.308594
427.055420,0.289575
427.396480,0.310861
427.737500,0.324111
428.078480,0.308300
428.419420,0.349398
428.760320,0.298851
429.101180,0.322835
429.442000,0.318008
429.782780,0.307692
430.123520,0.325490
430.464220,0.295203
430.804880,0.344828
431.145500,0.276364
431.486080,0.299625
431.826620,0.321705
432.167120,0.286765
432.507580,0.307971
432.848000,0.298561
433.188380,0.292419
433.528720,0.298113
433.869020,0.300000
434.209280,0.277193
434.549500,0.278746
434.889680,0.286195
435.229820,0.279863
435.569920,0.280277
435.909980,0.278317
436.250000,0.277966
436.589980,0.275542
436.929920,0.273016
437.269820,0.260188
437.609680,0.281065
437.949500,0.283133
438.289280,0.291785
438.629020,0.270349
438.968720,0.281977
439.308380,0.257453
439.648000,0.265753
439.987580,0.272487
440.327120,0.272000
440.666620,0.251948
441.006080,0.265985
441.345500,0.270270
441.684880,0.246411
442.024220,0.263027
442.363520,0.261905
442.702780,0.245455
443.042000,0.262115
443.381180,0.260776
443.720320,0.263499
444.059420,0.235294
444.398480,0.248954
444.737500,0.250000
445.076480,0.250000
445.415420,0.259481
445.754320,0.222453
446.093180,0.225688
446.432000,0.244361
446.770780,0.252372
447.109520,0.257353
447.448220,0.241503
447.786880,0.250447
448.125500,0.239655
448.464080,0.242857
448.802620,0.232270
449.141120,0.230104
449.479580,0.230769
449.818000,0.246127
450.156380,0.232441
450.494720,0.231405
450.833020,0.229021
451.171280,0.231164
451.509500,0.245645
451.847680,0.222597
452.185820,0.225473
452.523920,0.233677
452.861980,0.220911
453.200000,0.207641
453.537980,0.210084
453.875920,0.208403
454.213820,0.210616
454.551680,0.216887
454.889500,0.209106
455.227280,0.206406
455.565020,0.209380
455.902720,0.219634
456.240380,0.207987
456.578000,0.221254
456.915580,0.219344
457.253120,0.197368
457.590620,0.197044
457.928080,0.213805
458.265500,0.211149
458.602880,0.204545
458.940220,0.197970
459.277520,0.201600
459.614780,0.202946
459.952000,0.194099
460.289180,0.212025
460.626320,0.200000
460.963420,0.200323
461.300480,0.204893
461.637500,0.192604
461.974480,0.198777
462.311420,0.195231
462.648320,0.197657
462.985180,0.183644
463.322000,0.200893
463.658780,0.183702
463.995520,0.184319
464.332220,0.189751
464.668880,0.194892
465.005500,0.186327
465.342080,0.193342
465.678620,0.194342
466.015120,0.188875
466.351580,0.195954
466.688000,0.182704
467.024380,0.188335
467.360720,0.186364
467.697020,0.186788
468.033280,0.183333
468.369500,0.177704
468.705680,0.186020
469.041820,0.178125
469.377920,0.177874
469.713980,0.170958
470.050000,0.188406
470.385980,0.189824
470.721920,0.176298
471.057820,0.177388
471.393680,0.177736
471.729500,0.175162
472.065280,0.181574
472.401020,0.173759
472.736720,0.177138
473.072380,0.174147
473.408000,0.176675
473.743580,0.175606
474.079120,0.182601
474.414620,0.183206
474.750080,0.175753
475.085500,0.175164
475.420880,0.173189
475.756220,0.174980
476.091520,0.176471
476.426780,0.173139
476.762000,0.166533
477.097180,0.170400
477.432320,0.168821
477.767420,0.180556
478.102480,0.173228
478.437500,0.172414
478.772480,0.165485
479.107420,0.170871
479.442320,0.178257
479.777180,0.176611
480.112000,0.174884
480.446780,0.166797
480.781520,0.177939
481.116220,0.170574
481.450880,0.175644
481.785500,0.174051
482.120080,0.178683
482.454620,0.176379
482.789120,0.173567
483.123580,0.173676
483.458000,0.178797
483.792380,0.172524
484.126720,0.174517
484.461020,0.177205
484.795280,0.172706
485.129500,0.179267
485.463680,0.175194
485.797820,0.178849
486.131920,0.173680
486.465980,0.176834
486.800000,0.174809
487.133980,0.179758
487.467920,0.177506
487.801820,0.177727
488.135680,0.175133
488.469500,0.178517
488.803280,0.181278
489.137020,0.175092
489.470720,0.180267
489.804380,0.184855
490.138000,0.186202
490.471580,0.178335
490.805120,0.178699
491.138620,0.179815
491.472080,0.175972
491.805500,0.177127
492.138880,0.187630
492.472220,0.179931
492.805520,0.192737
493.138780,0.184700
493.472000,0.175920
493.805180,0.193042
494.138320,0.190794
494.471420,0.184896
494.804480,0.184994
495.137500,0.182285
495.470480,0.196303
495.803420,0.182620
496.136320,0.188596
496.469180,0.191529
496.802000,0.188264
497.134780,0.193451
497.467520,0.197554
497.800220,0.193396
498.132880,0.185185
498.465500,0.190614
498.798080,0.192352
499.130620,0.200449
499.463120,0.197642
499.795580,0.194719
500.128000,0.194550
500.460380,0.196986
500.792720,0.195122
501.125020,0.194955
501.457280,0.191645
501.789500,0.196798
502.121680,0.208917
502.453820,0.207037
502.785920,0.198599
503.117980,0.202650
503.450000,0.202411
503.781980,0.204783
504.113920,0.202940
504.445820,0.203695
504.777680,0.200000
505.109500,0.205769
505.441280,0.209369
505.773020,0.202912
506.104720,0.204899
506.436380,0.211074
506.768000,0.208606
507.099580,0.211899
507.431120,0.212178
507.762620,0.218045
508.094080,0.213765
508.425500,0.218487
508.756880,0.213077
509.088220,0.218031
509.419520,0.219274
509.750780,0.217901
510.082000,0.221549
510.413180,0.218793
510.744320,0.220893
511.075420,0.220440
511.406480,0.220969
511.737500,0.215741
512.068480,0.225564
512.399420,0.225822
512.730320,0.219861
513.061180,0.224548
513.392000,0.230005
513.722780,0.233429
514.053520,0.232391
514.384220,0.227878
514.714880,0.228339
515.045500,0.230364
515.376080,0.231961
515.706620,0.236727
516.037120,0.241667
516.367580,0.243963
516.698000,0.238235
517.028380,0.242800
517.358720,0.245432
517.689020,0.244807
518.019280,0.245861
518.349500,0.247846
518.679680,0.249874
519.009820,0.248482
519.339920,0.257014
519.669980,0.250628
520.000000,0.260316
520.329980,0.255054
520.659920,0.248466
520.989820,0.257998
521.319680,0.264403
521.649500,0.257069
521.979280,0.261482
522.309020,0.256743
522.638720,0.257040
522.968380,0.268873
523.298000,0.269833
523.627580,0.260217
523.957120,0.277403
524.286620,0.271496
524.616080,0.266287
524.945500,0.270284
525.274880,0.275013
525.604220,0.272774
525.933520,0.275681
526.262780,0.267106
526.592000,0.280568
526.921180,0.286948
527.250320,0.280568
527.579420,0.281961
527.908480,0.285574
528.237500,0.286495
528.566480,0.282934
528.895420,0.293741
529.224320,0.292719
529.553180,0.293012
529.882000,0.299270
530.210780,0.292954
530.539520,0.291946
530.868220,0.297271
531.196880,0.294314
531.525500,0.307990
531.854080,0.300188
532.182620,0.298926
532.511120,0.303480
532.839580,0.308530
533.168000,0.310392
533.496380,0.304566
533.824720,0.308659
534.153020,0.313865
534.481280,0.313216
534.809500,0.314864
535.137680,0.310764
535.465820,0.317010
535.793920,0.320220
536.121980,0.324381
536.450000,0.328118
536.777980,0.331378
537.105920,0.327107
537.433820,0.327741
537.761680,0.328980
538.089500,0.331849
538.417280,0.321528
538.745020,0.334786
539.072720,0.327216
539.400380,0.336053
539.728000,0.334226
540.055580,0.341199
540.383120,0.338421
540.710620,0.333705
541.038080,0.341940
541.365500,0.338603
541.692880,0.343750
542.020220,0.345808
542.347520,0.348887
542.674780,0.353564
543.002000,0.360042
543.329180,0.352859
543.656320,0.356188
543.983420,0.352821
544.310480,0.354060
544.637500,0.367110
544.964480,0.355653
545.291420,0.359588
545.618320,0.364210
545.945180,0.360910
546.272000,0.360419
546.598780,0.364798
546.925520,0.369601
547.252220,0.373721
547.578880,0.367872
547.905500,0.373203
548.232080,0.376543
548.558620,0.374227
548.885120,0.375532
549.211580,0.381549
549.538000,0.382296
549.864380,0.375884
550.190720,0.383274
550.517020,0.382660
550.843280,0.387948
551.169500,0.384860
551.495680,0.390933
551.821820,0.387655
552.147920,0.391672
552.473980,0.391834
552.800000,0.390778
553.125980,0.394565
553.451920,0.402123
553.777820,0.405063
554.103680,0.410516
554.429500,0.401071
554.755280,0.395861
555.081020,0.401738
555.406720,0.406366
555.732380,0.401220
556.058000,0.410726
556.383580,0.406710
556.709120,0.405238
557.034620,0.405787
557.360080,0.408636
557.685500,0.417012
558.010880,0.403466
558.336220,0.416169
558.661520,0.414392
558.986780,0.423459
559.312000,0.416311
559.637180,0.420826
559.962320,0.416518
560.287420,0.434415
560.612480,0.426265
560.937500,0.430617
561.262480,0.422287
561.587420,0.424737
561.912320,0.431835
562.237180,0.433013
562.562000,0.438085
562.886780,0.438127
563.211520,0.432563
563.536220,0.435993
563.860880,0.441343
564.185500,0.444278
564.510080,0.438676
564.834620,0.441384
565.159120,0.439850
565.483580,0.445458
565.808000,0.437760
566.132380,0.441999
566.456720,0.451247
566.781020,0.456114
567.105280,0.454442
567.429500,0.457132
567.753680,0.456847
568.077820,0.457673
568.401920,0.469824
568.725980,0.457306
569.050000,0.464259
569.373980,0.461363
569.697920,0.464922
570.021820,0.464794
570.345680,0.466896
570.669500,0.462419
570.993280,0.465855
571.317020,0.469492
571.640720,0.469063
571.964380,0.469562
572.288000,0.472181
572.611580,0.472482
572.935120,0.468762
573.258620,0.483171
573.582080,0.481371
573.905500,0.476545
574.228880,0.485152
574.552220,0.484793
574.875520,0.478034
575.198780,0.472353
575.522000,0.484238
575.845180,0.479585
576.168320,0.482213
576.491420,0.500363
576.814480,0.490054
577.137500,0.493146
577.460480,0.487858
577.783420,0.488389
578.106320,0.503561
578.429180,0.496642
578.752000,0.496353
579.074780,0.503034
579.397520,0.498709
579.720220,0.496461
580.042880,0.503799
580.365500,0.500000
580.688080,0.508141
581.010620,0.506581
581.333120,0.495992
581.655580,0.513154
581.978000,0.510476
582.300380,0.502110
582.622720,0.505603
582.945020,0.506502
583.267280,0.514490
583.589500,0.512039
583.911680,0.512226
584.233820,0.512118
584.555920,0.522219
584.877980,0.517588
585.200000,0.520565
585.521980,0.522706
585.843920,0.528371
586.165820,0.518586
586.487680,0.517906
586.809500,0.522052
587.131280,0.520852
587.453020,0.533036
587.774720,0.528977
588.096380,0.524796
588.418000,0.537313
588.739580,0.526876
589.061120,0.529327
589.382620,0.539828
589.704080,0.534081
590.025500,0.534532
590.346880,0.541596
590.668220,0.537104
590.989520,0.532446
591.310780,0.541011
591.632000,0.536885
591.953180,0.539718
592.274320,0.535354
592.595420,0.537985
592.916480,0.544961
593.237500,0.548100
593.558480,0.540490
593.879420,0.543566
594.200320,0.544602
594.521180,0.546614
594.842000,0.551854
595.162780,0.552885
595.483520,0.547195
595.804220,0.553169
596.124880,0.551825
596.445500,0.545717
596.766080,0.556870
597.086620,0.555467
597.407120,0.552133
597.727580,0.562981
598.048000,0.556996
598.368380,0.556549
598.688720,0.563303
599.009020,0.554671
599.329280,0.554550
599.649500,0.549921
599.969680,0.563034
600.289820,0.565972
600.609920,0.554902
600.929980,0.553982
601.250000,0.561081
601.569980,0.557116
601.889920,0.558941
602.209820,0.561418
602.529680,0.573743
602.849500,0.566830
603.169280,0.571507
603.489020,0.564351
603.808720,0.558694
604.128380,0.567053
604.448000,0.561878
604.767580,0.569832
605.087120,0.560111
605.406620,0.566191
605.726080,0.577702
606.045500,0.559487
606.364880,0.562518
606.684220,0.569103
607.003520,0.569381
607.322780,0.568505
607.642000,0.567777
607.961180,0.572420
608.280320,0.574246
608.599420,0.575608
608.918480,0.579179
609.237500,0.577758
609.556480,0.577390
609.875420,0.577377
610.194320,0.570121
610.513180,0.578278
610.832000,0.574151
611.150780,0.573445
611.469520,0.583409
611.788220,0.582225
612.106880,0.573884
612.425500,0.575822
612.744080,0.592182
613.062620,0.580428
613.381120,0.573126
613.699580,0.576640
614.018000,0.585381
614.336380,0.580506
614.654720,0.580465
614.973020,0.580685
615.291280,0.587543
615.609500,0.591442
615.927680,0.583127
616.245820,0.583179
616.563920,0.582841
616.881980,0.581540
617.200000,0.575428
617.517980,0.583385
617.835920,0.580926
618.153820,0.580354
618.471680,0.582946
618.789500,0.586532
619.107280,0.583099
619.425020,0.580400
619.742720,0.582235
620.060380,0.581322
620.378000,0.583386
620.695580,0.583972
621.013120,0.591496
621.330620,0.593348
621.648080,0.585489
621.965500,0.583124
622.282880,0.583859
622.600220,0.584018
622.917520,0.586957
623.234780,0.591128
623.552000,0.587206
623.869180,0.596911
624.186320,0.597262
624.503420,0.592790
624.820480,0.588124
625.137500,0.588254
625.454480,0.582057
625.771420,0.592371
626.088320,0.588903
626.405180,0.584630
626.722000,0.592221
627.038780,0.585213
627.355520,0.583750
627.672220,0.592535
627.988880,0.589114
628.305500,0.594889
628.622080,0.597584
628.938620,0.590520
629.255120,0.590853
629.571580,0.589641
629.888000,0.594661
630.204380,0.594047
630.520720,0.593541
630.837020,0.598828
631.153280,0.596523
631.469500,0.593087
631.785680,0.603074
632.101820,0.594089
632.417920,0.589866
632.733980,0.585834
633.050000,0.597635
633.365980,0.590101
633.681920,0.592780
633.997820,0.598326
634.313680,0.596579
634.629500,0.591566
634.945280,0.590909
635.261020,0.593484
635.576720,0.601879
635.892380,0.594249
636.208000,0.592098
636.523580,0.593101
636.839120,0.600753
637.154620,0.599420
637.470080,0.588522
637.785500,0.606975
638.100880,0.595135
638.416220,0.595341
638.731520,0.591691
639.046780,0.595398
639.362000,0.591170
639.677180,0.598515
639.992320,0.591768
640.307420,0.593706
640.622480,0.596472
640.937500,0.594175
641.252480,0.598715
641.567420,0.597613
641.882320,0.593263
642.197180,0.598540
642.512000,0.597817
642.826780,0.596394
643.141520,0.597110
643.456220,0.600719
643.770880,0.601161
644.085500,0.595305
644.400080,0.598315
644.714620,0.595875
645.029120,0.593509
645.343580,0.596544
645.658000,0.598668
645.972380,0.591395
646.286720,0.592532
646.601020,0.597564
646.915280,0.593913
647.229500,0.595604
647.543680,0.588511
647.857820,0.586292
648.171920,0.584645
648.485980,0.592765
648.800000,0.589419
649.113980,0.595067
649.427920,0.594452
649.741820,0.585326
650.055680,0.595721
650.369500,0.597253
650.683280,0.583796
650.997020,0.596260
651.310720,0.591635
651.624380,0.589011
651.938000,0.593906
652.251580,0.592541
652.565120,0.586641
652.878620,0.591216
653.192080,0.583708
653.505500,0.584292
653.818880,0.593688
654.132220,0.589006
654.445520,0.588486
654.758780,0.585836
655.072000,0.584814
655.385180,0.580314
655.698320,0.582738
656.011420,0.586701
656.324480,0.580880
656.637500,0.576188
656.950480,0.581621
657.263420,0.580254
657.576320,0.579603
657.889180,0.587437
658.202000,0.583937
658.514780,0.583805
658.827520,0.580732
659.140220,0.585256
659.452880,0.578979
659.765500,0.578868
660.078080,0.571772
660.390620,0.571036
660.703120,0.576230
661.015580,0.574540
661.328000,0.585642
661.640380,0.587139
661.952720,0.582062
662.265020,0.574669
662.577280,0.572519
662.889500,0.577105
663.201680,0.576579
663.513820,0.576391
663.825920,0.573807
664.137980,0.584034
664.450000,0.572251
664.761980,0.574468
665.073920,0.570919
665.385820,0.573298
665.697680,0.569917
666.009500,0.583306
666.321280,0.573559
666.633020,0.574136
666.944720,0.566566
667.256380,0.569314
667.568000,0.569633
667.879580,0.569048
668.191120,0.568338
668.502620,0.556659
668.814080,0.578246
669.125500,0.575094
669.436880,0.568119
669.748220,0.563863
670.059520,0.570378
670.370780,0.558455
670.682000,0.561770
670.993180,0.568358
671.304320,0.565401
671.615420,0.557528
671.926480,0.569908
672.237500,0.559843
672.548480,0.558552
672.859420,0.568978
673.170320,0.565832
673.481180,0.570239
673.792000,0.558240
674.102780,0.562298
674.413520,0.560335
674.724220,0.555354
675.034880,0.568757
675.345500,0.555434
675.656080,0.553902
675.966620,0.556930
676.277120,0.551080
676.587580,0.565906
676.898000,0.555058
677.208380,0.549723
677.518720,0.541575
677.829020,0.548780
678.139280,0.551149
678.449500,0.565540
678.759680,0.548520
679.069820,0.546097
679.379920,0.551867
679.689980,0.548459
680.000000,0.546542
680.309980,0.553823
680.619920,0.550928
680.929820,0.542367
681.239680,0.541359
681.549500,0.542963
681.859280,0.545183
682.169020,0.540843
682.478720,0.549364
682.788380,0.541528
683.098000,0.540015
683.407580,0.542964
683.717120,0.539414
684.026620,0.537274
684.336080,0.538462
684.645500,0.529742
684.954880,0.537590
685.264220,0.538694
685.573520,0.544347
685.882780,0.540852
686.192000,0.527088
686.501180,0.537268
686.810320,0.543428
687.119420,0.533257
687.428480,0.532472
687.737500,0.533768
688.046480,0.529908
688.355420,0.520558
688.664320,0.532517
688.973180,0.530245
689.282000,0.530478
689.590780,0.530675
689.899520,0.525636
690.208220,0.533639
690.516880,0.530355
690.825500,0.522642
691.134080,0.517464
691.442620,0.520579
691.751120,0.526356
692.059580,0.525029
692.368000,0.519879
692.676380,0.532443
692.984720,0.520992
693.293020,0.526976
693.601280,0.529950
693.909500,0.520621
694.217680,0.513328
694.525820,0.522087
694.833920,0.510874
695.141980,0.519861
695.450000,0.508779
695.757980,0.514897
696.065920,0.513786
696.373820,0.518861
696.681680,0.509781
696.989500,0.512929
697.297280,0.509140
697.605020,0.520238
697.912720,0.509992
698.220380,0.508068
698.528000,0.516218
698.835580,0.512051
699.143120,0.510522
699.450620,0.507160
699.758080,0.500784
700.065500,0.502793
700.372880,0.514000
700.680220,0.512565
700.987520,0.508333
701.294780,0.501217
701.602000,0.504358
701.909180,0.510334
702.216320,0.498240
702.523420,0.499211
702.830480,0.508119
703.137500,0.496882
703.444480,0.495069
703.751420,0.492308
704.058320,0.492283
704.365180,0.489748
704.672000,0.502178
704.978780,0.498244
705.285520,0.491784
705.592220,0.489804
705.898880,0.491726
706.205500,0.485915
706.512080,0.490521
706.818620,0.498452
707.125120,0.481538
707.431580,0.484174
707.738000,0.487500
708.044380,0.483597
708.350720,0.485671
708.657020,0.494334
708.963280,0.481755
709.269500,0.488845
709.575680,0.491552
709.881820,0.485849
710.187920,0.485603
710.493980,0.483708
710.800000,0.480549
711.105980,0.476280
711.411920,0.480489
711.717820,0.475244
712.023680,0.479984
712.329500,0.486987
712.635280,0.481783
712.941020,0.475841
713.246720,0.469170
713.552380,0.472135
713.858000,0.474182
714.163580,0.468824
714.469120,0.468542
714.774620,0.471378
715.080080,0.478210
715.385500,0.481615
715.690880,0.465483
715.996220,0.469493
716.301520,0.462055
716.606780,0.464230
716.912000,0.466882
717.217180,0.471269
717.522320,0.464811
717.827420,0.470708
718.132480,0.464472
718.437500,0.462291
718.742480,0.455645
719.047420,0.458738
719.352320,0.459942
719.657180,0.461161
719.962000,0.454921
720.266780,0.451600
720.571520,0.453604
720.876220,0.446809
721.180880,0.449415
721.485500,0.447555
721.790080,0.448408
722.094620,0.454974
722.399120,0.461870
722.703580,0.450922
723.008000,0.445882
723.312380,0.444684
723.616720,0.442839
723.921020,0.441750
724.225280,0.438918
724.529500,0.443082
724.833680,0.458630
725.137820,0.443612
725.441920,0.434686
725.745980,0.433557
726.050000,0.433018
726.353980,0.434430
726.657920,0.433648
726.961820,0.439726
727.265680,0.439667
727.569500,0.430530
727.873280,0.427714
728.177020,0.437586
728.480720,0.434722
728.784380,0.431188
729.088000,0.435704
729.391580,0.431549
729.695120,0.433781
729.998620,0.439293
730.302080,0.418068
730.605500,0.423096
730.908880,0.428711
731.212220,0.421645
731.515520,0.421258
731.818780,0.419903
732.122000,0.423228
732.425180,0.428290
732.728320,0.417947
733.031420,0.417043
733.334480,0.413776
733.637500,0.417843
733.940480,0.428352
734.243420,0.416922
734.546320,0.416494
734.849180,0.417355
735.152000,0.415456
735.454780,0.414773
735.757520,0.417808
736.060220,0.419695
736.362880,0.413340
736.665500,0.405222
736.968080,0.420742
737.270620,0.412085
737.573120,0.417576
737.875580,0.409566
738.178000,0.412629
738.480380,0.409730
738.782720,0.409487
739.085020,0.399780
739.387280,0.405211
739.689500,0.398641
739.991680,0.398652
740.293820,0.403538
740.595920,0.404563
740.897980,0.403727
741.200000,0.401010
741.501980,0.411461
741.803920,0.399775
742.105820,0.398195
742.407680,0.396622
742.709500,0.393750
743.011280,0.396835
743.313020,0.380290
743.614720,0.380731
743.916380,0.383721
744.218000,0.389021
744.519580,0.398551
744.821120,0.392814
745.122620,0.380467
745.424080,0.375000
745.725500,0.389861
746.026880,0.394089
746.328220,0.389026
746.629520,0.376881
746.930780,0.386642
747.232000,0.388105
747.533180,0.388652
747.834320,0.382836
748.135420,0.379739
748.436480,0.376794
748.737500,0.382952
749.038480,0.370800
749.339420,0.370877
749.640320,0.382778
749.941180,0.384760
750.242000,0.376884
750.542780,0.375931
750.843520,0.372838
751.144220,0.375641
751.444880,0.374128
751.745500,0.359740
752.046080,0.379089
752.346620,0.369845
752.647120,0.370346
752.947580,0.366106
753.248000,0.367505
753.548380,0.360442
753.848720,0.376046
754.149020,0.353965
754.449280,0.362443
754.749500,0.368281
755.049680,0.360000
755.349820,0.367578
755.649920,0.368143
755.949980,0.367618
756.250000,0.363577
756.549980,0.344554
756.849920,0.354181
757.149820,0.360612
757.449680,0.359736
757.749500,0.356510
758.049280,0.356997
758.349020,0.353964
758.648720,0.351277
758.948380,0.349141
759.248000,0.357143
759.547580,0.355750
759.847120,0.348036
760.146620,0.349797
760.446080,0.354167
760.745500,0.352448
761.044880,0.352273
761.344220,0.353528
761.643520,0.354520
761.942780,0.350595
762.242000,0.359264
762.541180,0.345775
762.840320,0.343399
763.139420,0.346695
763.438480,0.343131
763.737500,0.343212
764.036480,0.343816
764.335420,0.345095
764.634320,0.340956
764.933180,0.338356
765.232000,0.346287
765.530780,0.339649
765.829520,0.337762
766.128220,0.340988
766.426880,0.336176
766.725500,0.343386
767.024080,0.336763
767.322620,0.334716
767.621120,0.326558
767.919580,0.324915
768.218000,0.329001
768.516380,0.329277
768.814720,0.319616
769.113020,0.337698
769.411280,0.329420
769.709500,0.332882
770.007680,0.321063
770.305820,0.335362
770.603920,0.318733
770.901980,0.328552
771.200000,0.323370
771.497980,0.321716
771.795920,0.325753
772.093820,0.317513
772.391680,0.326302
772.689500,0.320946
772.987280,0.314478
773.285020,0.319891
773.582720,0.318919
773.880380,0.317776
774.178000,0.308112
774.475580,0.320161
774.773120,0.310576
775.070620,0.316430
775.368080,0.317301
775.665500,0.302888
775.962880,0.312208
776.260220,0.306864
776.557520,0.320213
776.854780,0.308993
777.152000,0.299072
777.449180,0.310856
777.746320,0.301747
778.043420,0.308322
778.340480,0.310555
778.637500,0.306288
778.934480,0.300605
779.231420,0.303935
779.528320,0.305945
779.825180,0.301054
780.122000,0.304781
780.418780,0.308482
780.715520,0.301140
781.012220,0.307534
781.308880,0.298851
781.605500,0.305479
781.902080,0.296372
782.198620,0.300752
782.495120,0.301783
782.791580,0.304677
783.088000,0.300897
783.384380,0.305365
783.680720,0.301642
783.977020,0.286992
784.273280,0.296503
784.569500,0.292802
784.865680,0.294159
785.161820,0.292361
785.457920,0.286209
785.753980,0.290300
786.050000,0.283840
786.345980,0.286111
786.641920,0.291464
786.937820,0.294160
787.233680,0.289492
787.529500,0.291262
787.825280,0.288952
788.121020,0.279745
788.416720,0.280169
788.712380,0.287024
789.008000,0.283994
789.303580,0.283392
789.599120,0.286545
789.894620,0.282310
790.190080,0.289340
790.485500,0.290137
790.780880,0.281004
791.076220,0.278499
791.371520,0.274510
791.666780,0.285091
791.962000,0.281411
792.257180,0.276720
792.552320,0.281363
792.847420,0.274381
793.142480,0.277656
793.437500,0.277858
793.732480,0.275055
794.027420,0.271513
794.322320,0.269948
794.617180,0.269688
794.912000,0.268945
795.206780,0.265474
795.501520,0.274525
795.796220,0.265926
796.090880,0.265260
796.385500,0.268366
796.680080,0.258040
796.974620,0.271707
797.269120,0.261166
797.563580,0.264885
797.858000,0.270311
798.152380,0.265275
798.446720,0.276154
798.741020,0.269646
799.035280,0.270186
799.329500,0.266359
799.623680,0.263566
