399.985280,0.337838
400.329500,0.418919
400.673680,0.405063
401.017820,0.470588
401.361920,0.454545
401.705980,0.329268
402.050000,0.259740
402.393980,0.411765
402.737920,0.382022
403.081820,0.381443
403.425680,0.383721
403.769500,0.322917
404.113280,0.310345
404.457020,0.415730
404.800720,0.402174
405.144380,0.444444
405.488000,0.376344
405.831580,0.350515
406.175120,0.404255
406.518620,0.380000
406.862080,0.391753
407.205500,0.364583
407.548880,0.346939
407.892220,0.333333
408.235520,0.340426
408.578780,0.409524
408.922000,0.365385
409.265180,0.373737
409.608320,0.272727
409.951420,0.422680
410.294480,0.421569
410.637500,0.358696
410.980480,0.392157
411.323420,0.346939
411.666320,0.394495
412.009180,0.381818
412.352000,0.326733
412.694780,0.403670
413.037520,0.348624
413.380220,0.396396
413.722880,0.392857
414.065500,0.387387
414.408080,0.353982
414.750620,0.353982
415.093120,0.322314
415.435580,0.361345
415.778000,0.363636
416.120380,0.394958
416.462720,0.325397
416.805020,0.368421
417.147280,0.335821
417.489500,0.342857
417.831680,0.294521
418.173820,0.340426
418.515920,0.398601
418.857980,0.335443
419.200000,0.352564
419.541980,0.331361
419.883920,0.331461
420.225820,0.306358
420.567680,0.340782
420.909500,0.311475
421.251280,0.343750
421.593020,0.306122
421.934720,0.333333
422.276380,0.328205
422.618000,0.318627
422.959580,0.343137
423.301120,0.337900
423.642620,0.304348
423.984080,0.297674
424.325500,0.318386
424.666880,0.297414
425.008220,0.302521
425.349520,0.305085
425.690780,0.292308
426.032000,0.286275
426.373180,0.331950
426.714320,0.281250
427.055420,0.301158
427.396480,0.292135
427.737500,0.268775
428.078480,0.284585
428.419420,0.265060
428.760320,0.295019
429.101180,0.314961
429.442000,0.314176
429.782780,0.292308
430.123520,0.309804
430.464220,0.284133
430.804880,0.306513
431.145500,0.287273
431.486080,0.292135
431.826620,0.290698
432.167120,0.312500
432.507580,0.318841
432.848000,0.284173
433.188380,0.292419
433.528720,0.283019
433.869020,0.278571
434.209280,0.252632
434.549500,0.278746
434.889680,0.282828
435.229820,0.262799
435.569920,0.266436
435.909980,0.255663
436.250000,0.281356
436.589980,0.241486
436.929920,0.266667
437.269820,0.257053
437.609680,0.248521
437.949500,0.262048
438.289280,0.240793
438.629020,0.270349
438.968720,0.270349
439.308380,0.249322
439.648000,0.249315
439.987580,0.246032
440.327120,0.250667
440.666620,0.249351
441.006080,0.245524
441.345500,0.240786
441.684880,0.232057
442.024220,0.248139
442.363520,0.226190
442.702780,0.227273
443.042000,0.257709
443.381180,0.256466
443.720320,0.250540
444.059420,0.222689
444.398480,0.236402
444.737500,0.237705
445.076480,0.228175
445.415420,0.235529
445.754320,0.230769
446.093180,0.222018
446.432000,0.219925
446.770780,0.225806
447.109520,0.235294
447.448220,0.223614
447.786880,0.223614
448.125500,0.231034
448.464080,0.208929
448.802620,0.214539
449.141120,0.214533
449.479580,0.209790
449.818000,0.220310
450.156380,0.229097
450.494720,0.209917
450.833020,0.223776
451.171280,0.193493
451.509500,0.212544
451.847680,0.224283
452.185820,0.215146
452.523920,0.223368
452.861980,0.217538
453.200000,0.209302
453.537980,0.200000
453.875920,0.208403
454.213820,0.195205
454.551680,0.198675
454.889500,0.202361
455.227280,0.201068
455.565020,0.209380
455.902720,0.212978
456.240380,0.189684
456.578000,0.191638
456.915580,0.207254
457.253120,0.192434
457.590620,0.208539
457.928080,0.203704
458.265500,0.194257
458.602880,0.198052
458.940220,0.194585
459.277520,0.192000
459.614780,0.206219
459.952000,0.189441
460.289180,0.196203
460.626320,0.179528
460.963420,0.193861
461.300480,0.186544
461.637500,0.172573
461.974480,0.189602
462.311420,0.195231
462.648320,0.180088
462.985180,0.170732
463.322000,0.196429
463.658780,0.178177
463.995520,0.182944
464.332220,0.185596
464.668880,0.188172
465.005500,0.187668
465.342080,0.172855
465.678620,0.185732
466.015120,0.187581
466.351580,0.189633
466.688000,0.181486
467.024380,0.174970
467.360720,0.178409
467.697020,0.185649
468.033280,0.185556
468.369500,0.184327
468.705680,0.195039
469.041820,0.172917
469.377920,0.170282
469.713980,0.188465
470.050000,0.193237
470.385980,0.181018
470.721920,0.180215
471.057820,0.182261
471.393680,0.169317
471.729500,0.174235
472.065280,0.190519
472.401020,0.177305
472.736720,0.182373
473.072380,0.169659
473.408000,0.174064
473.743580,0.179066
474.079120,0.175711
474.414620,0.178117
474.750080,0.169243
475.085500,0.180921
475.420880,0.176520
475.756220,0.176615
476.091520,0.174766
476.426780,0.174757
476.762000,0.168946
477.097180,0.176000
477.432320,0.175283
477.767420,0.175654
478.102480,0.173228
478.437500,0.170772
478.772480,0.170213
479.107420,0.180635
479.442320,0.180655
479.777180,0.178998
480.112000,0.172573
480.446780,0.173811
480.781520,0.173108
481.116220,0.179466
481.450880,0.171741
481.785500,0.185127
482.120080,0.184169
482.454620,0.174048
482.789120,0.181529
483.123580,0.183022
483.458000,0.173259
483.792380,0.178914
484.126720,0.177606
484.461020,0.174863
484.795280,0.187355
485.129500,0.184723
485.463680,0.184496
485.797820,0.184292
486.131920,0.175210
486.465980,0.183784
486.800000,0.192366
487.133980,0.179003
487.467920,0.187452
487.801820,0.191457
488.135680,0.193328
488.469500,0.188351
488.803280,0.190193
489.137020,0.184615
489.470720,0.183976
489.804380,0.190052
490.138000,0.197329
490.471580,0.190862
490.805120,0.185847
491.138620,0.194030
491.472080,0.188693
491.805500,0.188285
492.138880,0.191800
492.472220,0.193772
492.805520,0.194832
493.138780,0.193660
493.472000,0.192642
493.805180,0.198499
494.138320,0.199466
494.471420,0.203125
494.804480,0.195343
495.137500,0.207959
495.470480,0.205226
495.803420,0.200882
496.136320,0.201754
496.469180,0.200737
496.802000,0.197433
497.134780,0.208611
497.467520,0.207339
497.800220,0.208137
498.132880,0.208701
498.465500,0.205098
498.798080,0.203767
499.130620,0.210556
499.463120,0.212240
499.795580,0.207921
500.128000,0.211989
500.460380,0.209903
500.792720,0.214210
501.125020,0.215975
501.457280,0.215144
501.789500,0.217459
502.121680,0.219803
502.453820,0.221826
502.785920,0.217609
503.117980,0.219823
503.450000,0.224008
503.781980,0.223717
504.113920,0.220484
504.445820,0.220224
504.777680,0.222588
505.109500,0.230769
505.441280,0.228489
505.773020,0.226867
506.104720,0.229863
506.436380,0.231898
506.768000,0.229186
507.099580,0.228375
507.431120,0.231850
507.762620,0.239192
508.094080,0.234275
508.425500,0.243697
508.756880,0.245085
509.088220,0.235971
509.419520,0.242551
509.750780,0.236176
510.082000,0.239739
510.413180,0.241824
510.744320,0.245283
511.075420,0.243355
511.406480,0.248707
511.737500,0.247222
512.068480,0.251410
512.399420,0.251174
512.730320,0.246651
513.061180,0.253092
513.392000,0.248462
513.722780,0.259366
514.053520,0.253474
514.384220,0.255947
514.714880,0.254667
515.045500,0.252395
515.376080,0.261985
515.706620,0.260594
516.037120,0.259314
516.367580,0.257762
516.698000,0.266176
517.028380,0.264647
517.358720,0.267160
517.689020,0.270030
518.019280,0.267938
518.349500,0.273188
518.679680,0.271580
519.009820,0.273785
519.339920,0.277555
519.669980,0.282270
520.000000,0.283749
520.329980,0.279938
520.659920,0.280164
520.989820,0.287410
521.319680,0.291152
521.649500,0.280720
521.979280,0.290710
522.309020,0.286826
522.638720,0.283666
522.968380,0.288004
523.298000,0.289144
523.627580,0.290740
523.957120,0.296623
524.286620,0.305888
524.616080,0.300414
524.945500,0.300775
525.274880,0.304259
525.604220,0.299689
525.933520,0.300839
526.262780,0.300558
526.592000,0.304414
526.921180,0.310310
527.250320,0.310502
527.579420,0.311774
527.908480,0.312161
528.237500,0.312314
528.566480,0.319361
528.895420,0.317891
529.224320,0.326895
529.553180,0.318072
529.882000,0.324574
530.210780,0.320946
530.539520,0.327900
530.868220,0.322642
531.196880,0.317726
531.525500,0.330266
531.854080,0.328799
532.182620,0.331154
532.511120,0.333643
532.839580,0.337114
533.168000,0.332726
533.496380,0.339269
533.824720,0.340063
534.153020,0.337940
534.481280,0.347137
534.809500,0.352243
535.137680,0.348090
535.465820,0.335911
535.793920,0.342640
536.121980,0.343265
536.450000,0.356025
536.777980,0.357771
537.105920,0.354919
537.433820,0.359656
537.761680,0.365714
538.089500,0.364630
538.417280,0.351771
538.745020,0.367274
539.072720,0.364311
539.400380,0.366356
539.728000,0.355641
540.055580,0.365169
540.383120,0.365227
540.710620,0.370536
541.038080,0.375138
541.365500,0.371324
541.692880,0.375727
542.020220,0.377474
542.347520,0.382986
542.674780,0.375794
543.002000,0.379986
543.329180,0.380919
543.656320,0.386428
543.983420,0.386667
544.310480,0.394156
544.637500,0.392016
544.964480,0.389300
545.291420,0.391492
545.618320,0.391766
545.945180,0.394199
546.272000,0.386632
546.598780,0.395936
546.925520,0.399604
547.252220,0.399142
547.578880,0.395894
547.905500,0.396732
548.232080,0.408057
548.558620,0.410999
548.885120,0.411515
549.211580,0.408872
549.538000,0.410830
549.864380,0.400643
550.190720,0.414272
550.517020,0.412647
550.843280,0.416287
551.169500,0.412532
551.495680,0.422799
551.821820,0.422926
552.147920,0.421926
552.473980,0.421798
552.800000,0.422825
553.125980,0.428946
553.451920,0.426676
553.777820,0.424051
554.103680,0.431749
554.429500,0.427519
554.755280,0.431575
555.081020,0.430147
555.406720,0.430071
555.732380,0.427991
556.058000,0.436524
556.383580,0.439918
556.709120,0.441075
557.034620,0.438167
557.360080,0.437997
557.685500,0.447095
558.010880,0.438821
558.336220,0.435149
558.661520,0.449840
558.986780,0.455705
559.312000,0.449074
559.637180,0.442011
559.962320,0.451050
560.287420,0.452398
560.612480,0.453175
560.937500,0.452276
561.262480,0.455645
561.587420,0.460283
561.912320,0.456890
562.237180,0.457439
562.562000,0.466143
562.886780,0.457079
563.211520,0.456036
563.536220,0.462338
563.860880,0.466616
564.185500,0.463790
564.510080,0.472536
564.834620,0.465203
565.159120,0.471429
565.483580,0.471304
565.808000,0.464624
566.132380,0.476315
566.456720,0.474679
566.781020,0.470743
567.105280,0.469943
567.429500,0.482549
567.753680,0.487534
568.077820,0.483958
568.401920,0.483575
568.725980,0.486148
569.050000,0.482890
569.373980,0.479635
569.697920,0.478195
570.021820,0.482772
570.345680,0.491389
570.669500,0.494849
570.993280,0.491694
571.317020,0.492145
571.640720,0.491664
571.964380,0.487008
572.288000,0.493694
572.611580,0.498315
572.935120,0.495324
573.258620,0.500000
573.582080,0.501863
573.905500,0.503723
574.228880,0.510393
574.552220,0.505313
574.875520,0.505585
575.198780,0.499458
575.522000,0.509897
575.845180,0.507163
576.168320,0.505929
576.491420,0.511265
576.814480,0.511392
577.137500,0.501804
577.460480,0.515042
577.783420,0.506610
578.106320,0.520299
578.429180,0.522800
578.752000,0.520667
579.074780,0.525287
579.397520,0.515817
579.720220,0.519305
580.042880,0.522960
580.365500,0.522171
580.688080,0.526798
581.010620,0.534256
581.333120,0.532064
581.655580,0.528472
581.978000,0.530762
582.300380,0.519636
582.622720,0.532960
582.945020,0.529259
583.267280,0.525562
583.589500,0.533547
583.911680,0.530327
584.233820,0.532263
584.555920,0.536086
584.877980,0.544912
585.200000,0.537753
585.521980,0.543404
585.843920,0.542709
586.165820,0.543571
586.487680,0.539272
586.809500,0.535854
587.131280,0.537119
587.453020,0.546726
587.774720,0.545831
588.096380,0.544632
588.418000,0.544922
588.739580,0.554470
589.061120,0.552616
589.382620,0.550430
589.704080,0.543058
590.025500,0.557078
590.346880,0.557055
590.668220,0.549146
590.989520,0.544370
591.310780,0.549848
591.632000,0.550000
591.953180,0.557708
592.274320,0.551188
592.595420,0.556304
592.916480,0.556099
593.237500,0.556723
593.558480,0.563627
593.879420,0.559212
594.200320,0.561747
594.521180,0.560159
594.842000,0.563944
595.162780,0.562767
595.483520,0.566339
595.804220,0.569012
596.124880,0.566214
596.445500,0.561174
596.766080,0.571390
597.086620,0.570860
597.407120,0.570037
597.727580,0.568815
598.048000,0.568104
598.368380,0.566544
598.688720,0.568545
599.009020,0.572983
599.329280,0.569984
599.649500,0.569731
599.969680,0.571581
600.289820,0.578526
600.609920,0.570398
600.929980,0.572956
601.250000,0.570811
601.569980,0.572239
601.889920,0.574445
602.209820,0.573864
602.529680,0.578687
602.849500,0.576650
603.169280,0.578672
603.489020,0.580958
603.808720,0.569391
604.128380,0.572572
604.448000,0.576796
604.767580,0.569553
605.087120,0.580609
605.406620,0.584663
605.726080,0.577131
606.045500,0.575091
606.364880,0.573008
606.684220,0.583381
607.003520,0.574541
607.322780,0.581580
607.642000,0.582137
607.961180,0.576178
608.280320,0.586427
608.599420,0.576767
608.918480,0.581525
609.237500,0.580106
609.556480,0.584492
609.875420,0.584761
610.194320,0.574550
610.513180,0.588044
610.832000,0.578320
611.150780,0.588465
611.469520,0.585520
611.788220,0.586759
612.106880,0.580519
612.425500,0.583739
612.744080,0.590951
613.062620,0.585015
613.381120,0.580743
613.699580,0.589516
614.018000,0.590295
614.336380,0.586983
614.654720,0.586977
614.973020,0.588399
615.291280,0.586923
615.609500,0.594929
615.927680,0.587454
616.245820,0.588126
616.563920,0.585950
616.881980,0.589024
617.200000,0.590358
617.517980,0.588986
617.835920,0.587760
618.153820,0.582841
618.471680,0.592248
618.789500,0.586847
619.107280,0.590610
619.425020,0.594355
619.742720,0.589768
620.060380,0.580696
620.378000,0.586532
620.695580,0.588123
621.013120,0.584252
621.330620,0.589583
621.648080,0.584858
621.965500,0.587516
622.282880,0.585120
622.600220,0.587176
622.917520,0.592943
623.234780,0.599486
623.552000,0.595162
623.869180,0.591869
624.186320,0.593442
624.503420,0.584953
624.820480,0.590952
625.137500,0.593306
625.454480,0.591122
625.771420,0.591740
626.088320,0.593001
626.405180,0.591164
626.722000,0.595671
627.038780,0.591792
627.355520,0.598437
627.672220,0.601866
627.988880,0.597823
628.305500,0.601433
628.622080,0.586431
628.938620,0.596330
629.255120,0.594275
629.571580,0.588416
629.888000,0.588217
630.204380,0.593434
630.520720,0.592931
630.837020,0.589269
631.153280,0.586930
631.469500,0.596422
631.785680,0.600663
632.101820,0.593486
632.417920,0.593741
632.733980,0.586435
633.050000,0.601273
633.365980,0.596325
633.681920,0.590095
633.997820,0.593545
634.313680,0.595105
634.629500,0.594810
634.945280,0.586217
635.261020,0.595539
635.576720,0.598062
635.892380,0.586698
636.208000,0.597037
636.523580,0.594563
636.839120,0.590909
637.154620,0.591304
637.470080,0.582496
637.785500,0.592907
638.100880,0.594845
638.416220,0.597642
638.731520,0.587106
639.046780,0.591611
639.362000,0.592603
639.677180,0.595089
639.992320,0.588385
640.307420,0.588087
640.622480,0.582470
640.937500,0.590291
641.252480,0.593130
641.567420,0.589088
641.882320,0.579065
642.197180,0.592925
642.512000,0.588301
642.826780,0.596671
643.141520,0.590164
643.456220,0.589098
643.770880,0.591763
644.085500,0.588876
644.400080,0.593258
644.714620,0.588350
645.029120,0.594334
645.343580,0.594350
645.658000,0.592839
645.972380,0.593313
646.286720,0.588989
646.601020,0.595904
646.915280,0.590622
647.229500,0.589286
647.543680,0.581055
647.857820,0.583815
648.171920,0.579219
648.485980,0.587010
648.800000,0.580325
649.113980,0.586197
649.427920,0.585576
649.741820,0.580654
650.055680,0.586122
650.369500,0.582119
650.683280,0.576859
650.997020,0.578658
651.310720,0.573748
651.624380,0.577747
651.938000,0.585319
652.251580,0.577234
652.565120,0.573225
652.878620,0.579673
653.192080,0.580899
653.505500,0.574194
653.818880,0.583452
654.132220,0.575904
654.445520,0.577708
654.758780,0.571955
655.072000,0.573639
655.385180,0.566904
655.698320,0.571592
656.011420,0.573230
656.324480,0.568930
656.637500,0.566338
656.950480,0.569289
657.263420,0.575229
657.576320,0.577231
657.889180,0.570628
658.202000,0.569444
658.514780,0.574576
658.827520,0.564826
659.140220,0.572670
659.452880,0.570220
659.765500,0.569235
660.078080,0.558531
660.390620,0.556981
660.703120,0.573786
661.015580,0.568712
661.328000,0.566751
661.640380,0.563529
661.952720,0.563687
662.265020,0.568368
662.577280,0.560751
662.889500,0.559130
663.201680,0.569560
663.513820,0.563525
663.825920,0.566763
664.137980,0.562379
664.450000,0.547954
664.761980,0.560065
665.073920,0.555339
665.385820,0.564791
665.697680,0.558678
666.009500,0.565015
666.321280,0.563287
666.633020,0.558511
666.944720,0.559488
667.256380,0.554845
667.568000,0.546196
667.879580,0.553401
668.191120,0.561470
668.502620,0.547415
668.814080,0.553684
669.125500,0.553541
669.436880,0.548755
669.748220,0.550363
670.059520,0.550770
670.370780,0.553932
670.682000,0.551150
670.993180,0.553911
671.304320,0.548875
671.615420,0.548295
671.926480,0.543293
672.237500,0.547338
672.548480,0.545777
672.859420,0.544317
673.170320,0.547697
673.481180,0.550326
673.792000,0.540209
674.102780,0.531059
674.413520,0.542836
674.724220,0.540472
675.034880,0.547855
675.345500,0.541940
675.656080,0.539746
675.966620,0.538014
676.277120,0.534237
676.587580,0.537923
676.898000,0.545353
677.208380,0.539002
677.518720,0.533187
677.829020,0.532151
678.139280,0.542995
678.449500,0.535091
678.759680,0.527538
679.069820,0.535316
679.379920,0.544700
679.689980,0.523208
680.000000,0.530093
680.309980,0.528211
680.619920,0.533131
680.929820,0.534901
681.239680,0.525111
681.549500,0.522593
681.859280,0.521658
682.169020,0.524804
682.478720,0.524308
682.788380,0.526024
683.098000,0.528048
683.407580,0.523077
683.717120,0.521021
684.026620,0.519578
684.336080,0.523683
684.645500,0.520015
684.954880,0.519078
685.264220,0.515666
685.573520,0.526837
685.882780,0.521672
686.192000,0.519564
686.501180,0.522512
686.810320,0.525749
687.119420,0.516534
687.428480,0.515382
687.737500,0.515733
688.046480,0.513804
688.355420,0.511505
688.664320,0.517215
688.973180,0.510337
689.282000,0.516204
689.590780,0.513804
689.899520,0.512343
690.208220,0.505352
690.516880,0.510118
690.825500,0.502642
691.134080,0.505695
691.442620,0.506860
691.751120,0.507395
692.059580,0.504776
692.368000,0.498675
692.676380,0.506489
692.984720,0.499618
693.293020,0.502660
693.601280,0.499046
693.909500,0.500946
694.217680,0.495050
694.525820,0.496954
694.833920,0.503625
695.141980,0.497493
695.450000,0.498092
695.757980,0.487777
696.065920,0.489709
696.373820,0.498460
696.681680,0.490219
696.989500,0.494404
697.297280,0.486581
697.605020,0.497619
697.912720,0.494620
698.220380,0.482487
698.528000,0.489320
698.835580,0.485974
699.143120,0.478956
699.450620,0.492045
699.758080,0.489020
700.065500,0.483639
700.372880,0.486800
700.680220,0.482649
700.987520,0.486905
701.294780,0.491484
701.602000,0.482171
701.909180,0.488076
702.216320,0.479859
702.523420,0.486582
702.830480,0.468119
703.137500,0.470772
703.444480,0.482051
703.751420,0.483629
704.058320,0.475267
704.365180,0.479101
704.672000,0.485941
704.978780,0.474054
705.285520,0.473005
705.592220,0.469020
705.898880,0.469661
706.205500,0.467527
706.512080,0.469589
706.818620,0.472523
707.125120,0.466154
707.431580,0.465807
707.738000,0.469922
708.044380,0.459282
708.350720,0.463126
708.657020,0.472450
708.963280,0.463898
709.269500,0.468493
709.575680,0.467583
709.881820,0.463836
710.187920,0.463035
710.493980,0.463150
710.800000,0.459573
711.105980,0.448795
711.411920,0.452109
711.717820,0.453021
712.023680,0.459775
712.329500,0.466088
712.635280,0.459690
712.941020,0.454581
713.246720,0.458893
713.552380,0.448195
713.858000,0.443043
714.163580,0.449092
714.469120,0.440797
714.774620,0.449664
715.080080,0.448371
715.385500,0.455635
715.690880,0.446943
715.996220,0.450872
716.301520,0.443083
716.606780,0.447720
716.912000,0.448708
717.217180,0.442139
717.522320,0.433400
717.827420,0.444264
718.132480,0.440787
718.437500,0.443539
718.742480,0.433871
719.047420,0.439725
719.352320,0.442092
719.657180,0.430908
719.962000,0.440447
720.266780,0.434981
720.571520,0.434548
720.876220,0.430442
721.180880,0.429348
721.485500,0.432511
721.790080,0.422081
722.094620,0.435678
722.399120,0.442913
722.703580,0.424346
723.008000,0.431220
723.312380,0.427464
723.616720,0.419040
723.921020,0.428757
724.225280,0.428010
724.529500,0.420315
724.833680,0.425267
725.137820,0.420264
725.441920,0.425323
725.745980,0.422371
726.050000,0.414073
726.353980,0.417305
726.657920,0.419703
726.961820,0.415068
727.265680,0.412853
727.569500,0.412706
727.873280,0.410162
728.177020,0.406725
728.480720,0.406481
728.784380,0.408643
729.088000,0.406500
729.391580,0.408811
729.695120,0.408829
729.998620,0.404876
730.302080,0.401249
730.605500,0.410480
730.908880,0.400294
731.212220,0.401567
731.515520,0.398342
731.818780,0.399029
732.122000,0.389272
732.425180,0.394776
732.728320,0.403074
733.031420,0.401504
733.334480,0.397449
733.637500,0.397177
733.940480,0.399181
734.243420,0.395005
734.546320,0.404564
734.849180,0.396178
735.152000,0.393154
735.454780,0.389979
735.757520,0.388830
736.060220,0.388099
736.362880,0.386555
736.665500,0.389556
736.968080,0.392800
737.270620,0.393576
737.573120,0.381004
737.875580,0.395822
738.178000,0.383234
738.480380,0.382162
738.782720,0.375136
739.085020,0.379405
739.387280,0.386918
739.689500,0.378256
739.991680,0.384054
740.293820,0.372582
740.595920,0.377295
740.897980,0.374929
741.200000,0.375771
741.501980,0.376504
741.803920,0.371059
742.105820,0.373942
742.407680,0.387303
742.709500,0.370455
743.011280,0.373974
743.313020,0.367536
743.614720,0.360998
743.916380,0.367442
744.218000,0.375298
744.519580,0.366546
744.821120,0.371257
745.122620,0.364290
745.424080,0.363582
745.725500,0.361497
746.026880,0.362069
746.328220,0.366215
746.629520,0.365443
746.930780,0.362132
747.232000,0.361128
747.533180,0.364246
747.834320,0.354839
748.135420,0.349285
748.436480,0.354336
748.737500,0.353922
749.038480,0.348809
749.339420,0.352831
749.640320,0.355751
749.941180,0.357901
750.242000,0.344221
750.542780,0.343672
750.843520,0.349776
751.144220,0.344231
751.444880,0.349398
751.745500,0.346104
752.046080,0.349583
752.346620,0.350515
752.647120,0.341607
752.947580,0.348642
753.248000,0.342360
753.548380,0.338972
753.848720,0.347070
754.149020,0.336557
754.449280,0.345371
754.749500,0.343066
755.049680,0.344667
755.349820,0.337558
755.649920,0.339061
755.949980,0.342402
756.250000,0.342538
756.549980,0.332673
756.849920,0.337865
757.149820,0.326680
757.449680,0.338614
757.749500,0.330607
758.049280,0.329693
758.349020,0.328234
758.648720,0.334714
758.948380,0.330584
759.248000,0.332884
759.547580,0.332885
759.847120,0.328050
760.146620,0.330176
760.446080,0.328629
760.745500,0.330070
761.044880,0.328125
761.344220,0.330007
761.643520,0.322034
761.942780,0.334500
762.242000,0.324611
762.541180,0.325352
762.840320,0.330056
763.139420,0.320675
763.438480,0.315106
763.737500,0.323915
764.036480,0.330538
764.335420,0.317572
764.634320,0.320166
764.933180,0.314384
765.232000,0.313671
765.530780,0.313684
765.829520,0.318182
766.128220,0.321503
766.426880,0.322672
766.725500,0.316655
767.024080,0.315501
767.322620,0.303596
767.621120,0.311653
767.919580,0.314676
768.218000,0.309850
768.516380,0.314402
768.814720,0.308642
769.113020,0.306685
769.411280,0.312155
769.709500,0.303789
770.007680,0.312883
770.305820,0.315754
770.603920,0.299191
770.901980,0.303962
771.200000,0.294837
771.497980,0.299598
771.795920,0.295652
772.093820,0.296123
772.391680,0.297297
772.689500,0.298649
772.987280,0.302357
773.285020,0.299385
773.582720,0.302703
773.880380,0.298559
774.178000,0.294479
774.475580,0.300737
774.773120,0.292503
775.070620,0.297498
775.368080,0.298597
775.665500,0.290128
775.962880,0.294196
776.260220,0.297443
776.557520,0.283522
776.854780,0.291413
777.152000,0.280504
777.449180,0.287256
777.746320,0.277554
778.043420,0.288540
778.340480,0.293640
778.637500,0.292765
778.934480,0.283793
779.231420,0.284261
779.528320,0.273881
779.825180,0.274045
780.122000,0.274236
780.418780,0.282490
780.715520,0.272971
781.012220,0.283562
781.308880,0.279919
781.605500,0.280822
781.902080,0.275154
782.198620,0.272727
782.495120,0.272291
782.791580,0.277854
783.088000,0.286404
783.384380,0.275791
783.680720,0.279754
783.977020,0.275292
784.273280,0.274126
784.569500,0.266247
784.865680,0.267733
785.161820,0.272917
785.457920,0.270963
785.753980,0.266574
786.050000,0.272099
786.345980,0.270833
786.641920,0.262318
786.937820,0.273504
787.233680,0.265832
787.529500,0.264910
787.825280,0.271246
788.121020,0.268414
788.416720,0.262526
788.712380,0.264457
789.008000,0.256374
789.303580,0.263604
789.599120,0.263273
789.894620,0.264982
790.190080,0.259608
790.485500,0.262779
790.780880,0.263082
791.076220,0.261905
791.371520,0.255628
791.666780,0.258909
791.962000,0.256429
792.257180,0.259883
792.552320,0.261059
792.847420,0.252547
793.142480,0.257875
793.437500,0.249638
793.732480,0.250183
794.027420,0.249258
794.322320,0.257271
794.617180,0.250371
794.912000,0.249629
795.206780,0.252051
795.501520,0.253992
795.796220,0.246667
796.090880,0.245667
796.385500,0.242879
796.680080,0.253553
796.974620,0.248503
797.269120,0.251325
797.563580,0.248092
797.858000,0.251329
798.152380,0.248260
798.446720,0.250769
798.741020,0.241140
799.035280,0.239907
799.329500,0.241724
799.623680,0.245736
