399.985280,0.324324
400.329500,0.364865
400.673680,0.291139
401.017820,0.308824
401.361920,0.363636
401.705980,0.280488
402.050000,0.337662
402.393980,0.329412
402.737920,0.370787
403.081820,0.350515
403.425680,0.348837
403.769500,0.281250
404.113280,0.379310
404.457020,0.382022
404.800720,0.315217
405.144380,0.444444
405.488000,0.344086
405.831580,0.412371
406.175120,0.351064
406.518620,0.360000
406.862080,0.360825
407.205500,0.343750
407.548880,0.336735
407.892220,0.323529
408.235520,0.404255
408.578780,0.342857
408.922000,0.307692
409.265180,0.333333
409.608320,0.303030
409.951420,0.371134
410.294480,0.362745
410.637500,0.347826
410.980480,0.392157
411.323420,0.326531
411.666320,0.366972
412.009180,0.363636
412.352000,0.326733
412.694780,0.357798
413.037520,0.339450
413.380220,0.369369
413.722880,0.383929
414.065500,0.378378
414.408080,0.327434
414.750620,0.327434
415.093120,0.322314
415.435580,0.302521
415.778000,0.356061
416.120380,0.369748
416.462720,0.325397
416.805020,0.330827
417.147280,0.291045
417.489500,0.278571
417.831680,0.315068
418.173820,0.319149
418.515920,0.321678
418.857980,0.272152
419.200000,0.314103
419.541980,0.337278
419.883920,0.297753
420.225820,0.294798
420.567680,0.262570
420.909500,0.306011
421.251280,0.333333
421.593020,0.306122
421.934720,0.297980
422.276380,0.292308
422.618000,0.308824
422.959580,0.318627
423.301120,0.310502
423.642620,0.300000
423.984080,0.279070
424.325500,0.309417
424.666880,0.310345
425.008220,0.277311
425.349520,0.288136
425.690780,0.273077
426.032000,0.262745
426.373180,0.265560
426.714320,0.277344
427.055420,0.274131
427.396480,0.273408
427.737500,0.260870
428.078480,0.276680
428.419420,0.265060
428.760320,0.279693
429.101180,0.314961
429.442000,0.287356
429.782780,0.276923
430.123520,0.270588
430.464220,0.276753
430.804880,0.306513
431.145500,0.250909
431.486080,0.277154
431.826620,0.271318
432.167120,0.275735
432.507580,0.268116
432.848000,0.269784
433.188380,0.277978
433.528720,0.256604
433.869020,0.239286
434.209280,0.242105
434.549500,0.250871
434.889680,0.252525
435.229820,0.242321
435.569920,0.242215
435.909980,0.229773
436.250000,0.250847
436.589980,0.232198
436.929920,0.263492
437.269820,0.247649
437.609680,0.248521
437.949500,0.243976
438.289280,0.243626
438.629020,0.247093
438.968720,0.247093
439.308380,0.233062
439.648000,0.232877
439.987580,0.238095
440.327120,0.250667
440.666620,0.225974
441.006080,0.237852
441.345500,0.233415
441.684880,0.248804
442.024220,0.218362
442.363520,0.214286
442.702780,0.225000
443.042000,0.226872
443.381180,0.215517
443.720320,0.233261
444.059420,0.212185
444.398480,0.211297
444.737500,0.217213
445.076480,0.222222
445.415420,0.219561
445.754320,0.220374
446.093180,0.218349
446.432000,0.208647
446.770780,0.223909
447.109520,0.224265
447.448220,0.211091
447.786880,0.212880
448.125500,0.215517
448.464080,0.217857
448.802620,0.216312
449.141120,0.209343
449.479580,0.211538
449.818000,0.208262
450.156380,0.209030
450.494720,0.209917
450.833020,0.209790
451.171280,0.198630
451.509500,0.209059
451.847680,0.193929
452.185820,0.206540
452.523920,0.214777
452.861980,0.207420
453.200000,0.200997
453.537980,0.198319
453.875920,0.206723
454.213820,0.195205
454.551680,0.206954
454.889500,0.204047
455.227280,0.177936
455.565020,0.206030
455.902720,0.209651
456.240380,0.189684
456.578000,0.184669
456.915580,0.193437
457.253120,0.189145
457.590620,0.200328
457.928080,0.203704
458.265500,0.192568
458.602880,0.188312
458.940220,0.181049
459.277520,0.187200
459.614780,0.183306
459.952000,0.186335
460.289180,0.196203
460.626320,0.193701
460.963420,0.182553
461.300480,0.203364
461.637500,0.191063
461.974480,0.207951
462.311420,0.180328
462.648320,0.188873
462.985180,0.182209
463.322000,0.174107
463.658780,0.180939
463.995520,0.184319
464.332220,0.189751
464.668880,0.190860
465.005500,0.189008
465.342080,0.192061
465.678620,0.184502
466.015120,0.188875
466.351580,0.189633
466.688000,0.190012
467.024380,0.193196
467.360720,0.182955
467.697020,0.181093
468.033280,0.178889
468.369500,0.189845
468.705680,0.192785
469.041820,0.176042
469.377920,0.178959
469.713980,0.186406
470.050000,0.185507
470.385980,0.185910
470.721920,0.174339
471.057820,0.185185
471.393680,0.181478
471.729500,0.172382
472.065280,0.183363
472.401020,0.179965
472.736720,0.185864
473.072380,0.177738
473.408000,0.179286
473.743580,0.182526
474.079120,0.183463
474.414620,0.181510
474.750080,0.184703
475.085500,0.193257
475.420880,0.180683
475.756220,0.182339
476.091520,0.180733
476.426780,0.178803
476.762000,0.180209
477.097180,0.188000
477.432320,0.189015
477.767420,0.190359
478.102480,0.192913
478.437500,0.188013
478.772480,0.177305
479.107420,0.183076
479.442320,0.182254
479.777180,0.182180
480.112000,0.186441
480.446780,0.187841
480.781520,0.182770
481.116220,0.189167
481.450880,0.188915
481.785500,0.194620
482.120080,0.183386
482.454620,0.192696
482.789120,0.192675
483.123580,0.190810
483.458000,0.189873
483.792380,0.192492
484.126720,0.192278
484.461020,0.193599
484.795280,0.194295
485.129500,0.200312
485.463680,0.197674
485.797820,0.201400
486.131920,0.192808
486.465980,0.199228
486.800000,0.195420
487.133980,0.203927
487.467920,0.205050
487.801820,0.207475
488.135680,0.203942
488.469500,0.201210
488.803280,0.207281
489.137020,0.202930
489.470720,0.204006
489.804380,0.206385
490.138000,0.210682
490.471580,0.207811
490.805120,0.205861
491.138620,0.206112
491.472080,0.213428
491.805500,0.209205
492.138880,0.214038
492.472220,0.216609
492.805520,0.215782
493.138780,0.228119
493.472000,0.209365
493.805180,0.220327
494.138320,0.211474
494.471420,0.219401
494.804480,0.213454
495.137500,0.211168
495.470480,0.221797
495.803420,0.218514
496.136320,0.226190
496.469180,0.224064
496.802000,0.219438
497.134780,0.226198
497.467520,0.230581
497.800220,0.222877
498.132880,0.226925
498.465500,0.229432
498.798080,0.227740
499.130620,0.224593
499.463120,0.238630
499.795580,0.230473
500.128000,0.228883
500.460380,0.237890
500.792720,0.239130
501.125020,0.235418
501.457280,0.238120
501.789500,0.237087
502.121680,0.240539
502.453820,0.234574
502.785920,0.243122
503.117980,0.242395
503.450000,0.247614
503.781980,0.247633
504.113920,0.237079
504.445820,0.248420
504.777680,0.246588
505.109500,0.250962
505.441280,0.250956
505.773020,0.248004
506.104720,0.250589
506.436380,0.253195
506.768000,0.252572
507.099580,0.246682
507.431120,0.250585
507.762620,0.253289
508.094080,0.252507
508.425500,0.262372
508.756880,0.259717
509.088220,0.268169
509.419520,0.264432
509.750780,0.266167
510.082000,0.261194
510.413180,0.269000
510.744320,0.262310
511.075420,0.272227
511.406480,0.266102
511.737500,0.268981
512.068480,0.280545
512.399420,0.271831
512.730320,0.272055
513.061180,0.273549
513.392000,0.273545
513.722780,0.282421
514.053520,0.280307
514.384220,0.277831
514.714880,0.280038
515.045500,0.281609
515.376080,0.285230
515.706620,0.282026
516.037120,0.286275
516.367580,0.288812
516.698000,0.290196
517.028380,0.290467
517.358720,0.297778
517.689020,0.294263
518.019280,0.299047
518.349500,0.303092
518.679680,0.300353
519.009820,0.296559
519.339920,0.302104
519.669980,0.298845
520.000000,0.303107
520.329980,0.307413
520.659920,0.306748
520.989820,0.312693
521.319680,0.311214
521.649500,0.308997
521.979280,0.311587
522.309020,0.302905
522.638720,0.304147
522.968380,0.320579
523.298000,0.314718
523.627580,0.317124
523.957120,0.312208
524.286620,0.320479
524.616080,0.326784
524.945500,0.322997
525.274880,0.323243
525.604220,0.321946
525.933520,0.324423
526.262780,0.328941
526.592000,0.334348
526.921180,0.334180
527.250320,0.331304
527.579420,0.342092
527.908480,0.334318
528.237500,0.337637
528.566480,0.340818
528.895420,0.345983
529.224320,0.343735
529.553180,0.339277
529.882000,0.348905
530.210780,0.341699
530.539520,0.347555
530.868220,0.343226
531.196880,0.347348
531.525500,0.351090
531.854080,0.348030
532.182620,0.349837
532.511120,0.351740
532.839580,0.363884
533.168000,0.360529
533.496380,0.358447
533.824720,0.363840
534.153020,0.367811
534.481280,0.366079
534.809500,0.366755
535.137680,0.368490
535.465820,0.366409
535.793920,0.365059
536.121980,0.372220
536.450000,0.375476
536.777980,0.384583
537.105920,0.379826
537.433820,0.376432
537.761680,0.377143
538.089500,0.385674
538.417280,0.379626
538.745020,0.390650
539.072720,0.380711
539.400380,0.381896
539.728000,0.394646
540.055580,0.383895
540.383120,0.396500
540.710620,0.381696
541.038080,0.395057
541.365500,0.391912
541.692880,0.400436
542.020220,0.399064
542.347520,0.404882
542.674780,0.402964
543.002000,0.395031
543.329180,0.410032
543.656320,0.413502
543.983420,0.404103
544.310480,0.404689
544.637500,0.416923
544.964480,0.404105
545.291420,0.416085
545.618320,0.411355
545.945180,0.408372
546.272000,0.412189
546.598780,0.421501
546.925520,0.421035
547.252220,0.425223
547.578880,0.419681
547.905500,0.423203
548.232080,0.427550
548.558620,0.430849
548.885120,0.429833
549.211580,0.427837
549.538000,0.434825
549.864380,0.427653
550.190720,0.427188
550.517020,0.431226
550.843280,0.436808
551.169500,0.424618
551.495680,0.437582
551.821820,0.436316
552.147920,0.442420
552.473980,0.442871
552.800000,0.434925
553.125980,0.443353
553.451920,0.439947
553.777820,0.444704
554.103680,0.446242
554.429500,0.448611
554.755280,0.447931
555.081020,0.450535
555.406720,0.454453
555.732380,0.449000
556.058000,0.451120
556.383580,0.456008
556.709120,0.457960
557.034620,0.460558
557.360080,0.460449
557.685500,0.454703
558.010880,0.461698
558.336220,0.466081
558.661520,0.460121
558.986780,0.467753
559.312000,0.455484
559.637180,0.469300
559.962320,0.470986
560.287420,0.470381
560.612480,0.473986
560.937500,0.466960
561.262480,0.472141
561.587420,0.466449
561.912320,0.473102
562.237180,0.473353
562.562000,0.472503
562.886780,0.482349
563.211520,0.476528
563.536220,0.472727
563.860880,0.476424
564.185500,0.479174
564.510080,0.487208
564.834620,0.484183
565.159120,0.482707
565.483580,0.480806
565.808000,0.486568
566.132380,0.484894
566.456720,0.493197
566.781020,0.492123
567.105280,0.490359
567.429500,0.495448
567.753680,0.492137
568.077820,0.498261
568.401920,0.492361
568.725980,0.495256
569.050000,0.497719
569.373980,0.493338
569.697920,0.498673
570.021820,0.492509
570.345680,0.504784
570.669500,0.501717
570.993280,0.502030
571.317020,0.504932
571.640720,0.501667
571.964380,0.497030
572.288000,0.502226
572.611580,0.508049
572.935120,0.511036
573.258620,0.516081
573.582080,0.504098
573.905500,0.516009
574.228880,0.508909
574.552220,0.508978
574.875520,0.510052
575.198780,0.507409
575.522000,0.512097
575.845180,0.506447
576.168320,0.513475
576.491420,0.526890
576.814480,0.520796
577.137500,0.515152
577.460480,0.519029
577.783420,0.523758
578.106320,0.524573
578.429180,0.523860
578.752000,0.526224
579.074780,0.527310
579.397520,0.529051
579.720220,0.520914
580.042880,0.533201
580.365500,0.533422
580.688080,0.532904
581.010620,0.535943
581.333120,0.528056
581.655580,0.533467
581.978000,0.528434
582.300380,0.525479
582.622720,0.531312
582.945020,0.539012
583.267280,0.532725
583.589500,0.539968
583.911680,0.535726
584.233820,0.539817
584.555920,0.540498
584.877980,0.541143
585.200000,0.534070
585.521980,0.546494
585.843920,0.533862
586.165820,0.542657
586.487680,0.538670
586.809500,0.538554
587.131280,0.543922
587.453020,0.547321
587.774720,0.546127
588.096380,0.547841
588.418000,0.550483
588.739580,0.546134
589.061120,0.554917
589.382620,0.553868
589.704080,0.550912
590.025500,0.555936
590.346880,0.556492
590.668220,0.551666
590.989520,0.554354
591.310780,0.544877
591.632000,0.553552
591.953180,0.559923
592.274320,0.550642
592.595420,0.549838
592.916480,0.549036
593.237500,0.555376
593.558480,0.559591
593.879420,0.560561
594.200320,0.559336
594.521180,0.559363
594.842000,0.557496
595.162780,0.566239
595.483520,0.558894
595.804220,0.563641
596.124880,0.568345
596.445500,0.560912
596.766080,0.570315
597.086620,0.565817
597.407120,0.561348
597.727580,0.567224
598.048000,0.559376
598.368380,0.564177
598.688720,0.565924
599.009020,0.573248
599.329280,0.567855
599.649500,0.567618
599.969680,0.567041
600.289820,0.569177
600.609920,0.565856
600.929980,0.565473
601.250000,0.568649
601.569980,0.565217
601.889920,0.567228
602.209820,0.559253
602.529680,0.569074
602.849500,0.564375
603.169280,0.565721
603.489020,0.579851
603.808720,0.565003
604.128380,0.570640
604.448000,0.563812
604.767580,0.571229
605.087120,0.563712
605.406620,0.574027
605.726080,0.576561
606.045500,0.560045
606.364880,0.577828
606.684220,0.577955
607.003520,0.570241
607.322780,0.574474
607.642000,0.566916
607.961180,0.574733
608.280320,0.572216
608.599420,0.568076
608.918480,0.572434
609.237500,0.576878
609.556480,0.577094
609.875420,0.569994
610.194320,0.571597
610.513180,0.573542
610.832000,0.570280
611.150780,0.584260
611.469520,0.578884
611.788220,0.571947
612.106880,0.567853
612.425500,0.573082
612.744080,0.582333
613.062620,0.577676
613.381120,0.571907
613.699580,0.568976
614.018000,0.571560
614.336380,0.581740
614.654720,0.572093
614.973020,0.567109
615.291280,0.581345
615.609500,0.584786
615.927680,0.576020
616.245820,0.569264
616.563920,0.578489
616.881980,0.582476
617.200000,0.575739
617.517980,0.572495
617.835920,0.574402
618.153820,0.574759
618.471680,0.569922
618.789500,0.578980
619.107280,0.580595
619.425020,0.571519
619.742720,0.572819
620.060380,0.563773
620.378000,0.572373
620.695580,0.574393
621.013120,0.574803
621.330620,0.583935
621.648080,0.567192
621.965500,0.571205
622.282880,0.571564
622.600220,0.578016
622.917520,0.579710
623.234780,0.583735
623.552000,0.575111
623.869180,0.571384
624.186320,0.575613
624.503420,0.580878
624.820480,0.581527
625.137500,0.582254
625.454480,0.577681
625.771420,0.568096
626.088320,0.576293
626.405180,0.575607
626.722000,0.574028
627.038780,0.572368
627.355520,0.566562
627.672220,0.578227
627.988880,0.574806
628.305500,0.578062
628.622080,0.575589
628.938620,0.568502
629.255120,0.578718
629.571580,0.577076
629.888000,0.570420
630.204380,0.576557
630.520720,0.571298
630.837020,0.570459
631.153280,0.568945
631.469500,0.568526
631.785680,0.569922
632.101820,0.574186
632.417920,0.569896
632.733980,0.570828
633.050000,0.575197
633.365980,0.571429
633.681920,0.572792
633.997820,0.580096
634.313680,0.572398
634.629500,0.568859
634.945280,0.573900
635.261020,0.574112
635.576720,0.572813
635.892380,0.570723
636.208000,0.566241
636.523580,0.572932
636.839120,0.574696
637.154620,0.567246
637.470080,0.564132
637.785500,0.572685
638.100880,0.567043
638.416220,0.566005
638.731520,0.567049
639.046780,0.568308
639.362000,0.565367
639.677180,0.561965
639.992320,0.564421
640.307420,0.559989
640.622480,0.563988
640.937500,0.561442
641.252480,0.569394
641.567420,0.568627
641.882320,0.560690
642.197180,0.567097
642.512000,0.561153
642.826780,0.568655
643.141520,0.560433
643.456220,0.566132
643.770880,0.567993
644.085500,0.566797
644.400080,0.567135
644.714620,0.563824
645.029120,0.559131
645.343580,0.563083
645.658000,0.564807
645.972380,0.567279
646.286720,0.561188
646.601020,0.559369
646.915280,0.564848
647.229500,0.562088
647.543680,0.564761
647.857820,0.557391
648.171920,0.555345
648.485980,0.556591
648.800000,0.559107
649.113980,0.562084
649.427920,0.563107
649.741820,0.557296
650.055680,0.555403
650.369500,0.562780
650.683280,0.560211
650.997020,0.554180
651.310720,0.550083
651.624380,0.557143
651.938000,0.554571
652.251580,0.556081
652.565120,0.555338
652.878620,0.560248
653.192080,0.549719
653.505500,0.543058
653.818880,0.556440
654.132220,0.555397
654.445520,0.549631
654.758780,0.543626
655.072000,0.545272
655.385180,0.543224
655.698320,0.540440
656.011420,0.544569
656.324480,0.544156
656.637500,0.549247
656.950480,0.543453
657.263420,0.550990
657.576320,0.546398
657.889180,0.544087
658.202000,0.543176
658.514780,0.545103
658.827520,0.548019
659.140220,0.539706
659.452880,0.542132
659.765500,0.536123
660.078080,0.538068
660.390620,0.532844
660.703120,0.536511
661.015580,0.538344
661.328000,0.545655
661.640380,0.540851
661.952720,0.535347
662.265020,0.534026
662.577280,0.534987
662.889500,0.530747
663.201680,0.530632
663.513820,0.528144
663.825920,0.540826
664.137980,0.534583
664.450000,0.521739
664.761980,0.529296
665.073920,0.527426
665.385820,0.527160
665.697680,0.531240
666.009500,0.530096
666.321280,0.527502
666.633020,0.522939
666.944720,0.521065
667.256380,0.524226
667.568000,0.522418
667.879580,0.529592
668.191120,0.522665
668.502620,0.520027
668.814080,0.529825
669.125500,0.522066
669.436880,0.509682
669.748220,0.515057
670.059520,0.519958
670.370780,0.512526
670.682000,0.524956
670.993180,0.518323
671.304320,0.515120
671.615420,0.511009
671.926480,0.513130
672.237500,0.506967
672.548480,0.511356
672.859420,0.511794
673.170320,0.512514
673.481180,0.518827
673.792000,0.507393
674.102780,0.502693
674.413520,0.516588
674.724220,0.504537
675.034880,0.512651
675.345500,0.508023
675.656080,0.504900
675.966620,0.503456
676.277120,0.507506
676.587580,0.506259
676.898000,0.506532
677.208380,0.500185
677.518720,0.497082
677.829020,0.494457
678.139280,0.502965
678.449500,0.502414
678.759680,0.499438
679.069820,0.497398
679.379920,0.503584
679.689980,0.493873
680.000000,0.495701
680.309980,0.498515
680.619920,0.494888
680.929820,0.492721
681.239680,0.487445
681.549500,0.487778
681.859280,0.491038
682.169020,0.494219
682.478720,0.495138
682.788380,0.491325
683.098000,0.482423
683.407580,0.485178
683.717120,0.490240
684.026620,0.483434
684.336080,0.484274
684.645500,0.484100
684.954880,0.491878
685.264220,0.481691
685.573520,0.493719
685.882780,0.489451
686.192000,0.478932
686.501180,0.486947
686.810320,0.487702
687.119420,0.479285
687.428480,0.471325
687.737500,0.483883
688.046480,0.465491
688.355420,0.476801
688.664320,0.474751
688.973180,0.473966
689.282000,0.476466
689.590780,0.471242
689.899520,0.459932
690.208220,0.476300
690.516880,0.471554
690.825500,0.472075
691.134080,0.468489
691.442620,0.461509
691.751120,0.461889
692.059580,0.465418
692.368000,0.457402
692.676380,0.463740
692.984720,0.466794
693.293020,0.464666
693.601280,0.472339
693.909500,0.468785
694.217680,0.467631
694.525820,0.458111
694.833920,0.452499
695.141980,0.466255
695.450000,0.461832
695.757980,0.460657
696.065920,0.453981
696.373820,0.457275
696.681680,0.449559
696.989500,0.452335
697.297280,0.448853
697.605020,0.461905
697.912720,0.444274
698.220380,0.445887
698.528000,0.460839
698.835580,0.448044
699.143120,0.445440
699.450620,0.444312
699.758080,0.445490
700.065500,0.441341
700.372880,0.450000
700.680220,0.443159
700.987520,0.441270
701.294780,0.452555
701.602000,0.434628
701.909180,0.447138
702.216320,0.441142
702.523420,0.442778
702.830480,0.446337
703.137500,0.442323
703.444480,0.437475
703.751420,0.441815
704.058320,0.440839
704.365180,0.433754
704.672000,0.433663
704.978780,0.429185
705.285520,0.431534
705.592220,0.434118
705.898880,0.437746
706.205500,0.443662
706.512080,0.432464
706.818620,0.430341
707.125120,0.429615
707.431580,0.428683
707.738000,0.423828
708.044380,0.423389
708.350720,0.428353
708.657020,0.435326
708.963280,0.423137
709.269500,0.425049
709.575680,0.429862
709.881820,0.425314
710.187920,0.426848
710.493980,0.420869
710.800000,0.414188
711.105980,0.411521
711.411920,0.419393
711.717820,0.420273
712.023680,0.412748
712.329500,0.423502
712.635280,0.422868
712.941020,0.412833
713.246720,0.407905
713.552380,0.419545
713.858000,0.409145
714.163580,0.404104
714.469120,0.411098
714.774620,0.412554
715.080080,0.409894
715.385500,0.409672
715.690880,0.400789
715.996220,0.402536
716.301520,0.418182
716.606780,0.403695
716.912000,0.406300
717.217180,0.402634
717.522320,0.402386
717.827420,0.405207
718.132480,0.399839
718.437500,0.407664
718.742480,0.397581
719.047420,0.394013
719.352320,0.400166
719.657180,0.400245
719.962000,0.394541
720.266780,0.398006
720.571520,0.396852
720.876220,0.394435
721.180880,0.391304
721.485500,0.389887
721.790080,0.391083
722.094620,0.403516
722.399120,0.387333
722.703580,0.382340
723.008000,0.385942
723.312380,0.388721
723.616720,0.374416
723.921020,0.375920
724.225280,0.374346
724.529500,0.387040
724.833680,0.387456
725.137820,0.379736
725.441920,0.370486
725.745980,0.379866
726.050000,0.382499
726.353980,0.372240
726.657920,0.376518
726.961820,0.375799
727.265680,0.375867
727.569500,0.371572
727.873280,0.370901
728.177020,0.382312
728.480720,0.368981
728.784380,0.371066
729.088000,0.372586
729.391580,0.371862
729.695120,0.368042
729.998620,0.373327
730.302080,0.365690
730.605500,0.360990
730.908880,0.364527
731.212220,0.368266
731.515520,0.361287
731.818780,0.368932
732.122000,0.360236
732.425180,0.353869
732.728320,0.359941
733.031420,0.356391
733.334480,0.364286
733.637500,0.358367
733.940480,0.363869
734.243420,0.361366
734.546320,0.362552
734.849180,0.351240
735.152000,0.350104
735.454780,0.346591
735.757520,0.355111
736.060220,0.353344
736.362880,0.351366
736.665500,0.346736
736.968080,0.342826
737.270620,0.345672
737.573120,0.345524
737.875580,0.352941
738.178000,0.345128
738.480380,0.351351
738.782720,0.341876
739.085020,0.349119
739.387280,0.352550
739.689500,0.347678
739.991680,0.344189
740.293820,0.344942
740.595920,0.336672
740.897980,0.337662
741.200000,0.337633
741.501980,0.346705
741.803920,0.335023
742.105820,0.335025
742.407680,0.345952
742.709500,0.337500
743.011280,0.341735
743.313020,0.330435
743.614720,0.322113
743.916380,0.329651
744.218000,0.330549
744.519580,0.340580
744.821120,0.332335
745.122620,0.330138
745.424080,0.315505
745.725500,0.319252
746.026880,0.334360
746.328220,0.326141
746.629520,0.320891
746.930780,0.326593
747.232000,0.324341
747.533180,0.327029
747.834320,0.321363
748.135420,0.321939
748.436480,0.318777
748.737500,0.314392
749.038480,0.316432
749.339420,0.318606
749.640320,0.323696
749.941180,0.316677
750.242000,0.311558
750.542780,0.311414
750.843520,0.318386
751.144220,0.317308
751.444880,0.317692
751.745500,0.321429
752.046080,0.320077
752.346620,0.302835
752.647120,0.313521
752.947580,0.313066
753.248000,0.312701
753.548380,0.309694
753.848720,0.309723
754.149020,0.294004
754.449280,0.313198
754.749500,0.302588
755.049680,0.300000
755.349820,0.301534
755.649920,0.302049
755.949980,0.303251
756.250000,0.305720
756.549980,0.296370
756.849920,0.301835
757.149820,0.296075
757.449680,0.297690
757.749500,0.297887
758.049280,0.301706
758.349020,0.287900
758.648720,0.302277
758.948380,0.296220
759.248000,0.295148
759.547580,0.291190
759.847120,0.283253
760.146620,0.294993
760.446080,0.284274
760.745500,0.286014
761.044880,0.289773
761.344220,0.291518
761.643520,0.294492
761.942780,0.291812
762.242000,0.297030
762.541180,0.290141
762.840320,0.291433
763.139420,0.290436
763.438480,0.284347
763.737500,0.286010
764.036480,0.281621
764.335420,0.280875
764.634320,0.283437
764.933180,0.278082
765.232000,0.278279
765.530780,0.282807
765.829520,0.277622
766.128220,0.279749
766.426880,0.270789
766.725500,0.280329
767.024080,0.275034
767.322620,0.273859
767.621120,0.266938
767.919580,0.274403
768.218000,0.273598
768.516380,0.276538
768.814720,0.265432
769.113020,0.274294
769.411280,0.271409
769.709500,0.270636
770.007680,0.266530
770.305820,0.260987
770.603920,0.262803
770.901980,0.280055
771.200000,0.258832
771.497980,0.266756
771.795920,0.260870
772.093820,0.262032
772.391680,0.261042
772.689500,0.258784
772.987280,0.264646
773.285020,0.269310
773.582720,0.264189
773.880380,0.258751
774.178000,0.257669
774.475580,0.264568
774.773120,0.253681
775.070620,0.267748
775.368080,0.263193
775.665500,0.253862
775.962880,0.260841
776.260220,0.263795
776.557520,0.261508
776.854780,0.259635
777.152000,0.257958
777.449180,0.260283
777.746320,0.253360
778.043420,0.255798
778.340480,0.253721
778.637500,0.248141
778.934480,0.252858
779.231420,0.251018
779.528320,0.243153
779.825180,0.242424
780.122000,0.248340
780.418780,0.250342
780.715520,0.250838
781.012220,0.247945
781.308880,0.250845
781.605500,0.239726
781.902080,0.242984
782.198620,0.237184
782.495120,0.241427
782.791580,0.246217
783.088000,0.240166
783.384380,0.240028
783.680720,0.241450
783.977020,0.240881
784.273280,0.239161
784.569500,0.241090
784.865680,0.244784
785.161820,0.249306
785.457920,0.239085
785.753980,0.227495
786.050000,0.236878
786.345980,0.240278
786.641920,0.240805
786.937820,0.243590
787.233680,0.236604
787.529500,0.228155
787.825280,0.241501
788.121020,0.235127
788.416720,0.231475
788.712380,0.236248
789.008000,0.235127
789.303580,0.229682
789.599120,0.232727
789.894620,0.234657
790.190080,0.223350
790.485500,0.228942
790.780880,0.227240
791.076220,0.233766
791.371520,0.231663
791.666780,0.232727
791.962000,0.231447
792.257180,0.218887
792.552320,0.226976
792.847420,0.228530
793.142480,0.235165
793.437500,0.223589
793.732480,0.221653
794.027420,0.221810
794.322320,0.222222
794.617180,0.228826
794.912000,0.214710
795.206780,0.219239
795.501520,0.223574
795.796220,0.213333
796.090880,0.214017
796.385500,0.218891
796.680080,0.213164
796.974620,0.217814
797.269120,0.221045
797.563580,0.211450
797.858000,0.210326
798.152380,0.218097
798.446720,0.223846
798.741020,0.217257
799.035280,0.213509
799.329500,0.215550
799.623680,0.216279
