399.985280,0.256757
400.329500,0.229730
400.673680,0.316456
401.017820,0.323529
401.361920,0.378788
401.705980,0.341463
402.050000,0.376623
402.393980,0.341176
402.737920,0.415730
403.081820,0.350515
403.425680,0.360465
403.769500,0.333333
404.113280,0.344828
404.457020,0.348315
404.800720,0.347826
405.144380,0.343434
405.488000,0.354839
405.831580,0.360825
406.175120,0.329787
406.518620,0.300000
406.862080,0.350515
407.205500,0.312500
407.548880,0.275510
407.892220,0.352941
408.235520,0.351064
408.578780,0.276190
408.922000,0.259615
409.265180,0.282828
409.608320,0.303030
409.951420,0.340206
410.294480,0.343137
410.637500,0.282609
410.980480,0.343137
411.323420,0.336735
411.666320,0.348624
412.009180,0.309091
412.352000,0.267327
412.694780,0.348624
413.037520,0.321101
413.380220,0.288288
413.722880,0.312500
414.065500,0.324324
414.408080,0.292035
414.750620,0.327434
415.093120,0.314050
415.435580,0.268908
415.778000,0.303030
416.120380,0.302521
416.462720,0.349206
416.805020,0.300752
417.147280,0.298507
417.489500,0.328571
417.831680,0.280822
418.173820,0.333333
418.515920,0.321678
418.857980,0.291139
419.200000,0.301282
419.541980,0.289941
419.883920,0.297753
420.225820,0.317919
420.567680,0.268156
420.909500,0.311475
421.251280,0.291667
421.593020,0.295918
421.934720,0.282828
422.276380,0.297436
422.618000,0.289216
422.959580,0.274510
423.301120,0.301370
423.642620,0.239130
423.984080,0.269767
424.325500,0.260090
424.666880,0.280172
425.008220,0.260504
425.349520,0.266949
425.690780,0.223077
426.032000,0.250980
426.373180,0.269710
426.714320,0.265625
427.055420,0.250965
427.396480,0.254682
427.737500,0.252964
428.078480,0.249012
428.419420,0.269076
428.760320,0.249042
429.101180,0.251969
429.442000,0.252874
429.782780,0.250000
430.123520,0.247059
430.464220,0.239852
430.804880,0.283525
431.145500,0.232727
431.486080,0.254682
431.826620,0.220930
432.167120,0.227941
432.507580,0.257246
432.848000,0.262590
433.188380,0.245487
433.528720,0.241509
433.869020,0.235714
434.209280,0.196491
434.549500,0.236934
434.889680,0.239057
435.229820,0.215017
435.569920,0.221453
435.909980,0.223301
436.250000,0.233898
436.589980,0.219814
436.929920,0.225397
437.269820,0.231975
437.609680,0.215976
437.949500,0.231928
438.289280,0.212465
438.629020,0.218023
438.968720,0.218023
439.308380,0.211382
439.648000,0.213699
439.987580,0.222222
440.327120,0.226667
440.666620,0.228571
441.006080,0.222506
441.345500,0.216216
441.684880,0.215311
442.024220,0.203474
442.363520,0.209524
442.702780,0.218182
443.042000,0.207048
443.381180,0.211207
443.720320,0.215983
444.059420,0.201681
444.398480,0.202929
444.737500,0.215164
445.076480,0.216270
445.415420,0.201597
445.754320,0.193347
446.093180,0.198165
446.432000,0.201128
446.770780,0.206831
447.109520,0.204044
447.448220,0.207513
447.786880,0.200358
448.125500,0.220690
448.464080,0.198214
448.802620,0.196809
449.141120,0.200692
449.479580,0.206294
449.818000,0.208262
450.156380,0.185619
450.494720,0.195041
450.833020,0.194056
451.171280,0.190068
451.509500,0.195122
451.847680,0.192243
452.185820,0.196213
452.523920,0.195876
452.861980,0.188870
453.200000,0.191030
453.537980,0.200000
453.875920,0.188235
454.213820,0.183219
454.551680,0.183775
454.889500,0.183811
455.227280,0.179715
455.565020,0.192630
455.902720,0.194676
456.240380,0.174709
456.578000,0.182927
456.915580,0.188256
457.253120,0.189145
457.590620,0.195402
457.928080,0.190236
458.265500,0.195946
458.602880,0.183442
458.940220,0.177665
459.277520,0.200000
459.614780,0.188216
459.952000,0.173913
460.289180,0.185127
460.626320,0.181102
460.963420,0.187399
461.300480,0.189602
461.637500,0.187982
461.974480,0.186544
462.311420,0.187779
462.648320,0.180088
462.985180,0.179340
463.322000,0.194940
463.658780,0.175414
463.995520,0.176066
464.332220,0.189751
464.668880,0.182796
465.005500,0.190349
465.342080,0.184379
465.678620,0.182042
466.015120,0.190168
466.351580,0.197219
466.688000,0.191230
467.024380,0.190765
467.360720,0.187500
467.697020,0.179954
468.033280,0.190000
468.369500,0.188742
468.705680,0.200676
469.041820,0.196875
469.377920,0.190889
469.713980,0.184346
470.050000,0.195169
470.385980,0.180039
470.721920,0.184133
471.057820,0.191033
471.393680,0.182413
471.729500,0.197405
472.065280,0.198569
472.401020,0.188830
472.736720,0.185864
473.072380,0.185817
473.408000,0.183638
473.743580,0.189446
474.079120,0.192076
474.414620,0.191688
474.750080,0.189585
475.085500,0.190789
475.420880,0.191507
475.756220,0.190515
476.091520,0.196078
476.426780,0.198220
476.762000,0.191472
477.097180,0.197600
477.432320,0.202746
477.767420,0.198529
478.102480,0.203150
478.437500,0.197865
478.772480,0.196217
479.107420,0.191212
479.442320,0.188649
479.777180,0.203660
480.112000,0.200308
480.446780,0.201871
480.781520,0.194042
481.116220,0.196443
481.450880,0.205308
481.785500,0.213608
482.120080,0.207680
482.454620,0.209790
482.789120,0.214172
483.123580,0.207165
483.458000,0.207278
483.792380,0.210064
484.126720,0.206178
484.461020,0.205308
484.795280,0.213570
485.129500,0.223694
485.463680,0.217829
485.797820,0.216174
486.131920,0.205815
486.465980,0.210811
486.800000,0.214504
487.133980,0.217523
487.467920,0.219587
487.801820,0.220442
488.135680,0.226687
488.469500,0.217852
488.803280,0.219911
489.137020,0.215385
489.470720,0.217359
489.804380,0.222717
490.138000,0.225519
490.471580,0.226234
490.805120,0.221587
491.138620,0.223881
491.472080,0.224735
491.805500,0.229428
492.138880,0.230716
492.472220,0.234602
492.805520,0.237430
493.138780,0.241213
493.472000,0.233445
493.805180,0.247613
494.138320,0.238826
494.471420,0.231120
494.804480,0.228978
495.137500,0.243261
495.470480,0.247929
495.803420,0.242443
496.136320,0.241855
496.469180,0.249847
496.802000,0.243276
497.134780,0.255913
497.467520,0.253823
497.800220,0.242335
498.132880,0.255144
498.465500,0.256083
498.798080,0.257420
499.130620,0.255474
499.463120,0.258843
499.795580,0.256326
500.128000,0.257221
500.460380,0.261033
500.792720,0.253977
501.125020,0.258539
501.457280,0.267363
501.789500,0.261880
502.121680,0.271643
502.453820,0.273330
502.785920,0.264632
503.117980,0.267910
503.450000,0.276745
503.781980,0.270055
504.113920,0.270270
504.445820,0.269810
504.777680,0.272941
505.109500,0.273558
505.441280,0.276769
505.773020,0.279944
506.104720,0.285445
506.436380,0.281117
506.768000,0.287184
507.099580,0.275515
507.431120,0.282904
507.762620,0.281955
508.094080,0.283956
508.425500,0.293184
508.756880,0.288066
509.088220,0.292548
509.419520,0.296089
509.750780,0.298032
510.082000,0.289646
510.413180,0.296637
510.744320,0.305568
511.075420,0.300642
511.406480,0.294311
511.737500,0.296296
512.068480,0.303571
512.399420,0.305164
512.730320,0.300231
513.061180,0.307802
513.392000,0.311406
513.722780,0.304515
514.053520,0.316723
514.384220,0.314462
514.714880,0.313547
515.045500,0.313697
515.376080,0.324455
515.706620,0.314174
516.037120,0.310784
516.367580,0.320355
516.698000,0.318627
517.028380,0.331678
517.358720,0.328889
517.689020,0.324926
518.019280,0.326141
518.349500,0.331475
518.679680,0.331146
519.009820,0.334514
519.339920,0.333667
519.669980,0.334505
520.000000,0.336220
520.329980,0.337999
520.659920,0.347648
520.989820,0.341073
521.319680,0.339506
521.649500,0.341902
521.979280,0.342380
522.309020,0.340768
522.638720,0.345110
522.968380,0.351603
523.298000,0.347599
523.627580,0.350233
523.957120,0.354805
524.286620,0.356436
524.616080,0.354705
524.945500,0.360207
525.274880,0.362750
525.604220,0.355590
525.933520,0.359539
526.262780,0.356310
526.592000,0.359716
526.921180,0.365668
527.250320,0.365804
527.579420,0.368368
527.908480,0.367307
528.237500,0.370407
528.566480,0.370758
528.895420,0.379004
529.224320,0.377415
529.553180,0.381205
529.882000,0.382482
530.210780,0.374035
530.539520,0.389741
530.868220,0.385831
531.196880,0.378404
531.525500,0.392736
531.854080,0.385084
532.182620,0.383466
532.511120,0.391183
532.839580,0.394737
533.168000,0.401094
533.496380,0.401826
533.824720,0.385823
534.153020,0.401694
534.481280,0.402203
534.809500,0.405453
535.137680,0.397569
535.465820,0.406357
535.793920,0.405245
536.121980,0.407889
536.450000,0.414799
536.777980,0.415584
537.105920,0.414695
537.433820,0.408347
537.761680,0.416327
538.089500,0.417240
538.417280,0.415042
538.745020,0.418384
539.072720,0.413510
539.400380,0.414141
539.728000,0.415296
540.055580,0.416854
540.383120,0.423306
540.710620,0.422247
541.038080,0.428624
541.365500,0.431618
541.692880,0.432049
542.020220,0.427492
542.347520,0.440057
542.674780,0.434016
543.002000,0.429671
543.329180,0.438793
543.656320,0.441632
543.983420,0.439658
544.310480,0.437988
544.637500,0.442852
544.964480,0.444145
545.291420,0.447325
545.618320,0.450863
545.945180,0.447264
546.272000,0.445282
546.598780,0.454277
546.925520,0.444774
547.252220,0.443711
547.578880,0.447703
547.905500,0.458497
548.232080,0.454516
548.558620,0.455581
548.885120,0.456657
549.211580,0.461266
549.538000,0.458171
549.864380,0.456913
550.190720,0.463675
550.517020,0.467731
550.843280,0.468730
551.169500,0.459288
551.495680,0.466820
551.821820,0.468321
552.147920,0.471047
552.473980,0.477774
552.800000,0.470896
553.125980,0.474460
553.451920,0.480093
553.777820,0.479347
554.103680,0.477587
554.429500,0.474389
554.755280,0.481642
555.081020,0.479947
555.406720,0.482560
555.732380,0.473399
556.058000,0.480312
556.383580,0.475864
556.709120,0.480703
557.034620,0.483638
557.360080,0.487047
557.685500,0.479945
558.010880,0.479376
558.336220,0.486467
558.661520,0.489897
558.986780,0.498937
559.312000,0.490741
559.637180,0.498384
559.962320,0.493414
560.287420,0.494711
560.612480,0.496591
560.937500,0.500734
561.262480,0.499633
561.587420,0.495466
561.912320,0.502211
562.237180,0.494449
562.562000,0.501684
562.886780,0.510219
563.211520,0.501490
563.536220,0.505009
563.860880,0.510373
564.185500,0.496435
564.510080,0.510158
564.834620,0.510607
565.159120,0.505263
565.483580,0.512733
565.808000,0.502459
566.132380,0.513614
566.456720,0.522298
566.781020,0.518005
567.105280,0.511531
567.429500,0.515175
567.753680,0.516686
568.077820,0.517201
568.401920,0.518335
568.725980,0.519545
569.050000,0.526996
569.373980,0.512372
569.697920,0.530148
570.021820,0.525843
570.345680,0.520857
570.669500,0.526898
570.993280,0.524548
571.317020,0.521374
571.640720,0.524639
571.964380,0.517446
572.288000,0.533383
572.611580,0.539498
572.935120,0.538346
573.258620,0.528796
573.582080,0.530551
573.905500,0.534624
574.228880,0.533779
574.552220,0.532429
574.875520,0.533507
575.198780,0.534875
575.522000,0.532625
575.845180,0.527937
576.168320,0.538987
576.491420,0.549419
576.814480,0.538156
577.137500,0.542569
577.460480,0.539688
577.783420,0.545552
578.106320,0.547721
578.429180,0.552492
578.752000,0.543244
579.074780,0.553608
579.397520,0.544545
579.720220,0.540862
580.042880,0.545755
580.365500,0.548643
580.688080,0.550204
581.010620,0.550118
581.333120,0.550768
581.655580,0.557110
581.978000,0.553375
582.300380,0.549172
582.622720,0.559328
582.945020,0.554616
583.267280,0.553891
583.589500,0.559230
583.911680,0.550016
584.233820,0.553667
584.555920,0.558462
584.877980,0.568467
585.200000,0.548189
585.521980,0.555762
585.843920,0.560098
586.165820,0.558806
586.487680,0.555823
586.809500,0.558956
587.131280,0.550429
587.453020,0.567857
587.774720,0.556771
588.096380,0.563886
588.418000,0.562482
588.739580,0.569991
589.061120,0.570155
589.382620,0.570201
589.704080,0.560449
590.025500,0.569920
590.346880,0.568016
590.668220,0.569028
590.989520,0.561009
591.310780,0.568075
591.632000,0.565027
591.953180,0.565458
592.274320,0.559924
592.595420,0.564116
592.916480,0.564792
593.237500,0.572891
593.558480,0.569545
593.879420,0.568924
594.200320,0.572194
594.521180,0.571049
594.842000,0.578721
595.162780,0.571581
595.483520,0.568998
595.804220,0.577336
596.124880,0.577405
596.445500,0.571129
596.766080,0.591288
597.086620,0.577495
597.407120,0.575829
597.727580,0.578892
598.048000,0.570484
598.368380,0.580221
598.688720,0.571691
599.009020,0.572452
599.329280,0.569984
599.649500,0.572108
599.969680,0.576122
600.289820,0.582532
600.609920,0.571200
600.929980,0.576697
601.250000,0.574054
601.569980,0.571969
601.889920,0.572841
602.209820,0.572781
602.529680,0.586652
602.849500,0.571195
603.169280,0.585285
603.489020,0.578190
603.808720,0.571037
604.128380,0.576711
604.448000,0.579282
604.767580,0.585754
605.087120,0.572022
605.406620,0.583543
605.726080,0.587111
606.045500,0.576762
606.364880,0.567621
606.684220,0.580811
607.003520,0.571388
607.322780,0.577885
607.642000,0.574383
607.961180,0.574154
608.280320,0.576276
608.599420,0.574450
608.918480,0.580352
609.237500,0.573944
609.556480,0.580349
609.875420,0.572947
610.194320,0.578093
610.513180,0.577982
610.832000,0.570578
611.150780,0.577951
611.469520,0.579789
611.788220,0.585248
612.106880,0.568758
612.425500,0.579172
612.744080,0.585411
613.062620,0.571865
613.381120,0.570079
613.699580,0.581852
614.018000,0.582617
614.336380,0.580197
614.654720,0.578915
614.973020,0.581919
615.291280,0.582275
615.609500,0.581300
615.927680,0.579728
616.245820,0.576376
616.563920,0.577557
616.881980,0.581852
617.200000,0.574184
617.517980,0.573740
617.835920,0.566325
618.153820,0.569786
618.471680,0.579225
618.789500,0.575519
619.107280,0.577778
619.425020,0.576911
619.742720,0.570308
620.060380,0.567847
620.378000,0.575834
620.695580,0.578225
621.013120,0.565669
621.330620,0.578287
621.648080,0.565931
621.965500,0.567754
622.282880,0.567150
622.600220,0.573594
622.917520,0.571834
623.234780,0.584378
623.552000,0.584023
623.869180,0.567917
624.186320,0.578160
624.503420,0.572414
624.820480,0.568960
625.137500,0.575308
625.454480,0.571741
625.771420,0.575662
626.088320,0.575977
626.405180,0.574051
626.722000,0.575596
627.038780,0.570489
627.355520,0.574063
627.672220,0.570762
627.988880,0.559253
628.305500,0.573699
628.622080,0.580235
628.938620,0.572783
629.255120,0.576540
629.571580,0.567269
629.888000,0.565818
630.204380,0.571955
630.520720,0.567032
630.837020,0.570459
631.153280,0.566847
631.469500,0.572468
631.785680,0.570524
632.101820,0.576297
632.417920,0.561848
632.733980,0.558523
633.050000,0.571255
633.365980,0.568465
633.681920,0.569809
633.997820,0.561865
634.313680,0.567384
634.629500,0.566794
634.945280,0.563050
635.261020,0.562078
635.576720,0.576042
635.892380,0.554749
636.208000,0.554910
636.523580,0.572932
636.839120,0.570064
637.154620,0.561449
637.470080,0.560402
637.785500,0.567995
638.100880,0.563568
638.416220,0.567731
638.731520,0.557880
639.046780,0.562191
639.362000,0.553039
639.677180,0.558538
639.992320,0.554553
640.307420,0.559146
640.622480,0.558947
640.937500,0.555340
641.252480,0.559899
641.567420,0.565502
641.882320,0.553731
642.197180,0.558394
642.512000,0.551078
642.826780,0.549792
643.141520,0.557655
643.456220,0.557277
643.770880,0.568270
644.085500,0.553102
644.400080,0.559270
644.714620,0.556299
645.029120,0.557481
645.343580,0.555403
645.658000,0.553983
645.972380,0.553850
646.286720,0.550831
646.601020,0.546360
646.915280,0.552783
647.229500,0.552198
647.543680,0.549848
647.857820,0.544454
648.171920,0.548291
648.485980,0.551384
648.800000,0.542574
649.113980,0.552384
649.427920,0.552288
649.741820,0.539984
650.055680,0.538947
650.369500,0.552691
650.683280,0.541620
650.997020,0.543729
651.310720,0.539626
651.624380,0.539835
651.938000,0.541274
652.251580,0.540495
652.565120,0.532420
652.878620,0.543919
653.192080,0.539607
653.505500,0.535484
653.818880,0.545351
654.132220,0.533466
654.445520,0.535167
654.758780,0.532011
655.072000,0.524642
655.385180,0.531526
655.698320,0.526436
656.011420,0.532531
656.324480,0.532206
656.637500,0.526651
656.950480,0.533764
657.263420,0.535028
657.576320,0.529499
657.889180,0.529637
658.202000,0.521739
658.514780,0.524263
658.827520,0.530912
659.140220,0.520827
659.452880,0.521293
659.765500,0.519567
660.078080,0.513993
660.390620,0.519707
660.703120,0.523373
661.015580,0.522699
661.328000,0.526763
661.640380,0.527493
661.952720,0.522890
662.265020,0.517013
662.577280,0.521628
662.889500,0.519395
663.201680,0.523293
663.513820,0.518173
663.825920,0.520333
664.137980,0.517453
664.450000,0.509271
664.761980,0.514566
665.073920,0.506329
665.385820,0.508508
665.697680,0.510413
666.009500,0.512803
666.321280,0.509278
666.633020,0.501662
666.944720,0.506572
667.256380,0.503028
667.568000,0.495584
667.879580,0.504422
668.191120,0.507898
668.502620,0.505306
668.814080,0.506667
669.125500,0.500171
669.436880,0.503804
669.748220,0.494981
670.059520,0.496148
670.370780,0.498608
670.682000,0.499823
670.993180,0.502114
671.304320,0.498594
671.615420,0.495384
671.926480,0.498935
672.237500,0.495177
672.548480,0.491483
672.859420,0.498570
673.170320,0.497642
673.481180,0.502534
673.792000,0.490444
674.102780,0.481149
674.413520,0.494349
674.724220,0.485662
675.034880,0.495416
675.345500,0.480671
675.656080,0.489292
675.966620,0.481993
676.277120,0.490663
676.587580,0.485641
676.898000,0.486749
677.208380,0.486506
677.518720,0.480671
677.829020,0.488544
678.139280,0.478503
678.449500,0.478648
678.759680,0.482578
679.069820,0.476580
679.379920,0.476801
679.689980,0.470108
680.000000,0.470654
680.309980,0.481069
680.619920,0.469898
680.929820,0.471071
681.239680,0.466396
681.549500,0.471481
681.859280,0.467140
682.169020,0.471093
682.478720,0.474196
682.788380,0.468439
683.098000,0.466343
683.407580,0.465291
683.717120,0.461712
684.026620,0.463102
684.336080,0.466844
684.645500,0.457912
684.954880,0.459388
685.264220,0.464326
685.573520,0.467073
685.882780,0.464519
686.192000,0.463883
686.501180,0.459327
686.810320,0.466180
687.119420,0.457241
687.428480,0.452336
687.737500,0.457790
688.046480,0.453604
688.355420,0.453414
688.664320,0.449120
688.973180,0.455207
689.282000,0.457562
689.590780,0.450537
689.899520,0.444740
690.208220,0.449541
690.516880,0.457808
690.825500,0.449434
691.134080,0.446090
691.442620,0.436357
691.751120,0.444824
692.059580,0.448605
692.368000,0.447179
692.676380,0.441603
692.984720,0.437023
693.293020,0.441869
693.601280,0.437619
693.909500,0.437382
694.217680,0.431835
694.525820,0.448591
694.833920,0.438382
695.141980,0.440031
695.450000,0.432061
695.757980,0.436593
696.065920,0.427961
696.373820,0.424942
696.681680,0.425010
696.989500,0.432651
697.297280,0.433683
697.605020,0.435317
697.912720,0.427364
698.220380,0.426210
698.528000,0.431962
698.835580,0.429079
699.143120,0.416602
699.450620,0.426412
699.758080,0.416471
700.065500,0.427773
700.372880,0.423600
700.680220,0.423614
700.987520,0.426190
701.294780,0.435929
701.602000,0.421157
701.909180,0.420111
702.216320,0.419632
702.523420,0.426598
702.830480,0.418614
703.137500,0.407638
703.444480,0.413412
703.751420,0.416963
704.058320,0.424218
704.365180,0.413249
704.672000,0.411485
704.978780,0.410456
705.285520,0.406495
705.592220,0.409804
705.898880,0.408195
706.205500,0.410016
706.512080,0.398499
706.818620,0.407895
707.125120,0.405769
707.431580,0.400547
707.738000,0.408203
708.044380,0.390197
708.350720,0.395109
708.657020,0.409144
708.963280,0.402174
709.269500,0.392564
709.575680,0.399607
709.881820,0.395047
710.187920,0.402335
710.493980,0.389837
710.800000,0.398551
711.105980,0.389307
711.411920,0.394166
711.717820,0.390643
712.023680,0.392538
712.329500,0.399842
712.635280,0.388372
712.941020,0.388094
713.246720,0.393281
713.552380,0.388148
713.858000,0.397320
714.163580,0.388713
714.469120,0.382962
714.774620,0.380182
715.080080,0.383196
715.385500,0.387690
715.690880,0.381460
715.996220,0.383518
716.301520,0.381423
716.606780,0.373821
716.912000,0.376817
717.217180,0.381484
717.522320,0.376143
717.827420,0.374695
718.132480,0.372140
718.437500,0.375051
718.742480,0.379032
719.047420,0.372977
719.352320,0.370278
719.657180,0.375715
719.962000,0.367246
720.266780,0.367262
720.571520,0.367026
720.876220,0.366612
721.180880,0.359532
721.485500,0.358964
721.790080,0.366879
722.094620,0.381647
722.399120,0.370961
722.703580,0.363052
723.008000,0.371281
723.312380,0.364184
723.616720,0.354866
723.921020,0.359896
724.225280,0.357766
724.529500,0.351138
724.833680,0.365658
725.137820,0.356388
725.441920,0.350424
725.745980,0.358389
726.050000,0.360397
726.353980,0.352862
726.657920,0.349978
726.961820,0.353425
727.265680,0.361073
727.569500,0.349634
727.873280,0.345035
728.177020,0.346845
728.480720,0.346296
728.784380,0.345702
729.088000,0.345266
729.391580,0.345808
729.695120,0.357965
729.998620,0.347036
730.302080,0.343104
730.605500,0.331878
730.908880,0.341499
731.212220,0.343781
731.515520,0.345685
731.818780,0.332524
732.122000,0.341535
732.425180,0.334155
732.728320,0.339613
733.031420,0.334336
733.334480,0.336224
733.637500,0.335685
733.940480,0.337257
734.243420,0.334862
734.546320,0.341805
734.849180,0.331612
735.152000,0.327801
735.454780,0.327996
735.757520,0.332455
736.060220,0.333860
736.362880,0.324055
736.665500,0.323760
736.968080,0.333692
737.270620,0.326075
737.573120,0.326419
737.875580,0.322155
738.178000,0.324986
738.480380,0.316757
738.782720,0.318975
739.085020,0.323789
739.387280,0.313747
739.689500,0.324462
739.991680,0.325098
740.293820,0.311774
740.595920,0.322204
740.897980,0.316206
741.200000,0.313517
741.501980,0.315186
741.803920,0.311374
742.105820,0.306825
742.407680,0.309260
742.709500,0.305114
743.011280,0.314185
743.313020,0.308406
743.614720,0.305281
743.916380,0.306977
744.218000,0.314439
744.519580,0.307367
744.821120,0.311976
745.122620,0.304374
745.424080,0.300481
745.725500,0.296319
746.026880,0.305419
746.328220,0.303946
746.629520,0.307044
746.930780,0.300858
747.232000,0.297977
747.533180,0.303844
747.834320,0.306147
748.135420,0.298943
748.436480,0.295072
748.737500,0.291538
749.038480,0.295663
749.339420,0.299938
749.640320,0.285984
749.941180,0.293567
750.242000,0.292714
750.542780,0.293424
750.843520,0.303011
751.144220,0.282051
751.444880,0.294230
751.745500,0.286364
752.046080,0.290571
752.346620,0.285438
752.647120,0.288047
752.947580,0.283959
753.248000,0.284977
753.548380,0.288224
753.848720,0.281391
754.149020,0.277240
754.449280,0.292843
754.749500,0.283344
755.049680,0.286000
755.349820,0.285524
755.649920,0.282882
755.949980,0.280690
756.250000,0.289283
756.549980,0.276568
756.849920,0.280761
757.149820,0.268796
757.449680,0.266667
757.749500,0.276755
758.049280,0.276451
758.349020,0.274687
758.648720,0.275362
758.948380,0.281100
759.248000,0.275606
759.547580,0.273705
759.847120,0.265334
760.146620,0.270636
760.446080,0.267473
760.745500,0.272727
761.044880,0.278409
761.344220,0.275125
761.643520,0.276130
761.942780,0.274318
762.242000,0.271570
762.541180,0.264085
762.840320,0.268961
763.139420,0.273558
763.438480,0.258373
763.737500,0.266023
764.036480,0.271139
764.335420,0.263232
764.634320,0.254331
764.933180,0.256164
765.232000,0.265788
765.530780,0.268070
765.829520,0.265035
766.128220,0.258873
766.426880,0.254442
766.725500,0.256340
767.024080,0.258573
767.322620,0.258645
767.621120,0.254743
767.919580,0.253925
768.218000,0.260602
768.516380,0.259635
768.814720,0.248971
769.113020,0.255686
769.411280,0.254144
769.709500,0.254398
770.007680,0.248807
770.305820,0.249493
770.603920,0.248652
770.901980,0.253415
771.200000,0.242527
771.497980,0.249330
771.795920,0.245485
772.093820,0.238636
772.391680,0.245880
772.689500,0.241892
772.987280,0.243098
773.285020,0.246753
773.582720,0.244595
773.880380,0.246397
774.178000,0.247444
774.475580,0.236437
774.773120,0.242303
775.070620,0.246112
775.368080,0.240481
775.665500,0.235729
775.962880,0.241494
776.260220,0.246299
776.557520,0.242829
776.854780,0.233266
777.152000,0.229443
777.449180,0.234659
777.746320,0.231183
778.043420,0.236016
778.340480,0.242219
778.637500,0.242055
778.934480,0.227976
779.231420,0.234057
779.528320,0.235137
779.825180,0.229249
780.122000,0.220452
780.418780,0.236662
780.715520,0.233400
781.012220,0.232877
781.308880,0.236646
781.605500,0.223973
781.902080,0.226557
782.198620,0.236500
782.495120,0.222908
782.791580,0.225585
783.088000,0.231194
783.384380,0.226272
783.680720,0.220930
783.977020,0.229181
784.273280,0.224476
784.569500,0.218029
784.865680,0.225313
785.161820,0.220833
785.457920,0.217602
785.753980,0.222610
786.050000,0.222376
786.345980,0.224306
786.641920,0.214434
786.937820,0.220085
787.233680,0.214335
787.529500,0.212205
787.825280,0.220255
788.121020,0.214589
788.416720,0.215949
788.712380,0.213681
789.008000,0.216714
789.303580,0.210601
789.599120,0.224727
789.894620,0.216606
790.190080,0.205221
790.485500,0.215263
790.780880,0.212186
791.076220,0.215007
791.371520,0.219317
791.666780,0.209455
791.962000,0.208670
792.257180,0.214495
792.552320,0.211748
792.847420,0.213246
793.142480,0.212454
793.437500,0.201881
793.732480,0.207023
794.027420,0.207715
794.322320,0.206562
794.617180,0.215453
794.912000,0.205795
795.206780,0.208054
795.501520,0.215970
795.796220,0.200741
796.090880,0.195931
796.385500,0.205397
796.680080,0.207180
796.974620,0.206587
797.269120,0.205905
797.563580,0.202290
797.858000,0.204252
798.152380,0.201083
798.446720,0.200769
798.741020,0.206471
799.035280,0.208075
799.329500,0.209392
799.623680,0.199225
