399.985280,0.256757
400.329500,0.270270
400.673680,0.227848
401.017820,0.235294
401.361920,0.196970
401.705980,0.182927
402.050000,0.142857
402.393980,0.282353
402.737920,0.202247
403.081820,0.237113
403.425680,0.290698
403.769500,0.197917
404.113280,0.149425
404.457020,0.235955
404.800720,0.195652
405.144380,0.262626
405.488000,0.139785
405.831580,0.216495
406.175120,0.212766
406.518620,0.220000
406.862080,0.226804
407.205500,0.239583
407.548880,0.204082
407.892220,0.186275
408.235520,0.287234
408.578780,0.219048
408.922000,0.134615
409.265180,0.242424
409.608320,0.242424
409.951420,0.247423
410.294480,0.245098
410.637500,0.260870
410.980480,0.274510
411.323420,0.204082
411.666320,0.247706
412.009180,0.263636
412.352000,0.188119
412.694780,0.220183
413.037520,0.201835
413.380220,0.261261
413.722880,0.258929
414.065500,0.234234
414.408080,0.247788
414.750620,0.212389
415.093120,0.198347
415.435580,0.218487
415.778000,0.287879
416.120380,0.159664
416.462720,0.198413
416.805020,0.248120
417.147280,0.238806
417.489500,0.228571
417.831680,0.219178
418.173820,0.219858
418.515920,0.223776
418.857980,0.259494
419.200000,0.237179
419.541980,0.260355
419.883920,0.213483
420.225820,0.196532
420.567680,0.245810
420.909500,0.256831
421.251280,0.229167
421.593020,0.229592
421.934720,0.181818
422.276380,0.210256
422.618000,0.254902
422.959580,0.220588
423.301120,0.228311
423.642620,0.213043
423.984080,0.223256
424.325500,0.215247
424.666880,0.211207
425.008220,0.218487
425.349520,0.237288
425.690780,0.203846
426.032000,0.250980
426.373180,0.224066
426.714320,0.234375
427.055420,0.216216
427.396480,0.228464
427.737500,0.205534
428.078480,0.213439
428.419420,0.224900
428.760320,0.210728
429.101180,0.244094
429.442000,0.226054
429.782780,0.234615
430.123520,0.254902
430.464220,0.214022
430.804880,0.249042
431.145500,0.218182
431.486080,0.250936
431.826620,0.224806
432.167120,0.246324
432.507580,0.239130
432.848000,0.244604
433.188380,0.252708
433.528720,0.256604
433.869020,0.253571
434.209280,0.231579
434.549500,0.236934
434.889680,0.259259
435.229820,0.215017
435.569920,0.235294
435.909980,0.233010
436.250000,0.244068
436.589980,0.247678
436.929920,0.260317
437.269820,0.241379
437.609680,0.236686
437.949500,0.240964
438.289280,0.257790
438.629020,0.264535
438.968720,0.238372
439.308380,0.262873
439.648000,0.260274
439.987580,0.251323
440.327120,0.261333
440.666620,0.262338
441.006080,0.258312
441.345500,0.253071
441.684880,0.244019
442.024220,0.245658
442.363520,0.250000
442.702780,0.256818
443.042000,0.257709
443.381180,0.262931
443.720320,0.265659
444.059420,0.243697
444.398480,0.251046
444.737500,0.274590
445.076480,0.251984
445.415420,0.247505
445.754320,0.264033
446.093180,0.247706
446.432000,0.265038
446.770780,0.275142
447.109520,0.273897
447.448220,0.266547
447.786880,0.280859
448.125500,0.263793
448.464080,0.267857
448.802620,0.271277
449.141120,0.266436
449.479580,0.277972
449.818000,0.275387
450.156380,0.270903
450.494720,0.272727
450.833020,0.281469
451.171280,0.270548
451.509500,0.283972
451.847680,0.278246
452.185820,0.277108
452.523920,0.286942
452.861980,0.290051
453.200000,0.274086
453.537980,0.275630
453.875920,0.280672
454.213820,0.267123
454.551680,0.269868
454.889500,0.276560
455.227280,0.265125
455.565020,0.289782
455.902720,0.302829
456.240380,0.276206
456.578000,0.289199
456.915580,0.302245
457.253120,0.299342
457.590620,0.308703
457.928080,0.299663
458.265500,0.307432
458.602880,0.292208
458.940220,0.301184
459.277520,0.299200
459.614780,0.297872
459.952000,0.291925
460.289180,0.310127
460.626320,0.305512
460.963420,0.297254
461.300480,0.301223
461.637500,0.302003
461.974480,0.322630
462.311420,0.299553
462.648320,0.306003
462.985180,0.325681
463.322000,0.319940
463.658780,0.306630
463.995520,0.301238
464.332220,0.311634
464.668880,0.314516
465.005500,0.329759
465.342080,0.321383
465.678620,0.323493
466.015120,0.327296
466.351580,0.327434
466.688000,0.330085
467.024380,0.329283
467.360720,0.312500
467.697020,0.328018
468.033280,0.337778
468.369500,0.335541
468.705680,0.332582
469.041820,0.329167
469.377920,0.325380
469.713980,0.335736
470.050000,0.336232
470.385980,0.322896
470.721920,0.332027
471.057820,0.337232
471.393680,0.334892
471.729500,0.339203
472.065280,0.342576
472.401020,0.335993
472.736720,0.328098
473.072380,0.347397
473.408000,0.335074
473.743580,0.346021
474.079120,0.350560
474.414620,0.351145
474.750080,0.344182
475.085500,0.349507
475.420880,0.346378
475.756220,0.346688
476.091520,0.344416
476.426780,0.343851
476.762000,0.350764
477.097180,0.362400
477.432320,0.366721
477.767420,0.362745
478.102480,0.355118
478.437500,0.366174
478.772480,0.355398
479.107420,0.362083
479.442320,0.361311
479.777180,0.366746
480.112000,0.353621
480.446780,0.356196
480.781520,0.363929
481.116220,0.368634
481.450880,0.355191
481.785500,0.364715
482.120080,0.373041
482.454620,0.376068
482.789120,0.386146
483.123580,0.373053
483.458000,0.375791
483.792380,0.385783
484.126720,0.376834
484.461020,0.377049
484.795280,0.377795
485.129500,0.372564
485.463680,0.372093
485.797820,0.384137
486.131920,0.381025
486.465980,0.381467
486.800000,0.391603
487.133980,0.382175
487.467920,0.381025
487.801820,0.392067
488.135680,0.398787
488.469500,0.385779
488.803280,0.387073
489.137020,0.393407
489.470720,0.401335
489.804380,0.397921
490.138000,0.402077
490.471580,0.401621
490.805120,0.413867
491.138620,0.395878
491.472080,0.408481
491.805500,0.410739
492.138880,0.403753
492.472220,0.402076
492.805520,0.409218
493.138780,0.407994
493.472000,0.406020
493.805180,0.414734
494.138320,0.416945
494.471420,0.407552
494.804480,0.408797
495.137500,0.421053
495.470480,0.421925
495.803420,0.411839
496.136320,0.422306
496.469180,0.411295
496.802000,0.416259
497.134780,0.419648
497.467520,0.428746
497.800220,0.428066
498.132880,0.426220
498.465500,0.427578
498.798080,0.425799
499.130620,0.430657
499.463120,0.425604
499.795580,0.427943
500.128000,0.422888
500.460380,0.426265
500.792720,0.434783
501.125020,0.429848
501.457280,0.437598
501.789500,0.440083
502.121680,0.442716
502.453820,0.434982
502.785920,0.431716
503.117980,0.434249
503.450000,0.435460
503.781980,0.446437
504.113920,0.442390
504.445820,0.442392
504.777680,0.446588
505.109500,0.436058
505.441280,0.445507
505.773020,0.440582
506.104720,0.439472
506.436380,0.448651
506.768000,0.439663
507.099580,0.436156
507.431120,0.441218
507.762620,0.456767
508.094080,0.437557
508.425500,0.456583
508.756880,0.453589
509.088220,0.450782
509.419520,0.462291
509.750780,0.455483
510.082000,0.443563
510.413180,0.449562
510.744320,0.457892
511.075420,0.456920
511.406480,0.450870
511.737500,0.451389
512.068480,0.463816
512.399420,0.466197
512.730320,0.453118
513.061180,0.467174
513.392000,0.458116
513.722780,0.462536
514.053520,0.463345
514.384220,0.460038
514.714880,0.467209
515.045500,0.463123
515.376080,0.471671
515.706620,0.463712
516.037120,0.466176
516.367580,0.463282
516.698000,0.462745
517.028380,0.475174
517.358720,0.466667
517.689020,0.470326
518.019280,0.471651
518.349500,0.472884
518.679680,0.477032
519.009820,0.462551
519.339920,0.474950
519.669980,0.473631
520.000000,0.472746
520.329980,0.479523
520.659920,0.482618
520.989820,0.475748
521.319680,0.473251
521.649500,0.474036
521.979280,0.475992
522.309020,0.477178
522.638720,0.471582
522.968380,0.494312
523.298000,0.473904
523.627580,0.483704
523.957120,0.488312
524.286620,0.480980
524.616080,0.476732
524.945500,0.482171
525.274880,0.483325
525.604220,0.478261
525.933520,0.490042
526.262780,0.476939
526.592000,0.484018
526.921180,0.481463
527.250320,0.488584
527.579420,0.486104
527.908480,0.486460
528.237500,0.492552
528.566480,0.496507
528.895420,0.487925
529.224320,0.490342
529.553180,0.489157
529.882000,0.499270
530.210780,0.488417
530.539520,0.493768
530.868220,0.486357
531.196880,0.490205
531.525500,0.500726
531.854080,0.478893
532.182620,0.486688
532.511120,0.500232
532.839580,0.492287
533.168000,0.495442
533.496380,0.500913
533.824720,0.488560
534.153020,0.499777
534.481280,0.495595
534.809500,0.506157
535.137680,0.498698
535.465820,0.493557
535.793920,0.497462
536.121980,0.494335
536.450000,0.502326
536.777980,0.507750
537.105920,0.500208
537.433820,0.501227
537.761680,0.506531
538.089500,0.505059
538.417280,0.498209
538.745020,0.501981
539.072720,0.501367
539.400380,0.506993
539.728000,0.502868
540.055580,0.491760
540.383120,0.497394
540.710620,0.505208
541.038080,0.502398
541.365500,0.504044
541.692880,0.505451
542.020220,0.506657
542.347520,0.502513
542.674780,0.500353
543.002000,0.498600
543.329180,0.504384
543.656320,0.506329
543.983420,0.498803
544.310480,0.505607
544.637500,0.509724
544.964480,0.505384
545.291420,0.506813
545.618320,0.500996
545.945180,0.506592
546.272000,0.499345
546.598780,0.501147
546.925520,0.506429
547.252220,0.502806
547.578880,0.503747
547.905500,0.506863
548.232080,0.505848
548.558620,0.513830
548.885120,0.504416
549.211580,0.497268
549.538000,0.505837
549.864380,0.499357
550.190720,0.505005
550.517020,0.503911
550.843280,0.513681
551.169500,0.497774
551.495680,0.507884
551.821820,0.503266
552.147920,0.504229
552.473980,0.516299
552.800000,0.500981
553.125980,0.505894
553.451920,0.511281
553.777820,0.503664
554.103680,0.505561
554.429500,0.508202
554.755280,0.506676
555.081020,0.506684
555.406720,0.500847
555.732380,0.501186
556.058000,0.508486
556.383580,0.504964
556.709120,0.499655
557.034620,0.501206
557.360080,0.503627
557.685500,0.501037
558.010880,0.500173
558.336220,0.496661
558.661520,0.511521
558.986780,0.506733
559.312000,0.504274
559.637180,0.500539
559.962320,0.503026
560.287420,0.501763
560.612480,0.504485
560.937500,0.506608
561.262480,0.502199
561.587420,0.499093
561.912320,0.499263
562.237180,0.505181
562.562000,0.502806
562.886780,0.503902
563.211520,0.497019
563.536220,0.492393
563.860880,0.498680
564.185500,0.494934
564.510080,0.501881
564.834620,0.490882
565.159120,0.496992
565.483580,0.494869
565.808000,0.491865
566.132380,0.495711
566.456720,0.503401
566.781020,0.498875
567.105280,0.497164
567.429500,0.502656
567.753680,0.494054
568.077820,0.493622
568.401920,0.498090
568.725980,0.500569
569.050000,0.493536
569.373980,0.484964
569.697920,0.490709
570.021820,0.488015
570.345680,0.491007
570.669500,0.492560
570.993280,0.495017
571.317020,0.487030
571.640720,0.493516
571.964380,0.488493
572.288000,0.492953
572.611580,0.490453
572.935120,0.495698
573.258620,0.484667
573.582080,0.487332
573.905500,0.486597
574.228880,0.495917
574.552220,0.482961
574.875520,0.487342
575.198780,0.481026
575.522000,0.483138
575.845180,0.479943
576.168320,0.486885
576.491420,0.487282
576.814480,0.490416
577.137500,0.483766
577.460480,0.485683
577.783420,0.487317
578.106320,0.485755
578.429180,0.486744
578.752000,0.485585
579.074780,0.493257
579.397520,0.485152
579.720220,0.476834
580.042880,0.483978
580.365500,0.476175
580.688080,0.488806
581.010620,0.479244
581.333120,0.480294
581.655580,0.479520
581.978000,0.483871
582.300380,0.479065
582.622720,0.483850
582.945020,0.488296
583.267280,0.473787
583.589500,0.485714
583.911680,0.470626
584.233820,0.475606
584.555920,0.472739
584.877980,0.484925
585.200000,0.469613
585.521980,0.480074
585.843920,0.475290
586.165820,0.474711
586.487680,0.474270
586.809500,0.476748
587.131280,0.473233
587.453020,0.474405
587.774720,0.475754
588.096380,0.471412
588.418000,0.473222
588.739580,0.472550
589.061120,0.471248
589.382620,0.469628
589.704080,0.470126
590.025500,0.470890
590.346880,0.476672
590.668220,0.469616
590.989520,0.468663
591.310780,0.469484
591.632000,0.462295
591.953180,0.465818
592.274320,0.466011
592.595420,0.464440
592.916480,0.460473
593.237500,0.465373
593.558480,0.463008
593.879420,0.459941
594.200320,0.465042
594.521180,0.455777
594.842000,0.462654
595.162780,0.469818
595.483520,0.457857
595.804220,0.462675
596.124880,0.468425
596.445500,0.454021
596.766080,0.459801
597.086620,0.457537
597.407120,0.453923
597.727580,0.459560
598.048000,0.454113
598.368380,0.452130
598.688720,0.457143
599.009020,0.449575
599.329280,0.452634
599.649500,0.448759
599.969680,0.454594
600.289820,0.447917
600.609920,0.446701
600.929980,0.446018
601.250000,0.450541
601.569980,0.447475
601.889920,0.446137
602.209820,0.446429
602.529680,0.450426
602.849500,0.441899
603.169280,0.445853
603.489020,0.446997
603.808720,0.435820
604.128380,0.440673
604.448000,0.435359
604.767580,0.444693
605.087120,0.436288
605.406620,0.446963
605.726080,0.438266
606.045500,0.434104
606.364880,0.434647
606.684220,0.438035
607.003520,0.434346
607.322780,0.438886
607.642000,0.430787
607.961180,0.429315
608.280320,0.425754
608.599420,0.423812
608.918480,0.430792
609.237500,0.430751
609.556480,0.424682
609.875420,0.425281
610.194320,0.426926
610.513180,0.425274
610.832000,0.426444
611.150780,0.429258
611.469520,0.426244
611.788220,0.421705
612.106880,0.422799
612.425500,0.418392
612.744080,0.419821
613.062620,0.425688
613.381120,0.415296
613.699580,0.419681
614.018000,0.416462
614.336380,0.414559
614.654720,0.415194
614.973020,0.411601
615.291280,0.414936
615.609500,0.417433
615.927680,0.411928
616.245820,0.407236
616.563920,0.408455
616.881980,0.410352
617.200000,0.409642
617.517980,0.407281
617.835920,0.402920
618.153820,0.396332
618.471680,0.403721
618.789500,0.405286
619.107280,0.399374
619.425020,0.397399
619.742720,0.403955
620.060380,0.395174
620.378000,0.400252
620.695580,0.397190
621.013120,0.391811
621.330620,0.401945
621.648080,0.391167
621.965500,0.392095
622.282880,0.394704
622.600220,0.394820
622.917520,0.396345
623.234780,0.397300
623.552000,0.387333
623.869180,0.385755
624.186320,0.388411
624.503420,0.392476
624.820480,0.390512
625.137500,0.387749
625.454480,0.387309
625.771420,0.386822
626.088320,0.382093
626.405180,0.389857
626.722000,0.385194
627.038780,0.379073
627.355520,0.383125
627.672220,0.383515
627.988880,0.381649
628.305500,0.385790
628.622080,0.381041
628.938620,0.379817
629.255120,0.381145
629.571580,0.372970
629.888000,0.377723
630.204380,0.379257
630.520720,0.376600
630.837020,0.374345
631.153280,0.372002
631.469500,0.380230
631.785680,0.370102
632.101820,0.373040
632.417920,0.370492
632.733980,0.366146
633.050000,0.375682
633.365980,0.371073
633.681920,0.364558
633.997820,0.371488
634.313680,0.361545
634.629500,0.359776
634.945280,0.365982
635.261020,0.362489
635.576720,0.366706
635.892380,0.356666
636.208000,0.365485
636.523580,0.364513
636.839120,0.360452
637.154620,0.358551
637.470080,0.354663
637.785500,0.356975
638.100880,0.362004
638.416220,0.363532
638.731520,0.348424
639.046780,0.358579
639.362000,0.355791
639.677180,0.352656
639.992320,0.347054
640.307420,0.347851
640.622480,0.355363
640.937500,0.345076
641.252480,0.351299
641.567420,0.356351
641.882320,0.347996
642.197180,0.350646
642.512000,0.345928
642.826780,0.341193
643.141520,0.343151
643.456220,0.339236
643.770880,0.343560
644.085500,0.339575
644.400080,0.344663
644.714620,0.345596
645.029120,0.345160
645.343580,0.335162
645.658000,0.336664
645.972380,0.334886
646.286720,0.336331
646.601020,0.335455
646.915280,0.334796
647.229500,0.330769
647.543680,0.329467
647.857820,0.333884
648.171920,0.332339
648.485980,0.332146
648.800000,0.326261
649.113980,0.332040
649.427920,0.329820
649.741820,0.320692
650.055680,0.329951
650.369500,0.327915
650.683280,0.319922
650.997020,0.325083
651.310720,0.318932
651.624380,0.320330
651.938000,0.319114
652.251580,0.320345
652.565120,0.313024
652.878620,0.320664
653.192080,0.315169
653.505500,0.313885
653.818880,0.323287
654.132220,0.318428
654.445520,0.309983
654.758780,0.313881
655.072000,0.306590
655.385180,0.306419
655.698320,0.308945
656.011420,0.308971
656.324480,0.308073
656.637500,0.301854
656.950480,0.303288
657.263420,0.308897
657.576320,0.302105
657.889180,0.304040
658.202000,0.302536
658.514780,0.303066
658.827520,0.302821
659.140220,0.299071
659.452880,0.301117
659.765500,0.302228
660.078080,0.291002
660.390620,0.296670
660.703120,0.297892
661.015580,0.294479
661.328000,0.304156
661.640380,0.296055
661.952720,0.293678
662.265020,0.299622
662.577280,0.292621
662.889500,0.290445
663.201680,0.287492
663.513820,0.287231
663.825920,0.286904
664.137980,0.294441
664.450000,0.287084
664.761980,0.286088
665.073920,0.281402
665.385820,0.286649
665.697680,0.282314
666.009500,0.280013
666.321280,0.279324
666.633020,0.279255
666.944720,0.281092
667.256380,0.279610
667.568000,0.275476
667.879580,0.280612
668.191120,0.275069
668.502620,0.277302
668.814080,0.276491
669.125500,0.274718
669.436880,0.272822
669.748220,0.270336
670.059520,0.268908
670.370780,0.266527
670.682000,0.268673
670.993180,0.269908
671.304320,0.266878
671.615420,0.269176
671.926480,0.268985
672.237500,0.267953
672.548480,0.267921
672.859420,0.266976
673.170320,0.265143
673.481180,0.265025
673.792000,0.262171
674.102780,0.262837
674.413520,0.259205
674.724220,0.257350
675.034880,0.264760
675.345500,0.257112
675.656080,0.256987
675.966620,0.258640
676.277120,0.255950
676.587580,0.256259
676.898000,0.255319
677.208380,0.250647
677.518720,0.249818
677.829020,0.250185
678.139280,0.256857
678.449500,0.257334
678.759680,0.256276
679.069820,0.245725
679.379920,0.249717
679.689980,0.253992
680.000000,0.247103
680.309980,0.248330
680.619920,0.246119
680.929820,0.245241
681.239680,0.248154
681.549500,0.246667
681.859280,0.243839
682.169020,0.240582
682.478720,0.250187
682.788380,0.242156
683.098000,0.241212
683.407580,0.240525
683.717120,0.238739
684.026620,0.241717
684.336080,0.241000
684.645500,0.234568
684.954880,0.235739
685.264220,0.237826
685.573520,0.239437
685.882780,0.243575
686.192000,0.234387
686.501180,0.236474
686.810320,0.242890
687.119420,0.236412
687.428480,0.233954
687.737500,0.234075
688.046480,0.228528
688.355420,0.228216
688.664320,0.228768
688.973180,0.232389
689.282000,0.229167
689.590780,0.225844
689.899520,0.225978
690.208220,0.226300
690.516880,0.230622
690.825500,0.224528
691.134080,0.228170
691.442620,0.222942
691.751120,0.224877
692.059580,0.222010
692.368000,0.221128
692.676380,0.226718
692.984720,0.220229
693.293020,0.220365
693.601280,0.219763
693.909500,0.214529
694.217680,0.217441
694.525820,0.217822
694.833920,0.219000
695.141980,0.217509
695.450000,0.217939
695.757980,0.215432
696.065920,0.213592
696.373820,0.218245
696.681680,0.218259
696.989500,0.216133
697.297280,0.212369
697.605020,0.213492
697.912720,0.209454
698.220380,0.212121
698.528000,0.214399
698.835580,0.210984
699.143120,0.207716
699.450620,0.214002
699.758080,0.204314
700.065500,0.208699
700.372880,0.203600
700.680220,0.210211
700.987520,0.206746
701.294780,0.206813
701.602000,0.203249
701.909180,0.206677
702.216320,0.203754
702.523420,0.205209
702.830480,0.208317
703.137500,0.206157
703.444480,0.204339
703.751420,0.201183
704.058320,0.199446
704.365180,0.198738
704.672000,0.201584
704.978780,0.204838
705.285520,0.198748
705.592220,0.195686
705.898880,0.197006
706.205500,0.201095
706.512080,0.198657
706.818620,0.198916
707.125120,0.191538
707.431580,0.195780
707.738000,0.198437
708.044380,0.193748
708.350720,0.186855
708.657020,0.194216
708.963280,0.190606
709.269500,0.194521
709.575680,0.195678
709.881820,0.190252
710.187920,0.191829
710.493980,0.195888
710.800000,0.196034
711.105980,0.184488
711.411920,0.188017
711.717820,0.183236
712.023680,0.189273
712.329500,0.189274
712.635280,0.187984
712.941020,0.190955
713.246720,0.186957
713.552380,0.188383
713.858000,0.180922
714.163580,0.181926
714.469120,0.183275
714.774620,0.186735
715.080080,0.179427
715.385500,0.184652
715.690880,0.180276
715.996220,0.180269
716.301520,0.177075
716.606780,0.186321
716.912000,0.184572
717.217180,0.179968
717.522320,0.177336
717.827420,0.178600
718.132480,0.177439
718.437500,0.179780
718.742480,0.177823
719.047420,0.179207
719.352320,0.180573
719.657180,0.176615
719.962000,0.181969
720.266780,0.177815
720.571520,0.174399
720.876220,0.176759
721.180880,0.167642
721.485500,0.169662
721.790080,0.172824
722.094620,0.175386
722.399120,0.174925
722.703580,0.169310
723.008000,0.171626
723.312380,0.174344
723.616720,0.168721
723.921020,0.171070
724.225280,0.172775
724.529500,0.164186
724.833680,0.175267
725.137820,0.170485
725.441920,0.169862
725.745980,0.170470
726.050000,0.168696
726.353980,0.165840
726.657920,0.165542
726.961820,0.162100
727.265680,0.169209
727.569500,0.161335
727.873280,0.162125
728.177020,0.168586
728.480720,0.165278
728.784380,0.170033
729.088000,0.163448
729.391580,0.162009
729.695120,0.168906
729.998620,0.163958
730.302080,0.160500
730.605500,0.157690
730.908880,0.154336
731.212220,0.160137
731.515520,0.157972
731.818780,0.154369
732.122000,0.161417
732.425180,0.156235
732.728320,0.161130
733.031420,0.158396
733.334480,0.158673
733.637500,0.164315
733.940480,0.156090
734.243420,0.159021
734.546320,0.150415
734.849180,0.160124
735.152000,0.154046
735.454780,0.152376
735.757520,0.152266
736.060220,0.161664
736.362880,0.156513
736.665500,0.153003
736.968080,0.149382
737.270620,0.160044
737.573120,0.156659
737.875580,0.156679
738.178000,0.150245
738.480380,0.147568
738.782720,0.148855
739.085020,0.151982
739.387280,0.154102
739.689500,0.150623
739.991680,0.152723
740.293820,0.149254
740.595920,0.150807
740.897980,0.158667
741.200000,0.151991
741.501980,0.153582
741.803920,0.152027
742.105820,0.152284
742.407680,0.151427
742.709500,0.150568
743.011280,0.151231
743.313020,0.152464
743.614720,0.145676
743.916380,0.143605
744.218000,0.152745
744.519580,0.151570
744.821120,0.152096
745.122620,0.146794
745.424080,0.143029
745.725500,0.143633
746.026880,0.148399
746.328220,0.141800
746.629520,0.141481
746.930780,0.144608
747.232000,0.147762
747.533180,0.139719
747.834320,0.146074
748.135420,0.143567
748.436480,0.150343
748.737500,0.140210
749.038480,0.143555
749.339420,0.144991
749.640320,0.147706
749.941180,0.140537
750.242000,0.138191
750.542780,0.139578
750.843520,0.151185
751.144220,0.143590
751.444880,0.148383
751.745500,0.138961
752.046080,0.147530
752.346620,0.140464
752.647120,0.135859
752.947580,0.145537
753.248000,0.140554
753.548380,0.138582
753.848720,0.141661
754.149020,0.137331
754.449280,0.141825
754.749500,0.142004
755.049680,0.140000
755.349820,0.140093
755.649920,0.139458
755.949980,0.138023
756.250000,0.143327
756.549980,0.137954
756.849920,0.138001
757.149820,0.135729
757.449680,0.137954
757.749500,0.139741
758.049280,0.137201
758.349020,0.134910
758.648720,0.142857
758.948380,0.136770
759.248000,0.134097
759.547580,0.134499
759.847120,0.135768
760.146620,0.140731
760.446080,0.140457
760.745500,0.139161
761.044880,0.137784
761.344220,0.141126
761.643520,0.140537
761.942780,0.129461
762.242000,0.140028
762.541180,0.133099
762.840320,0.137640
763.139420,0.133615
763.438480,0.129187
763.737500,0.135079
764.036480,0.134871
764.335420,0.129852
764.634320,0.131670
764.933180,0.135616
765.232000,0.136017
765.530780,0.131930
765.829520,0.136364
766.128220,0.131524
766.426880,0.132907
766.725500,0.135024
767.024080,0.135117
767.322620,0.132780
767.621120,0.131436
767.919580,0.129693
768.218000,0.132011
768.516380,0.131170
768.814720,0.126200
769.113020,0.132323
769.411280,0.133287
769.709500,0.129229
770.007680,0.130198
770.305820,0.128465
770.603920,0.132749
770.901980,0.133197
771.200000,0.129755
771.497980,0.134048
771.795920,0.131104
772.093820,0.129011
772.391680,0.133817
772.689500,0.125676
772.987280,0.129293
773.285020,0.129187
773.582720,0.129054
773.880380,0.126287
774.178000,0.127471
774.475580,0.132619
774.773120,0.129853
775.070620,0.133874
775.368080,0.130261
775.665500,0.124916
775.962880,0.132088
776.260220,0.128533
776.557520,0.128085
776.854780,0.129141
777.152000,0.124668
777.449180,0.130816
777.746320,0.129032
778.043420,0.131651
778.340480,0.132612
778.637500,0.127789
778.934480,0.128447
779.231420,0.130258
779.528320,0.126921
779.825180,0.129117
780.122000,0.128818
780.418780,0.132695
780.715520,0.130785
781.012220,0.134932
781.308880,0.131170
781.605500,0.123288
781.902080,0.130048
782.198620,0.132604
782.495120,0.127572
782.791580,0.131362
783.088000,0.134576
783.384380,0.132050
783.680720,0.127223
783.977020,0.133517
784.273280,0.127972
784.569500,0.125786
784.865680,0.128651
785.161820,0.134028
785.457920,0.127512
785.753980,0.125611
786.050000,0.131215
786.345980,0.134028
786.641920,0.133241
786.937820,0.132479
787.233680,0.121781
787.529500,0.127601
787.825280,0.131728
788.121020,0.126771
788.416720,0.133380
788.712380,0.131171
789.008000,0.125354
789.303580,0.127915
789.599120,0.132364
789.894620,0.136462
790.190080,0.129079
790.485500,0.128870
790.780880,0.126165
791.076220,0.132035
791.371520,0.132171
791.666780,0.130909
791.962000,0.126378
792.257180,0.125183
792.552320,0.133430
792.847420,0.128821
793.142480,0.143590
793.437500,0.133864
793.732480,0.134601
794.027420,0.124629
794.322320,0.128262
794.617180,0.127786
794.912000,0.125557
795.206780,0.127517
795.501520,0.131559
795.796220,0.128148
796.090880,0.134891
796.385500,0.132684
796.680080,0.127898
796.974620,0.131737
797.269120,0.126419
797.563580,0.128244
797.858000,0.128322
798.152380,0.129930
798.446720,0.124615
798.741020,0.132512
799.035280,0.128882
799.329500,0.130100
799.623680,0.129457
