399.985280,0.256757
400.329500,0.229730
400.673680,0.291139
401.017820,0.176471
401.361920,0.227273
401.705980,0.195122
402.050000,0.181818
402.393980,0.258824
402.737920,0.269663
403.081820,0.268041
403.425680,0.255814
403.769500,0.260417
404.113280,0.126437
404.457020,0.258427
404.800720,0.152174
405.144380,0.242424
405.488000,0.236559
405.831580,0.278351
406.175120,0.212766
406.518620,0.240000
406.862080,0.216495
407.205500,0.197917
407.548880,0.255102
407.892220,0.235294
408.235520,0.265957
408.578780,0.266667
408.922000,0.182692
409.265180,0.191919
409.608320,0.191919
409.951420,0.350515
410.294480,0.264706
410.637500,0.228261
410.980480,0.245098
411.323420,0.214286
411.666320,0.293578
412.009180,0.300000
412.352000,0.237624
412.694780,0.275229
413.037520,0.238532
413.380220,0.252252
413.722880,0.267857
414.065500,0.216216
414.408080,0.238938
414.750620,0.238938
415.093120,0.223140
415.435580,0.277311
415.778000,0.325758
416.120380,0.260504
416.462720,0.246032
416.805020,0.270677
417.147280,0.276119
417.489500,0.257143
417.831680,0.246575
418.173820,0.290780
418.515920,0.286713
418.857980,0.291139
419.200000,0.275641
419.541980,0.289941
419.883920,0.264045
420.225820,0.265896
420.567680,0.284916
420.909500,0.289617
421.251280,0.291667
421.593020,0.265306
421.934720,0.267677
422.276380,0.297436
422.618000,0.318627
422.959580,0.299020
423.301120,0.287671
423.642620,0.269565
423.984080,0.255814
424.325500,0.291480
424.666880,0.275862
425.008220,0.289916
425.349520,0.258475
425.690780,0.265385
426.032000,0.266667
426.373180,0.273859
426.714320,0.320312
427.055420,0.293436
427.396480,0.269663
427.737500,0.280632
428.078480,0.284585
428.419420,0.309237
428.760320,0.268199
429.101180,0.314961
429.442000,0.310345
429.782780,0.307692
430.123520,0.298039
430.464220,0.298893
430.804880,0.318008
431.145500,0.283636
431.486080,0.307116
431.826620,0.333333
432.167120,0.297794
432.507580,0.322464
432.848000,0.305755
433.188380,0.317690
433.528720,0.305660
433.869020,0.317857
434.209280,0.291228
434.549500,0.327526
434.889680,0.333333
435.229820,0.324232
435.569920,0.280277
435.909980,0.310680
436.250000,0.325424
436.589980,0.297214
436.929920,0.311111
437.269820,0.294671
437.609680,0.319527
437.949500,0.316265
438.289280,0.300283
438.629020,0.313953
438.968720,0.322674
439.308380,0.325203
439.648000,0.309589
439.987580,0.312169
440.327120,0.333333
440.666620,0.303896
441.006080,0.314578
441.345500,0.314496
441.684880,0.337321
442.024220,0.337469
442.363520,0.333333
442.702780,0.325000
443.042000,0.317181
443.381180,0.329741
443.720320,0.365011
444.059420,0.334034
444.398480,0.328452
444.737500,0.329918
445.076480,0.325397
445.415420,0.331337
445.754320,0.332640
446.093180,0.333945
446.432000,0.330827
446.770780,0.343454
447.109520,0.345588
447.448220,0.343470
447.786880,0.350626
448.125500,0.358621
448.464080,0.337500
448.802620,0.351064
449.141120,0.346021
449.479580,0.342657
449.818000,0.364888
450.156380,0.356187
450.494720,0.353719
450.833020,0.360140
451.171280,0.352740
451.509500,0.365854
451.847680,0.355818
452.185820,0.354561
452.523920,0.379725
452.861980,0.355818
453.200000,0.363787
453.537980,0.359664
453.875920,0.374790
454.213820,0.363014
454.551680,0.354305
454.889500,0.369309
455.227280,0.362989
455.565020,0.365159
455.902720,0.376040
456.240380,0.349418
456.578000,0.367596
456.915580,0.367876
457.253120,0.358553
457.590620,0.374384
457.928080,0.385522
458.265500,0.386824
458.602880,0.392857
458.940220,0.387479
459.277520,0.382400
459.614780,0.378069
459.952000,0.372671
460.289180,0.387658
460.626320,0.390551
460.963420,0.371567
461.300480,0.396024
461.637500,0.375963
461.974480,0.396024
462.311420,0.409836
462.648320,0.392387
462.985180,0.381636
463.322000,0.400298
463.658780,0.385359
463.995520,0.383769
464.332220,0.401662
464.668880,0.392473
465.005500,0.396783
465.342080,0.407170
465.678620,0.387454
466.015120,0.395860
466.351580,0.402023
466.688000,0.399513
467.024380,0.404617
467.360720,0.409091
467.697020,0.410023
468.033280,0.403333
468.369500,0.403974
468.705680,0.409245
469.041820,0.397917
469.377920,0.401302
469.713980,0.403708
470.050000,0.410628
470.385980,0.413894
470.721920,0.412341
471.057820,0.402534
471.393680,0.405051
471.729500,0.410565
472.065280,0.416816
472.401020,0.409574
472.736720,0.417976
473.072380,0.415619
473.408000,0.416014
473.743580,0.401384
474.079120,0.405685
474.414620,0.419847
474.750080,0.415785
475.085500,0.422697
475.420880,0.420483
475.756220,0.408013
476.091520,0.422847
476.426780,0.415858
476.762000,0.421561
477.097180,0.425600
477.432320,0.422456
477.767420,0.410948
478.102480,0.427559
478.437500,0.428571
478.772480,0.415288
479.107420,0.429618
479.442320,0.436451
479.777180,0.431981
480.112000,0.423729
480.446780,0.417771
480.781520,0.433172
481.116220,0.436540
481.450880,0.430133
481.785500,0.427215
482.120080,0.432602
482.454620,0.437451
482.789120,0.434713
483.123580,0.428349
483.458000,0.437500
483.792380,0.444888
484.126720,0.440927
484.461020,0.434036
484.795280,0.434850
485.129500,0.432580
485.463680,0.449612
485.797820,0.448678
486.131920,0.439174
486.465980,0.445560
486.800000,0.448092
487.133980,0.428248
487.467920,0.439939
487.801820,0.462243
488.135680,0.454890
488.469500,0.444024
488.803280,0.458395
489.137020,0.437363
489.470720,0.444362
489.804380,0.455828
490.138000,0.454006
490.471580,0.456890
490.805120,0.450322
491.138620,0.437811
491.472080,0.451590
491.805500,0.444909
492.138880,0.454482
492.472220,0.457439
492.805520,0.456704
493.138780,0.455548
493.472000,0.447492
493.805180,0.464529
494.138320,0.458306
494.471420,0.450521
494.804480,0.445666
495.137500,0.461489
495.470480,0.457616
495.803420,0.460327
496.136320,0.454887
496.469180,0.456722
496.802000,0.457213
497.134780,0.465130
497.467520,0.474006
497.800220,0.455189
498.132880,0.468548
498.465500,0.462920
498.798080,0.461187
499.130620,0.468838
499.463120,0.466592
499.795580,0.460946
500.128000,0.468665
500.460380,0.474166
500.792720,0.466066
501.125020,0.464004
501.457280,0.470496
501.789500,0.467459
502.121680,0.476931
502.453820,0.463029
502.785920,0.458729
503.117980,0.461727
503.450000,0.469613
503.781980,0.467862
504.113920,0.462779
504.445820,0.471561
504.777680,0.461176
505.109500,0.471635
505.441280,0.472275
505.773020,0.466886
506.104720,0.473858
506.436380,0.475627
506.768000,0.473807
507.099580,0.466362
507.431120,0.473536
507.762620,0.463346
508.094080,0.469462
508.425500,0.472456
508.756880,0.474623
509.088220,0.467801
509.419520,0.465084
509.750780,0.479850
510.082000,0.469683
510.413180,0.478121
510.744320,0.473079
511.075420,0.475710
511.406480,0.472026
511.737500,0.462963
512.068480,0.469925
512.399420,0.474178
512.730320,0.462356
513.061180,0.477640
513.392000,0.466635
513.722780,0.472622
514.053520,0.469094
514.384220,0.466698
514.714880,0.473432
515.045500,0.465517
515.376080,0.470218
515.706620,0.480273
516.037120,0.474020
516.367580,0.469690
516.698000,0.460784
517.028380,0.480636
517.358720,0.477531
517.689020,0.474283
518.019280,0.475163
518.349500,0.482514
518.679680,0.466431
519.009820,0.479251
519.339920,0.471443
519.669980,0.463084
520.000000,0.467652
520.329980,0.480041
520.659920,0.475971
520.989820,0.463880
521.319680,0.475823
521.649500,0.468895
521.979280,0.470251
522.309020,0.471473
522.638720,0.464414
522.968380,0.477249
523.298000,0.471294
523.627580,0.467150
523.957120,0.476364
524.286620,0.475769
524.616080,0.466908
524.945500,0.478553
525.274880,0.474602
525.604220,0.475155
525.933520,0.469602
526.262780,0.465788
526.592000,0.469305
526.921180,0.474352
527.250320,0.467275
527.579420,0.475493
527.908480,0.469719
528.237500,0.468222
528.566480,0.472056
528.895420,0.475111
529.224320,0.471025
529.553180,0.469398
529.882000,0.478832
530.210780,0.463803
530.539520,0.469319
530.868220,0.470560
531.196880,0.469183
531.525500,0.478450
531.854080,0.463415
532.182620,0.460065
532.511120,0.462181
532.839580,0.467786
533.168000,0.462170
533.496380,0.468950
533.824720,0.470615
534.153020,0.468123
534.481280,0.468722
534.809500,0.474494
535.137680,0.458767
535.465820,0.456615
535.793920,0.464044
536.121980,0.470835
536.450000,0.473150
536.777980,0.465857
537.105920,0.471150
537.433820,0.470131
537.761680,0.464898
538.089500,0.474302
538.417280,0.462793
538.745020,0.472266
539.072720,0.462319
539.400380,0.463481
539.728000,0.461568
540.055580,0.461798
540.383120,0.462398
540.710620,0.468750
541.038080,0.465142
541.365500,0.468750
541.692880,0.463299
542.020220,0.458438
542.347520,0.464824
542.674780,0.459774
543.002000,0.456263
543.329180,0.464749
543.656320,0.465190
543.983420,0.462564
544.310480,0.459055
544.637500,0.461276
544.964480,0.462315
545.291420,0.456962
545.618320,0.460823
545.945180,0.452208
546.272000,0.451180
546.598780,0.459521
546.925520,0.459611
547.252220,0.456586
547.578880,0.457804
547.905500,0.454902
548.232080,0.451267
548.558620,0.460137
548.885120,0.456984
549.211580,0.449373
549.538000,0.452010
549.864380,0.448232
550.190720,0.458831
550.517020,0.449804
550.843280,0.447883
551.169500,0.441158
551.495680,0.449737
551.821820,0.451339
552.147920,0.441119
552.473980,0.451762
552.800000,0.441465
553.125980,0.450229
553.451920,0.447246
553.777820,0.442039
554.103680,0.447590
554.429500,0.438567
554.755280,0.440587
555.081020,0.438837
555.406720,0.438198
555.732380,0.438157
556.058000,0.438221
556.383580,0.439233
556.709120,0.440386
557.034620,0.437823
557.360080,0.443178
557.685500,0.436376
558.010880,0.438128
558.336220,0.436204
558.661520,0.442396
558.986780,0.439405
559.312000,0.435541
559.637180,0.434470
559.962320,0.428266
560.287420,0.432652
560.612480,0.439541
560.937500,0.434288
561.262480,0.431085
561.587420,0.433805
561.912320,0.424466
562.237180,0.424870
562.562000,0.433969
562.886780,0.425864
563.211520,0.425484
563.536220,0.426345
563.860880,0.431912
564.185500,0.426266
564.510080,0.428141
564.834620,0.418683
565.159120,0.421053
565.483580,0.422653
565.808000,0.425274
566.132380,0.413279
566.456720,0.418745
566.781020,0.414104
567.105280,0.416257
567.429500,0.418058
567.753680,0.415420
568.077820,0.418245
568.401920,0.422078
568.725980,0.415180
569.050000,0.407605
569.373980,0.414922
569.697920,0.414107
570.021820,0.414981
570.345680,0.414849
570.669500,0.408623
570.993280,0.416759
571.317020,0.405188
571.640720,0.406447
571.964380,0.409800
572.288000,0.410608
572.611580,0.406589
572.935120,0.412645
573.258620,0.403141
573.582080,0.404247
573.905500,0.408042
574.228880,0.408315
574.552220,0.401979
574.875520,0.409903
575.198780,0.401879
575.522000,0.400293
575.845180,0.391476
576.168320,0.400647
576.491420,0.403343
576.814480,0.397468
577.137500,0.402597
577.460480,0.400145
577.783420,0.396213
578.106320,0.398148
578.429180,0.400848
578.752000,0.390066
579.074780,0.391773
579.397520,0.394771
579.720220,0.389961
580.042880,0.392798
580.365500,0.388815
580.688080,0.396201
581.010620,0.395545
581.333120,0.390114
581.655580,0.391941
581.978000,0.396408
582.300380,0.387861
582.622720,0.385300
582.945020,0.386216
583.267280,0.381635
583.589500,0.384591
583.911680,0.386154
584.233820,0.381492
584.555920,0.385755
584.877980,0.380653
585.200000,0.376918
585.521980,0.378746
585.843920,0.385906
586.165820,0.380256
586.487680,0.371652
586.809500,0.378338
587.131280,0.368530
587.453020,0.376488
587.774720,0.378474
588.096380,0.371937
588.418000,0.381621
588.739580,0.374820
589.061120,0.373778
589.382620,0.374785
589.704080,0.369705
590.025500,0.374715
590.346880,0.371557
590.668220,0.367684
590.989520,0.369107
591.310780,0.368130
591.632000,0.366940
591.953180,0.366454
592.274320,0.364182
592.595420,0.367187
592.916480,0.356697
593.237500,0.364592
593.558480,0.363196
593.879420,0.363367
594.200320,0.358961
594.521180,0.359894
594.842000,0.366201
595.162780,0.362179
595.483520,0.362138
595.804220,0.357680
596.124880,0.359179
596.445500,0.351323
596.766080,0.358161
597.086620,0.355361
597.407120,0.352027
597.727580,0.354283
598.048000,0.353610
598.368380,0.352709
598.688720,0.344954
599.009020,0.349257
599.329280,0.349920
599.649500,0.343106
599.969680,0.348024
600.289820,0.346955
600.609920,0.344376
600.929980,0.342598
601.250000,0.340000
601.569980,0.340805
601.889920,0.339481
602.209820,0.337662
602.529680,0.343862
602.849500,0.336879
603.169280,0.340590
603.489020,0.339884
603.808720,0.334888
604.128380,0.338024
604.448000,0.329006
604.767580,0.332123
605.087120,0.328532
605.406620,0.331934
605.726080,0.334189
606.045500,0.329061
606.364880,0.328608
606.684220,0.328384
607.003520,0.323394
607.322780,0.320068
607.642000,0.321654
607.961180,0.322926
608.280320,0.323666
608.599420,0.319235
608.918480,0.322874
609.237500,0.321890
609.556480,0.318733
609.875420,0.317484
610.194320,0.316504
610.513180,0.316958
610.832000,0.321024
611.150780,0.324722
611.469520,0.313424
611.788220,0.313785
612.106880,0.309409
612.425500,0.307856
612.744080,0.309942
613.062620,0.305199
613.381120,0.310481
613.699580,0.310239
614.018000,0.308968
614.336380,0.307526
614.654720,0.304186
614.973020,0.303301
615.291280,0.304927
615.609500,0.312203
615.927680,0.302534
616.245820,0.300247
616.563920,0.302767
616.881980,0.302152
617.200000,0.303266
617.517980,0.300249
617.835920,0.293259
618.153820,0.297482
618.471680,0.297054
618.789500,0.296728
619.107280,0.299218
619.425020,0.290517
619.742720,0.295355
620.060380,0.289878
620.378000,0.292008
620.695580,0.295338
621.013120,0.286614
621.330620,0.284907
621.648080,0.284858
621.965500,0.283877
622.282880,0.288462
622.600220,0.285534
622.917520,0.283239
623.234780,0.285760
623.552000,0.287078
623.869180,0.287110
624.186320,0.280166
624.503420,0.284639
624.820480,0.281810
625.137500,0.281339
625.454480,0.277587
625.771420,0.279319
626.088320,0.281211
626.405180,0.275980
626.722000,0.279172
627.038780,0.274436
627.355520,0.276562
627.672220,0.276516
627.988880,0.276827
628.305500,0.278280
628.622080,0.277261
628.938620,0.278899
629.255120,0.272869
629.571580,0.273675
629.888000,0.272783
630.204380,0.270328
630.520720,0.273614
630.837020,0.267653
631.153280,0.264388
631.469500,0.267738
631.785680,0.262206
632.101820,0.263872
632.417920,0.261997
632.733980,0.262605
633.050000,0.266525
633.365980,0.260818
633.681920,0.265215
633.997820,0.258816
634.313680,0.260100
634.629500,0.261280
634.945280,0.258944
635.261020,0.262694
635.576720,0.259248
635.892380,0.256172
636.208000,0.256827
636.523580,0.258112
636.839120,0.253909
637.154620,0.253913
637.470080,0.253945
637.785500,0.252931
638.100880,0.251086
638.416220,0.251366
638.731520,0.251862
639.046780,0.247597
639.362000,0.245413
639.677180,0.249001
639.992320,0.249789
640.307420,0.247822
640.622480,0.248110
640.937500,0.241054
641.252480,0.246858
641.567420,0.245524
641.882320,0.241927
642.197180,0.244526
642.512000,0.235936
642.826780,0.238558
643.141520,0.238122
643.456220,0.239347
643.770880,0.243781
644.085500,0.240637
644.400080,0.238202
644.714620,0.238016
645.029120,0.237349
645.343580,0.237246
645.658000,0.240078
645.972380,0.232392
646.286720,0.236032
646.601020,0.238306
646.915280,0.233617
647.229500,0.233791
647.543680,0.229218
647.857820,0.229287
648.171920,0.232230
648.485980,0.228282
648.800000,0.230091
649.113980,0.231153
649.427920,0.228294
649.741820,0.219841
650.055680,0.225727
650.369500,0.226177
650.683280,0.219756
650.997020,0.218372
651.310720,0.223445
651.624380,0.218956
651.938000,0.215512
652.251580,0.218480
652.565120,0.217719
652.878620,0.221847
653.192080,0.220225
653.505500,0.217111
653.818880,0.218652
654.132220,0.215323
654.445520,0.216676
654.758780,0.215297
655.072000,0.213754
655.385180,0.210842
655.698320,0.213204
656.011420,0.214961
656.324480,0.211309
656.637500,0.212341
656.950480,0.213740
657.263420,0.214307
657.576320,0.213756
657.889180,0.207019
658.202000,0.209843
658.514780,0.206907
658.827520,0.209184
659.140220,0.204675
659.452880,0.203564
659.765500,0.202890
660.078080,0.204033
660.390620,0.201650
660.703120,0.205927
661.015580,0.203067
661.328000,0.201511
661.640380,0.200683
661.952720,0.201806
662.265020,0.200693
662.577280,0.199427
662.889500,0.203091
663.201680,0.198468
663.513820,0.196526
663.825920,0.198847
664.137980,0.201357
664.450000,0.193734
664.761980,0.193781
665.073920,0.197014
665.385820,0.195026
665.697680,0.196033
666.009500,0.193881
666.321280,0.193837
666.633020,0.189495
666.944720,0.190765
667.256380,0.192799
667.568000,0.187840
667.879580,0.188776
668.191120,0.193338
668.502620,0.189661
668.814080,0.190175
669.125500,0.186452
669.436880,0.184993
669.748220,0.190031
670.059520,0.186275
670.370780,0.191023
670.682000,0.183009
670.993180,0.187456
671.304320,0.181786
671.615420,0.179332
671.926480,0.185238
672.237500,0.181493
672.548480,0.181689
672.859420,0.179771
673.170320,0.178818
673.481180,0.183563
673.792000,0.178507
674.102780,0.179533
674.413520,0.178637
674.724220,0.179673
675.034880,0.183718
675.345500,0.179431
675.656080,0.176770
675.966620,0.174609
676.277120,0.173929
676.587580,0.172312
676.898000,0.179171
677.208380,0.172643
677.518720,0.170678
677.829020,0.170362
678.139280,0.170867
678.449500,0.173041
678.759680,0.174972
679.069820,0.171747
679.379920,0.173897
679.689980,0.171556
680.000000,0.169346
680.309980,0.171863
680.619920,0.171147
680.929820,0.167973
681.239680,0.168021
681.549500,0.171111
681.859280,0.164675
682.169020,0.167475
682.478720,0.166417
682.788380,0.167590
683.098000,0.171279
683.407580,0.163977
683.717120,0.166667
684.026620,0.161898
684.336080,0.162183
684.645500,0.162738
684.954880,0.159804
685.264220,0.166855
685.573520,0.165969
685.882780,0.162639
686.192000,0.163657
686.501180,0.163829
686.810320,0.164873
687.119420,0.160395
687.428480,0.165591
687.737500,0.160399
688.046480,0.161426
688.355420,0.161449
688.664320,0.157230
688.973180,0.160031
689.282000,0.154321
689.590780,0.157592
689.899520,0.154577
690.208220,0.160168
690.516880,0.158839
690.825500,0.151321
691.134080,0.154897
691.442620,0.155869
691.751120,0.158134
692.059580,0.157814
692.368000,0.154487
692.676380,0.153817
692.984720,0.154580
693.293020,0.158435
693.601280,0.154903
693.909500,0.156640
694.217680,0.150038
694.525820,0.154989
694.833920,0.154140
695.141980,0.153105
695.450000,0.153053
695.757980,0.150115
696.065920,0.153786
696.373820,0.146266
696.681680,0.152282
696.989500,0.150907
697.297280,0.152859
697.605020,0.148413
697.912720,0.150653
698.220380,0.145218
698.528000,0.150712
698.835580,0.150533
699.143120,0.146921
699.450620,0.144789
699.758080,0.145490
700.065500,0.146049
700.372880,0.143200
700.680220,0.145991
700.987520,0.145238
701.294780,0.145580
701.602000,0.140650
701.909180,0.146264
702.216320,0.142354
702.523420,0.148777
702.830480,0.146139
703.137500,0.140296
703.444480,0.145168
703.751420,0.141223
704.058320,0.143649
704.365180,0.147082
704.672000,0.145347
704.978780,0.143192
705.285520,0.143584
705.592220,0.139608
705.898880,0.141844
706.205500,0.142019
706.512080,0.140600
706.818620,0.140867
707.125120,0.141923
707.431580,0.137945
707.738000,0.143750
708.044380,0.135083
708.350720,0.144822
708.657020,0.141852
708.963280,0.142081
709.269500,0.139335
709.575680,0.142240
709.881820,0.136792
710.187920,0.138911
710.493980,0.134988
710.800000,0.138444
711.105980,0.134789
711.411920,0.138352
711.717820,0.142300
712.023680,0.137583
712.329500,0.137618
712.635280,0.137209
712.941020,0.137225
713.246720,0.138735
713.552380,0.135008
713.858000,0.137564
714.163580,0.134570
714.469120,0.132864
714.774620,0.134623
715.080080,0.138987
715.385500,0.134692
715.690880,0.131361
715.996220,0.133518
716.301520,0.135573
716.606780,0.135613
716.912000,0.134491
717.217180,0.134078
717.522320,0.132803
717.827420,0.130594
718.132480,0.134484
718.437500,0.127191
718.742480,0.132661
719.047420,0.135518
719.352320,0.135326
719.657180,0.134914
719.962000,0.134409
720.266780,0.132530
720.571520,0.131317
720.876220,0.129705
721.180880,0.131271
721.485500,0.131634
721.790080,0.130361
722.094620,0.132933
722.399120,0.133994
722.703580,0.132876
723.008000,0.131953
723.312380,0.127852
723.616720,0.126647
723.921020,0.132092
724.225280,0.128272
724.529500,0.131349
724.833680,0.129448
725.137820,0.126872
725.441920,0.127954
725.745980,0.131544
726.050000,0.129905
726.353980,0.122127
726.657920,0.130454
726.961820,0.129224
727.265680,0.131299
727.569500,0.133455
727.873280,0.125635
728.177020,0.131737
728.480720,0.128241
728.784380,0.131047
729.088000,0.126707
729.391580,0.126007
729.695120,0.132917
729.998620,0.129063
730.302080,0.129745
730.605500,0.129549
730.908880,0.128858
731.212220,0.128795
731.515520,0.128230
731.818780,0.129126
732.122000,0.125000
732.425180,0.127649
732.728320,0.126921
733.031420,0.126817
733.334480,0.129082
733.637500,0.126008
733.940480,0.127431
734.243420,0.127421
734.546320,0.127075
734.849180,0.124483
735.152000,0.125000
735.454780,0.123967
735.757520,0.130137
736.060220,0.126382
736.362880,0.126050
736.665500,0.124804
736.968080,0.128426
737.270620,0.127382
737.573120,0.130459
737.875580,0.129192
738.178000,0.126837
738.480380,0.125405
738.782720,0.126499
739.085020,0.126101
739.387280,0.127494
739.689500,0.130238
739.991680,0.133071
740.293820,0.128248
740.595920,0.124652
740.897980,0.126482
741.200000,0.128996
741.501980,0.127794
741.803920,0.124437
742.105820,0.126904
742.407680,0.132207
742.709500,0.123295
743.011280,0.130715
743.313020,0.122899
743.614720,0.121300
743.916380,0.125000
744.218000,0.128282
744.519580,0.128623
744.821120,0.130539
745.122620,0.129419
745.424080,0.126202
745.725500,0.126735
746.026880,0.126847
746.328220,0.127004
746.629520,0.124624
746.930780,0.125613
747.232000,0.126303
747.533180,0.122026
747.834320,0.125989
748.135420,0.125544
748.436480,0.122271
748.737500,0.126004
749.038480,0.124007
749.339420,0.127567
749.640320,0.128850
749.941180,0.128045
750.242000,0.131910
750.542780,0.130273
750.843520,0.126842
751.144220,0.129487
751.444880,0.130628
751.745500,0.124675
752.046080,0.127004
752.346620,0.120490
752.647120,0.133246
752.947580,0.128719
753.248000,0.127660
753.548380,0.126871
753.848720,0.126207
754.149020,0.121857
754.449280,0.126067
754.749500,0.128069
755.049680,0.126000
755.349820,0.131421
755.649920,0.130205
755.949980,0.131387
756.250000,0.128863
756.549980,0.128053
756.849920,0.133243
757.149820,0.125083
757.449680,0.130033
757.749500,0.131561
758.049280,0.124232
758.349020,0.129346
758.648720,0.126294
758.948380,0.127148
759.248000,0.132749
759.547580,0.131137
759.847120,0.124742
760.146620,0.133965
760.446080,0.131048
760.745500,0.132867
761.044880,0.123580
761.344220,0.131148
761.643520,0.130650
761.942780,0.125962
762.242000,0.127298
762.541180,0.130282
762.840320,0.131320
763.139420,0.129395
763.438480,0.129187
763.737500,0.125431
764.036480,0.133473
764.335420,0.124912
764.634320,0.128898
764.933180,0.128767
765.232000,0.127689
765.530780,0.131228
765.829520,0.134965
766.128220,0.133612
766.426880,0.126510
766.725500,0.133653
767.024080,0.132373
767.322620,0.136929
767.621120,0.133469
767.919580,0.130375
768.218000,0.129275
768.516380,0.135903
768.814720,0.133745
769.113020,0.133012
769.411280,0.136050
769.709500,0.132612
770.007680,0.128153
770.305820,0.133198
770.603920,0.126685
770.901980,0.134563
771.200000,0.128397
771.497980,0.131367
771.795920,0.130435
772.093820,0.126337
772.391680,0.135794
772.689500,0.129730
772.987280,0.135354
773.285020,0.132604
773.582720,0.131081
773.880380,0.137955
774.178000,0.137696
774.475580,0.139987
774.773120,0.134538
775.070620,0.136579
775.368080,0.132933
775.665500,0.133647
775.962880,0.136758
776.260220,0.136608
776.557520,0.138759
776.854780,0.135903
777.152000,0.131963
777.449180,0.138233
777.746320,0.135753
778.043420,0.141883
778.340480,0.136671
778.637500,0.138607
778.934480,0.135844
779.231420,0.137720
779.528320,0.138945
779.825180,0.136364
780.122000,0.140770
780.418780,0.138851
780.715520,0.143528
781.012220,0.141781
781.308880,0.138607
781.605500,0.137671
781.902080,0.136893
782.198620,0.140807
782.495120,0.140604
782.791580,0.143054
783.088000,0.144928
783.384380,0.143054
783.680720,0.147059
783.977020,0.142464
784.273280,0.148951
784.569500,0.140461
784.865680,0.141864
785.161820,0.145139
785.457920,0.141372
785.753980,0.144452
786.050000,0.138812
786.345980,0.142361
786.641920,0.142956
786.937820,0.143875
787.233680,0.139179
787.529500,0.140083
787.825280,0.150850
788.121020,0.140227
788.416720,0.141849
788.712380,0.144570
789.008000,0.141643
789.303580,0.142049
789.599120,0.142545
789.894620,0.143682
790.190080,0.145033
790.485500,0.154068
790.780880,0.143369
791.076220,0.145743
791.371520,0.143791
791.666780,0.151273
791.962000,0.144012
792.257180,0.141288
792.552320,0.149384
792.847420,0.151383
793.142480,0.150916
793.437500,0.148336
793.732480,0.148500
794.027420,0.148368
794.322320,0.151380
794.617180,0.145617
794.912000,0.147845
795.206780,0.149888
795.501520,0.154373
795.796220,0.150370
796.090880,0.150716
796.385500,0.147676
796.680080,0.142857
796.974620,0.150449
797.269120,0.149129
797.563580,0.154198
797.858000,0.154897
798.152380,0.151585
798.446720,0.151538
798.741020,0.154854
799.035280,0.152950
799.329500,0.153195
799.623680,0.151938
