399.985280,0.189189
400.329500,0.202703
400.673680,0.265823
401.017820,0.294118
401.361920,0.242424
401.705980,0.231707
402.050000,0.181818
402.393980,0.282353
402.737920,0.258427
403.081820,0.257732
403.425680,0.267442
403.769500,0.250000
404.113280,0.241379
404.457020,0.269663
404.800720,0.271739
405.144380,0.303030
405.488000,0.268817
405.831580,0.278351
406.175120,0.234043
406.518620,0.290000
406.862080,0.309278
407.205500,0.250000
407.548880,0.295918
407.892220,0.284314
408.235520,0.212766
408.578780,0.285714
408.922000,0.240385
409.265180,0.303030
409.608320,0.242424
409.951420,0.350515
410.294480,0.303922
410.637500,0.315217
410.980480,0.323529
411.323420,0.306122
411.666320,0.321101
412.009180,0.345455
412.352000,0.257426
412.694780,0.284404
413.037520,0.220183
413.380220,0.270270
413.722880,0.330357
414.065500,0.279279
414.408080,0.256637
414.750620,0.292035
415.093120,0.289256
415.435580,0.302521
415.778000,0.318182
416.120380,0.302521
416.462720,0.301587
416.805020,0.330827
417.147280,0.305970
417.489500,0.314286
417.831680,0.280822
418.173820,0.312057
418.515920,0.307692
418.857980,0.297468
419.200000,0.314103
419.541980,0.337278
419.883920,0.292135
420.225820,0.329480
420.567680,0.279330
420.909500,0.333333
421.251280,0.322917
421.593020,0.316327
421.934720,0.272727
422.276380,0.312821
422.618000,0.348039
422.959580,0.338235
423.301120,0.347032
423.642620,0.313043
423.984080,0.316279
424.325500,0.340807
424.666880,0.310345
425.008220,0.302521
425.349520,0.309322
425.690780,0.296154
426.032000,0.317647
426.373180,0.344398
426.714320,0.328125
427.055420,0.305019
427.396480,0.325843
427.737500,0.335968
428.078480,0.320158
428.419420,0.325301
428.760320,0.321839
429.101180,0.326772
429.442000,0.360153
429.782780,0.342308
430.123520,0.341176
430.464220,0.313653
430.804880,0.363985
431.145500,0.316364
431.486080,0.325843
431.826620,0.337209
432.167120,0.341912
432.507580,0.344203
432.848000,0.348921
433.188380,0.342960
433.528720,0.350943
433.869020,0.360714
434.209280,0.340351
434.549500,0.341463
434.889680,0.340067
435.229820,0.351536
435.569920,0.339100
435.909980,0.326861
436.250000,0.345763
436.589980,0.331269
436.929920,0.361905
437.269820,0.326019
437.609680,0.363905
437.949500,0.355422
438.289280,0.368272
438.629020,0.372093
438.968720,0.357558
439.308380,0.355014
439.648000,0.369863
439.987580,0.341270
440.327120,0.362667
440.666620,0.366234
441.006080,0.352941
441.345500,0.368550
441.684880,0.377990
442.024220,0.352357
442.363520,0.366667
442.702780,0.356818
443.042000,0.376652
443.381180,0.372845
443.720320,0.380130
444.059420,0.357143
444.398480,0.351464
444.737500,0.379098
445.076480,0.369048
445.415420,0.377246
445.754320,0.365904
446.093180,0.343119
446.432000,0.379699
446.770780,0.387097
447.109520,0.391544
447.448220,0.366726
447.786880,0.363148
448.125500,0.386207
448.464080,0.383929
448.802620,0.377660
449.141120,0.377163
449.479580,0.379371
449.818000,0.392427
450.156380,0.392977
450.494720,0.395041
450.833020,0.398601
451.171280,0.376712
451.509500,0.405923
451.847680,0.397976
452.185820,0.390706
452.523920,0.407216
452.861980,0.384486
453.200000,0.370432
453.537980,0.388235
453.875920,0.400000
454.213820,0.373288
454.551680,0.384106
454.889500,0.391231
455.227280,0.387900
455.565020,0.400335
455.902720,0.409318
456.240380,0.384359
456.578000,0.404181
456.915580,0.407599
457.253120,0.402961
457.590620,0.413793
457.928080,0.404040
458.265500,0.410473
458.602880,0.405844
458.940220,0.411168
459.277520,0.417600
459.614780,0.418985
459.952000,0.397516
460.289180,0.406646
460.626320,0.423622
460.963420,0.408724
461.300480,0.426606
461.637500,0.423729
461.974480,0.441896
462.311420,0.424739
462.648320,0.418741
462.985180,0.414634
463.322000,0.410714
463.658780,0.414365
463.995520,0.407153
464.332220,0.423823
464.668880,0.419355
465.005500,0.418231
465.342080,0.425096
465.678620,0.429274
466.015120,0.430789
466.351580,0.418458
466.688000,0.425091
467.024380,0.436209
467.360720,0.425000
467.697020,0.435080
468.033280,0.427778
468.369500,0.431567
468.705680,0.440812
469.041820,0.428125
469.377920,0.438178
469.713980,0.437693
470.050000,0.426087
470.385980,0.431507
470.721920,0.428991
471.057820,0.436647
471.393680,0.422825
471.729500,0.426321
472.065280,0.434705
472.401020,0.442376
472.736720,0.436300
473.072380,0.433573
473.408000,0.435161
473.743580,0.435986
474.079120,0.432386
474.414620,0.432570
474.750080,0.432872
475.085500,0.440789
475.420880,0.440466
475.756220,0.437449
476.091520,0.446718
476.426780,0.442557
476.762000,0.439260
477.097180,0.440800
477.432320,0.442649
477.767420,0.445261
478.102480,0.428346
478.437500,0.456486
478.772480,0.441292
479.107420,0.439382
479.442320,0.453237
479.777180,0.459029
480.112000,0.432203
480.446780,0.445830
480.781520,0.442029
481.116220,0.452708
481.450880,0.446526
481.785500,0.449367
482.120080,0.451411
482.454620,0.444444
482.789120,0.452229
483.123580,0.452492
483.458000,0.445411
483.792380,0.454473
484.126720,0.451737
484.461020,0.439500
484.795280,0.451041
485.129500,0.451286
485.463680,0.446512
485.797820,0.468896
486.131920,0.455241
486.465980,0.450193
486.800000,0.459542
487.133980,0.452417
487.467920,0.456006
487.801820,0.450801
488.135680,0.459439
488.469500,0.453101
488.803280,0.450966
489.137020,0.447619
489.470720,0.453264
489.804380,0.460282
490.138000,0.471068
490.471580,0.472366
490.805120,0.461044
491.138620,0.455579
491.472080,0.456537
491.805500,0.444909
492.138880,0.461432
492.472220,0.458824
492.805520,0.468575
493.138780,0.465196
493.472000,0.458863
493.805180,0.472715
494.138320,0.459640
494.471420,0.460937
494.804480,0.462484
495.137500,0.451861
495.470480,0.463352
495.803420,0.469773
496.136320,0.462406
496.469180,0.458564
496.802000,0.455379
497.134780,0.463311
497.467520,0.475229
497.800220,0.454599
498.132880,0.465608
498.465500,0.460603
498.798080,0.461758
499.130620,0.460415
499.463120,0.468838
499.795580,0.458746
500.128000,0.460490
500.460380,0.460172
500.792720,0.466066
501.125020,0.456122
501.457280,0.460574
501.789500,0.465909
502.121680,0.461897
502.453820,0.469148
502.785920,0.464232
503.117980,0.466143
503.450000,0.468609
503.781980,0.453413
504.113920,0.455666
504.445820,0.467185
504.777680,0.455529
505.109500,0.462500
505.441280,0.460803
505.773020,0.461249
506.104720,0.463024
506.436380,0.459063
506.768000,0.462114
507.099580,0.447597
507.431120,0.463700
507.762620,0.471805
508.094080,0.454877
508.425500,0.464519
508.756880,0.462277
509.088220,0.459982
509.419520,0.462756
509.750780,0.455014
510.082000,0.454291
510.413180,0.456472
510.744320,0.464795
511.075420,0.467003
511.406480,0.464974
511.737500,0.457870
512.068480,0.466635
512.399420,0.456808
512.730320,0.447575
513.061180,0.460038
513.392000,0.462376
513.722780,0.463977
514.053520,0.453282
514.384220,0.457659
514.714880,0.457157
515.045500,0.454023
515.376080,0.467312
515.706620,0.454457
516.037120,0.454412
516.367580,0.454904
516.698000,0.450000
517.028380,0.451341
517.358720,0.455802
517.689020,0.456973
518.019280,0.455595
518.349500,0.458186
518.679680,0.457345
519.009820,0.448887
519.339920,0.447395
519.669980,0.452034
520.000000,0.455425
520.329980,0.458787
520.659920,0.450920
520.989820,0.450464
521.319680,0.460391
521.649500,0.448329
521.979280,0.459812
522.309020,0.449170
522.638720,0.447005
522.968380,0.449845
523.298000,0.452505
523.627580,0.443870
523.957120,0.456623
524.286620,0.455967
524.616080,0.448811
524.945500,0.447545
525.274880,0.458697
525.604220,0.454451
525.933520,0.448113
526.262780,0.442980
526.592000,0.443430
526.921180,0.448959
527.250320,0.439878
527.579420,0.443658
527.908480,0.450025
528.237500,0.448361
528.566480,0.459581
528.895420,0.442583
529.224320,0.443784
529.553180,0.440964
529.882000,0.450608
530.210780,0.435811
530.539520,0.442953
530.868220,0.447104
531.196880,0.444338
531.525500,0.449879
531.854080,0.437617
532.182620,0.435778
532.511120,0.437587
532.839580,0.439655
533.168000,0.437557
533.496380,0.439726
533.824720,0.439210
534.153020,0.433348
534.481280,0.435242
534.809500,0.452067
535.137680,0.433594
535.465820,0.436856
535.793920,0.429780
536.121980,0.436425
536.450000,0.445666
536.777980,0.436950
537.105920,0.440847
537.433820,0.443944
537.761680,0.446531
538.089500,0.439903
538.417280,0.440509
538.745020,0.435420
539.072720,0.432253
539.400380,0.436286
539.728000,0.435946
540.055580,0.434082
540.383120,0.431124
540.710620,0.435640
541.038080,0.432313
541.365500,0.428309
541.692880,0.434956
542.020220,0.425693
542.347520,0.427495
542.674780,0.428723
543.002000,0.426872
543.329180,0.432480
543.656320,0.432138
543.983420,0.415385
544.310480,0.422698
544.637500,0.431252
544.964480,0.422948
545.291420,0.421735
545.618320,0.420651
545.945180,0.424522
546.272000,0.420052
546.598780,0.425762
546.925520,0.424332
547.252220,0.424563
547.578880,0.429130
547.905500,0.418954
548.232080,0.417479
548.558620,0.422063
548.885120,0.421328
549.211580,0.418194
549.538000,0.418936
549.864380,0.410611
550.190720,0.417178
550.517020,0.418188
550.843280,0.415635
551.169500,0.410623
551.495680,0.412286
551.821820,0.418027
552.147920,0.408263
552.473980,0.408956
552.800000,0.404840
553.125980,0.411919
553.451920,0.410750
553.777820,0.413058
554.103680,0.401416
554.429500,0.401071
554.755280,0.408211
555.081020,0.401404
555.406720,0.405689
555.732380,0.400542
556.058000,0.399525
556.383580,0.399521
556.709120,0.402136
557.034620,0.399242
557.360080,0.397927
557.685500,0.392808
558.010880,0.392721
558.336220,0.394376
558.661520,0.401985
558.986780,0.404323
559.312000,0.384615
559.637180,0.391382
559.962320,0.393022
560.287420,0.395628
560.612480,0.390384
560.937500,0.390969
561.262480,0.390396
561.587420,0.387740
561.912320,0.385041
562.237180,0.382309
562.562000,0.390198
562.886780,0.383129
563.211520,0.378167
563.536220,0.376252
563.860880,0.390041
564.185500,0.379362
564.510080,0.380737
564.834620,0.379978
565.159120,0.376316
565.483580,0.376283
565.808000,0.372304
566.132380,0.377098
566.456720,0.388889
566.781020,0.376219
567.105280,0.372401
567.429500,0.377466
567.753680,0.371692
568.077820,0.368380
568.401920,0.370894
568.725980,0.376091
569.050000,0.368061
569.373980,0.372668
569.697920,0.374668
570.021820,0.367416
570.345680,0.363567
570.669500,0.367035
570.993280,0.364710
571.317020,0.358787
571.640720,0.366062
571.964380,0.365627
572.288000,0.364985
572.611580,0.362037
572.935120,0.360269
573.258620,0.362752
573.582080,0.356185
573.905500,0.355175
574.228880,0.360431
574.552220,0.355808
574.875520,0.352941
575.198780,0.357065
575.522000,0.350440
575.845180,0.357092
576.168320,0.351419
576.491420,0.360465
576.814480,0.351537
577.137500,0.349206
577.460480,0.353026
577.783420,0.350482
578.106320,0.353276
578.429180,0.354189
578.752000,0.341091
579.074780,0.344235
579.397520,0.344416
579.720220,0.344916
580.042880,0.344235
580.365500,0.345136
580.688080,0.348372
581.010620,0.344921
581.333120,0.348029
581.655580,0.344655
581.978000,0.342202
582.300380,0.338202
582.622720,0.345419
582.945020,0.345579
583.267280,0.336047
583.589500,0.338042
583.911680,0.335662
584.233820,0.333333
584.555920,0.335014
584.877980,0.334485
585.200000,0.335175
585.521980,0.333024
585.843920,0.332825
586.165820,0.332724
586.487680,0.333434
586.809500,0.329433
587.131280,0.328601
587.453020,0.333036
587.774720,0.325251
588.096380,0.331680
588.418000,0.328944
588.739580,0.328255
589.061120,0.328925
589.382620,0.324928
589.704080,0.320617
590.025500,0.323345
590.346880,0.325745
590.668220,0.327919
590.989520,0.317804
591.310780,0.322563
591.632000,0.316667
591.953180,0.319125
592.274320,0.314496
592.595420,0.314655
592.916480,0.319207
593.237500,0.318243
593.558480,0.314232
593.879420,0.317777
594.200320,0.317975
594.521180,0.317928
594.842000,0.318109
595.162780,0.311165
595.483520,0.309226
595.804220,0.309882
596.124880,0.307754
596.445500,0.309405
596.766080,0.312718
597.086620,0.307059
597.407120,0.306214
597.727580,0.307876
598.048000,0.307326
598.368380,0.301157
598.688720,0.303277
599.009020,0.299098
599.329280,0.296434
599.649500,0.296355
599.969680,0.296741
600.289820,0.297276
600.609920,0.298958
600.929980,0.296098
601.250000,0.292162
601.569980,0.295436
601.889920,0.294574
602.209820,0.290314
602.529680,0.297995
602.849500,0.289143
603.169280,0.292643
603.489020,0.289510
603.808720,0.285793
604.128380,0.293046
604.448000,0.288674
604.767580,0.284637
605.087120,0.282548
605.406620,0.285754
605.726080,0.285999
606.045500,0.277793
606.364880,0.279558
606.684220,0.278412
607.003520,0.282397
607.322780,0.278283
607.642000,0.280586
607.961180,0.277248
608.280320,0.275232
608.599420,0.269699
608.918480,0.273021
609.237500,0.273768
609.556480,0.279669
609.875420,0.273479
610.194320,0.269560
610.513180,0.271678
610.832000,0.268314
611.150780,0.273355
611.469520,0.266667
611.788220,0.269347
612.106880,0.267189
612.425500,0.264921
612.744080,0.269621
613.062620,0.260550
613.381120,0.261121
613.699580,0.266401
614.018000,0.261364
614.336380,0.264651
614.654720,0.262946
614.973020,0.260413
615.291280,0.259684
615.609500,0.258637
615.927680,0.258962
616.245820,0.256339
616.563920,0.253652
616.881980,0.259432
617.200000,0.251633
617.517980,0.253889
617.835920,0.255359
618.153820,0.250233
618.471680,0.247132
618.789500,0.245752
619.107280,0.250078
619.425020,0.249921
619.742720,0.250157
620.060380,0.247885
620.378000,0.245752
620.695580,0.241699
621.013120,0.240630
621.330620,0.248196
621.648080,0.240379
621.965500,0.245295
622.282880,0.243064
622.600220,0.241314
622.917520,0.241021
623.234780,0.242366
623.552000,0.239975
623.869180,0.241097
624.186320,0.241006
624.503420,0.242633
624.820480,0.242224
625.137500,0.239659
625.454480,0.231947
625.771420,0.235813
626.088320,0.235498
626.405180,0.239266
626.722000,0.236512
627.038780,0.236529
627.355520,0.230625
627.672220,0.234526
627.988880,0.229549
628.305500,0.229043
628.622080,0.232652
628.938620,0.236086
629.255120,0.231798
629.571580,0.225253
629.888000,0.227370
630.204380,0.231666
630.520720,0.221207
630.837020,0.224484
631.153280,0.224520
631.469500,0.223469
631.785680,0.220615
632.101820,0.218938
632.417920,0.220268
632.733980,0.219088
633.050000,0.218617
633.365980,0.221103
633.681920,0.219570
633.997820,0.220861
634.313680,0.217340
634.629500,0.221469
634.945280,0.214370
635.261020,0.216613
635.576720,0.220200
635.892380,0.219576
636.208000,0.216153
636.523580,0.215434
636.839120,0.211349
637.154620,0.213043
637.470080,0.210617
637.785500,0.214830
638.100880,0.208804
638.416220,0.209088
638.731520,0.205731
639.046780,0.210020
639.362000,0.206709
639.677180,0.207596
639.992320,0.206090
640.307420,0.207081
640.622480,0.204425
640.937500,0.204993
641.252480,0.203295
641.567420,0.204888
641.882320,0.201281
642.197180,0.205222
642.512000,0.201791
642.826780,0.204993
643.141520,0.204501
643.456220,0.199779
643.770880,0.199834
644.085500,0.200391
644.400080,0.205899
644.714620,0.200390
645.029120,0.193894
645.343580,0.195283
645.658000,0.197891
645.972380,0.198136
646.286720,0.193786
646.601020,0.198173
646.915280,0.194955
647.229500,0.194780
647.543680,0.193869
647.857820,0.194330
648.171920,0.193706
648.485980,0.194026
648.800000,0.192615
649.113980,0.192905
649.427920,0.190846
649.741820,0.186040
650.055680,0.190620
650.369500,0.190583
650.683280,0.187847
650.997020,0.186744
651.310720,0.186296
651.624380,0.187363
651.938000,0.188643
652.251580,0.184247
652.565120,0.185299
652.878620,0.182151
653.192080,0.181180
653.505500,0.181206
653.818880,0.183679
654.132220,0.182569
654.445520,0.184061
654.758780,0.182720
655.072000,0.179370
655.385180,0.179743
655.698320,0.181195
656.011420,0.176555
656.324480,0.180122
656.637500,0.180475
656.950480,0.178215
657.263420,0.176766
657.576320,0.174918
657.889180,0.174580
658.202000,0.176630
658.514780,0.178625
658.827520,0.174670
659.140220,0.172011
659.452880,0.175174
659.765500,0.172185
660.078080,0.167921
660.390620,0.171097
660.703120,0.172930
661.015580,0.172393
661.328000,0.171599
661.640380,0.167443
661.952720,0.167860
662.265020,0.168872
662.577280,0.173664
662.889500,0.168716
663.201680,0.171347
663.513820,0.166291
663.825920,0.166507
664.137980,0.169360
664.450000,0.161765
664.761980,0.163993
665.073920,0.166829
665.385820,0.166885
665.697680,0.162314
666.009500,0.164948
666.321280,0.164679
666.633020,0.166556
666.944720,0.163128
667.256380,0.160162
667.568000,0.158288
667.879580,0.161905
668.191120,0.163805
668.502620,0.160561
668.814080,0.158596
669.125500,0.157030
669.436880,0.162172
669.748220,0.155763
670.059520,0.160014
670.370780,0.155184
670.682000,0.155044
670.993180,0.158915
671.304320,0.153657
671.615420,0.153409
671.926480,0.154365
672.237500,0.149696
672.548480,0.158268
672.859420,0.160829
673.170320,0.156692
673.481180,0.155322
673.792000,0.151100
674.102780,0.152244
674.413520,0.150565
674.724220,0.149183
675.034880,0.152182
675.345500,0.154267
675.656080,0.153539
675.966620,0.149509
676.277120,0.152325
676.587580,0.149485
676.898000,0.148190
677.208380,0.150092
677.518720,0.144420
677.829020,0.154841
678.139280,0.149370
678.449500,0.151133
678.759680,0.150993
679.069820,0.147212
679.379920,0.152395
679.689980,0.147791
680.000000,0.144673
680.309980,0.150334
680.619920,0.145021
680.929820,0.144084
681.239680,0.150295
681.549500,0.147037
681.859280,0.144884
682.169020,0.148079
682.478720,0.149215
682.788380,0.141750
683.098000,0.144353
683.407580,0.142214
683.717120,0.145646
684.026620,0.142696
684.336080,0.142099
684.645500,0.140666
684.954880,0.141292
685.264220,0.143450
685.573520,0.144271
685.882780,0.140775
686.192000,0.140331
686.501180,0.140371
686.810320,0.142198
687.119420,0.136450
687.428480,0.140524
687.737500,0.142748
688.046480,0.140721
688.355420,0.142965
688.664320,0.137720
688.973180,0.143951
689.282000,0.143904
689.590780,0.139187
689.899520,0.137866
690.208220,0.142966
690.516880,0.142039
690.825500,0.143396
691.134080,0.135915
691.442620,0.135671
691.751120,0.142207
692.059580,0.140619
692.368000,0.132904
692.676380,0.134733
692.984720,0.136260
693.293020,0.137918
693.601280,0.136589
693.909500,0.129398
694.217680,0.135187
694.525820,0.140899
694.833920,0.139260
695.141980,0.138835
695.450000,0.138168
695.757980,0.137892
696.065920,0.141748
696.373820,0.135489
696.681680,0.136555
696.989500,0.134311
697.297280,0.134189
697.605020,0.138492
697.912720,0.134128
698.220380,0.130264
698.528000,0.136472
698.835580,0.133544
699.143120,0.132502
699.450620,0.134845
699.758080,0.136863
700.065500,0.130886
700.372880,0.133200
700.680220,0.132429
700.987520,0.132937
701.294780,0.138686
701.602000,0.135895
701.909180,0.134340
702.216320,0.129449
702.523420,0.131413
702.830480,0.130693
703.137500,0.128215
703.444480,0.135700
703.751420,0.129783
704.058320,0.129798
704.365180,0.131703
704.672000,0.134257
704.978780,0.129926
705.285520,0.128326
705.592220,0.128235
705.898880,0.129236
706.205500,0.129499
706.512080,0.132701
706.818620,0.132353
707.125120,0.130769
707.431580,0.128957
707.738000,0.126172
708.044380,0.127750
708.350720,0.131066
708.657020,0.131301
708.963280,0.126941
709.269500,0.130724
709.575680,0.132417
709.881820,0.127358
710.187920,0.130350
710.493980,0.128394
710.800000,0.133105
711.105980,0.126130
711.411920,0.124162
711.717820,0.128655
712.023680,0.128644
712.329500,0.126972
712.635280,0.130233
712.941020,0.126015
713.246720,0.126877
713.552380,0.130298
713.858000,0.130075
714.163580,0.129045
714.469120,0.121923
714.774620,0.127912
715.080080,0.125245
715.385500,0.126299
715.690880,0.126627
715.996220,0.131933
716.301520,0.129644
716.606780,0.124607
716.912000,0.127625
717.217180,0.129689
717.522320,0.129225
717.827420,0.131814
718.132480,0.128864
718.437500,0.127191
718.742480,0.128629
719.047420,0.128236
719.352320,0.128684
719.657180,0.125511
719.962000,0.128619
720.266780,0.129622
720.571520,0.121375
720.876220,0.127250
721.180880,0.128763
721.485500,0.126201
721.790080,0.124416
722.094620,0.126072
722.399120,0.130978
722.703580,0.126018
723.008000,0.131091
723.312380,0.126560
723.616720,0.126222
723.921020,0.124296
724.225280,0.125218
724.529500,0.126532
724.833680,0.131228
725.137820,0.129956
725.441920,0.127508
725.745980,0.127069
726.050000,0.127650
726.353980,0.127986
726.657920,0.124606
726.961820,0.131963
727.265680,0.128063
727.569500,0.125686
727.873280,0.121940
728.177020,0.129894
728.480720,0.128241
728.784380,0.131517
729.088000,0.122939
729.391580,0.124112
729.695120,0.129079
729.998620,0.130497
730.302080,0.129745
730.605500,0.123241
730.908880,0.130328
731.212220,0.127816
731.515520,0.123842
731.818780,0.120874
732.122000,0.127461
732.425180,0.128142
732.728320,0.129896
733.031420,0.130326
733.334480,0.127551
733.637500,0.127520
733.940480,0.124360
734.243420,0.128440
734.546320,0.128631
734.849180,0.130165
735.152000,0.125519
735.454780,0.124483
735.757520,0.123815
736.060220,0.129015
736.362880,0.138130
736.665500,0.129504
736.968080,0.127888
737.270620,0.132281
737.573120,0.127729
737.875580,0.131941
738.178000,0.131737
738.480380,0.127568
738.782720,0.126499
739.085020,0.123899
739.387280,0.127494
739.689500,0.126840
739.991680,0.131387
740.293820,0.133223
740.595920,0.128548
740.897980,0.130999
741.200000,0.132922
741.501980,0.133524
741.803920,0.125000
742.105820,0.132544
742.407680,0.132207
742.709500,0.132386
743.011280,0.127198
743.313020,0.129855
743.614720,0.129425
743.916380,0.127907
744.218000,0.136635
744.519580,0.131643
744.821120,0.132335
745.122620,0.131216
745.424080,0.126803
745.725500,0.132167
746.026880,0.131773
746.328220,0.131936
746.629520,0.132450
746.930780,0.135417
747.232000,0.131821
747.533180,0.128127
747.834320,0.134510
748.135420,0.137352
748.436480,0.132252
748.737500,0.129092
749.038480,0.136225
749.339420,0.133167
749.640320,0.131364
749.941180,0.136165
750.242000,0.130653
750.542780,0.132134
750.843520,0.134529
751.144220,0.132051
751.444880,0.138871
751.745500,0.135714
752.046080,0.136626
752.346620,0.134665
752.647120,0.142391
752.947580,0.141009
753.248000,0.132818
753.548380,0.137931
753.848720,0.127495
754.149020,0.129594
754.449280,0.139856
754.749500,0.132050
755.049680,0.134667
755.349820,0.131421
755.649920,0.138136
755.949980,0.133378
756.250000,0.141354
756.549980,0.133333
756.849920,0.138001
757.149820,0.137725
757.449680,0.139934
757.749500,0.137696
758.049280,0.134471
758.349020,0.136996
758.648720,0.142857
758.948380,0.141581
759.248000,0.133423
759.547580,0.139879
759.847120,0.138525
760.146620,0.133965
760.446080,0.139113
760.745500,0.132867
761.044880,0.139915
761.344220,0.139701
761.643520,0.144068
761.942780,0.143457
762.242000,0.146393
762.541180,0.139437
762.840320,0.144663
763.139420,0.133615
763.438480,0.134655
763.737500,0.145417
764.036480,0.141859
764.335420,0.140438
764.634320,0.142065
764.933180,0.139726
765.232000,0.139486
765.530780,0.141754
765.829520,0.147552
766.128220,0.143354
766.426880,0.142857
766.725500,0.151474
767.024080,0.144033
767.322620,0.142462
767.621120,0.140244
767.919580,0.140614
768.218000,0.142271
768.516380,0.144692
768.814720,0.141289
769.113020,0.148174
769.411280,0.149171
769.709500,0.146143
770.007680,0.141104
770.305820,0.150101
770.603920,0.145553
770.901980,0.148224
771.200000,0.150136
771.497980,0.154826
771.795920,0.146488
772.093820,0.147059
772.391680,0.150956
772.689500,0.146622
772.987280,0.138047
773.285020,0.148325
773.582720,0.142568
773.880380,0.146191
774.178000,0.147921
774.475580,0.152713
774.773120,0.145248
775.070620,0.154158
775.368080,0.154977
775.665500,0.147750
775.962880,0.152769
776.260220,0.152759
776.557520,0.152101
776.854780,0.154158
777.152000,0.147215
777.449180,0.151719
777.746320,0.148522
778.043420,0.157572
778.340480,0.156969
778.637500,0.153482
778.934480,0.153329
779.231420,0.151967
779.528320,0.151637
779.825180,0.149539
780.122000,0.156042
780.418780,0.156635
780.715520,0.159624
781.012220,0.162329
781.308880,0.156187
781.605500,0.157534
781.902080,0.158111
782.198620,0.157211
782.495120,0.157064
782.791580,0.161623
783.088000,0.157350
783.384380,0.162311
783.680720,0.159371
783.977020,0.156228
784.273280,0.158042
784.569500,0.165618
784.865680,0.162031
785.161820,0.162500
785.457920,0.160083
785.753980,0.164689
786.050000,0.155387
786.345980,0.161111
786.641920,0.160999
786.937820,0.164530
787.233680,0.160752
787.529500,0.158114
787.825280,0.162181
788.121020,0.159348
788.416720,0.160903
788.712380,0.165021
789.008000,0.165722
789.303580,0.163251
789.599120,0.164364
789.894620,0.163899
790.190080,0.160986
790.485500,0.167747
790.780880,0.162724
791.076220,0.163059
791.371520,0.171387
791.666780,0.171636
791.962000,0.161646
792.257180,0.165447
792.552320,0.166062
792.847420,0.165939
793.142480,0.169231
793.437500,0.167873
793.732480,0.166057
794.027420,0.167656
794.322320,0.165548
794.617180,0.167905
794.912000,0.161961
795.206780,0.170022
795.501520,0.176426
795.796220,0.172593
796.090880,0.169555
796.385500,0.166417
796.680080,0.169783
796.974620,0.159431
797.269120,0.168055
797.563580,0.172519
797.858000,0.174639
798.152380,0.167053
798.446720,0.173846
798.741020,0.173344
799.035280,0.176242
799.329500,0.183218
799.623680,0.172093
