399.985280,0.283784
400.329500,0.270270
400.673680,0.316456
401.017820,0.338235
401.361920,0.287879
401.705980,0.317073
402.050000,0.285714
402.393980,0.411765
402.737920,0.370787
403.081820,0.329897
403.425680,0.337209
403.769500,0.250000
404.113280,0.287356
404.457020,0.325843
404.800720,0.326087
405.144380,0.363636
405.488000,0.279570
405.831580,0.309278
406.175120,0.340426
406.518620,0.300000
406.862080,0.340206
407.205500,0.302083
407.548880,0.316327
407.892220,0.284314
408.235520,0.372340
408.578780,0.342857
408.922000,0.326923
409.265180,0.383838
409.608320,0.313131
409.951420,0.371134
410.294480,0.372549
410.637500,0.315217
410.980480,0.382353
411.323420,0.346939
411.666320,0.348624
412.009180,0.372727
412.352000,0.306931
412.694780,0.348624
413.037520,0.321101
413.380220,0.378378
413.722880,0.357143
414.065500,0.378378
414.408080,0.398230
414.750620,0.318584
415.093120,0.355372
415.435580,0.336134
415.778000,0.371212
416.120380,0.386555
416.462720,0.388889
416.805020,0.413534
417.147280,0.328358
417.489500,0.378571
417.831680,0.349315
418.173820,0.375887
418.515920,0.412587
418.857980,0.398734
419.200000,0.352564
419.541980,0.402367
419.883920,0.376404
420.225820,0.393064
420.567680,0.374302
420.909500,0.377049
421.251280,0.421875
421.593020,0.413265
421.934720,0.378788
422.276380,0.379487
422.618000,0.421569
422.959580,0.387255
423.301120,0.369863
423.642620,0.373913
423.984080,0.367442
424.325500,0.372197
424.666880,0.383621
425.008220,0.369748
425.349520,0.364407
425.690780,0.376923
426.032000,0.364706
426.373180,0.377593
426.714320,0.378906
427.055420,0.393822
427.396480,0.393258
427.737500,0.371542
428.078480,0.379447
428.419420,0.377510
428.760320,0.356322
429.101180,0.413386
429.442000,0.409962
429.782780,0.407692
430.123520,0.407843
430.464220,0.394834
430.804880,0.417625
431.145500,0.378182
431.486080,0.393258
431.826620,0.403101
432.167120,0.400735
432.507580,0.423913
432.848000,0.374101
433.188380,0.404332
433.528720,0.415094
433.869020,0.396429
434.209280,0.414035
434.549500,0.407666
434.889680,0.414141
435.229820,0.416382
435.569920,0.401384
435.909980,0.398058
436.250000,0.389831
436.589980,0.362229
436.929920,0.453968
437.269820,0.404389
437.609680,0.420118
437.949500,0.424699
438.289280,0.393768
438.629020,0.418605
438.968720,0.436047
439.308380,0.392954
439.648000,0.430137
439.987580,0.420635
440.327120,0.418667
440.666620,0.412987
441.006080,0.427110
441.345500,0.432432
441.684880,0.423445
442.024220,0.424318
442.363520,0.407143
442.702780,0.420455
443.042000,0.407489
443.381180,0.431034
443.720320,0.442765
444.059420,0.401261
444.398480,0.437238
444.737500,0.430328
445.076480,0.406746
445.415420,0.417166
445.754320,0.428274
446.093180,0.414679
446.432000,0.449248
446.770780,0.432638
447.109520,0.426471
447.448220,0.423971
447.786880,0.432916
448.125500,0.413793
448.464080,0.423214
448.802620,0.427305
449.141120,0.418685
449.479580,0.431818
449.818000,0.452668
450.156380,0.448161
450.494720,0.442975
450.833020,0.433566
451.171280,0.417808
451.509500,0.435540
451.847680,0.436762
452.185820,0.430293
452.523920,0.438144
452.861980,0.436762
453.200000,0.431894
453.537980,0.431933
453.875920,0.447059
454.213820,0.441781
454.551680,0.428808
454.889500,0.451939
455.227280,0.448399
455.565020,0.452261
455.902720,0.437604
456.240380,0.424293
456.578000,0.449477
456.915580,0.443869
457.253120,0.430921
457.590620,0.430213
457.928080,0.446128
458.265500,0.461149
458.602880,0.435065
458.940220,0.434856
459.277520,0.459200
459.614780,0.469722
459.952000,0.425466
460.289180,0.452532
460.626320,0.439370
460.963420,0.442649
461.300480,0.451070
461.637500,0.436055
461.974480,0.454128
462.311420,0.453055
462.648320,0.426061
462.985180,0.440459
463.322000,0.449405
463.658780,0.451657
463.995520,0.434663
464.332220,0.439058
464.668880,0.439516
465.005500,0.454424
465.342080,0.449424
465.678620,0.442804
466.015120,0.445019
466.351580,0.453856
466.688000,0.453106
467.024380,0.448360
467.360720,0.454545
467.697020,0.469248
468.033280,0.461111
468.369500,0.450331
468.705680,0.448703
469.041820,0.442708
469.377920,0.441432
469.713980,0.453141
470.050000,0.448309
470.385980,0.449119
470.721920,0.439765
471.057820,0.473684
471.393680,0.445276
471.729500,0.455978
472.065280,0.445438
472.401020,0.448582
472.736720,0.458988
473.072380,0.446140
473.408000,0.445605
473.743580,0.440311
474.079120,0.458226
474.414620,0.456319
474.750080,0.436941
475.085500,0.437500
475.420880,0.453789
475.756220,0.444808
476.091520,0.447570
476.426780,0.438511
476.762000,0.440869
477.097180,0.444800
477.432320,0.446688
477.767420,0.433824
478.102480,0.442520
478.437500,0.449918
478.772480,0.437352
479.107420,0.442636
479.442320,0.447642
479.777180,0.446301
480.112000,0.424499
480.446780,0.430242
480.781520,0.447665
481.116220,0.454325
481.450880,0.427010
481.785500,0.462816
482.120080,0.445141
482.454620,0.449883
482.789120,0.442675
483.123580,0.440031
483.458000,0.440665
483.792380,0.451278
484.126720,0.427799
484.461020,0.446526
484.795280,0.445644
485.129500,0.441154
485.463680,0.448062
485.797820,0.458787
486.131920,0.428462
486.465980,0.434749
486.800000,0.458779
487.133980,0.431269
487.467920,0.448355
487.801820,0.445461
488.135680,0.442760
488.469500,0.437216
488.803280,0.442051
489.137020,0.442491
489.470720,0.429525
489.804380,0.444692
490.138000,0.445846
490.471580,0.459838
490.805120,0.431022
491.138620,0.437811
491.472080,0.439576
491.805500,0.451185
492.138880,0.441279
492.472220,0.443599
492.805520,0.444832
493.138780,0.455548
493.472000,0.435452
493.805180,0.442019
494.138320,0.442962
494.471420,0.441406
494.804480,0.437904
495.137500,0.439666
495.470480,0.439771
495.803420,0.439547
496.136320,0.439223
496.469180,0.436464
496.802000,0.433374
497.134780,0.446938
497.467520,0.444037
497.800220,0.432193
498.132880,0.436214
498.465500,0.432213
498.798080,0.427511
499.130620,0.435710
499.463120,0.434026
499.795580,0.423542
500.128000,0.429428
500.460380,0.434876
500.792720,0.426829
501.125020,0.427220
501.457280,0.433420
501.789500,0.431302
502.121680,0.432348
502.453820,0.426313
502.785920,0.423712
503.117980,0.434249
503.450000,0.433953
503.781980,0.426009
504.113920,0.425320
504.445820,0.428780
504.777680,0.424471
505.109500,0.425481
505.441280,0.429254
505.773020,0.426961
506.104720,0.429110
506.436380,0.423095
506.768000,0.426567
507.099580,0.415561
507.431120,0.429040
507.762620,0.425282
508.094080,0.413400
508.425500,0.426237
508.756880,0.423868
509.088220,0.422263
509.419520,0.418529
509.750780,0.413777
510.082000,0.414179
510.413180,0.405804
510.744320,0.421997
511.075420,0.420715
511.406480,0.421721
511.737500,0.404167
512.068480,0.414944
512.399420,0.414554
512.730320,0.400000
513.061180,0.412940
513.392000,0.414576
513.722780,0.407781
514.053520,0.413991
514.384220,0.405328
514.714880,0.406415
515.045500,0.405651
515.376080,0.406295
515.706620,0.412080
516.037120,0.403922
516.367580,0.398719
516.698000,0.405882
517.028380,0.408640
517.358720,0.399506
517.689020,0.405539
518.019280,0.408931
518.349500,0.409529
518.679680,0.395760
519.009820,0.396255
519.339920,0.407315
519.669980,0.395781
520.000000,0.399898
520.329980,0.406947
520.659920,0.400818
520.989820,0.398349
521.319680,0.403807
521.649500,0.396401
521.979280,0.403445
522.309020,0.395228
522.638720,0.394265
522.968380,0.402275
523.298000,0.387787
523.627580,0.392137
523.957120,0.385455
524.286620,0.389265
524.616080,0.395036
524.945500,0.391731
525.274880,0.393022
525.604220,0.385093
525.933520,0.388889
526.262780,0.379625
526.592000,0.385084
526.921180,0.394109
527.250320,0.390157
527.579420,0.391612
527.908480,0.378139
528.237500,0.387786
528.566480,0.380739
528.895420,0.386890
529.224320,0.380386
529.553180,0.381205
529.882000,0.389294
530.210780,0.377896
530.539520,0.374880
530.868220,0.379607
531.196880,0.378404
531.525500,0.377724
531.854080,0.375704
532.182620,0.373190
532.511120,0.378190
532.839580,0.377495
533.168000,0.369644
533.496380,0.381735
533.824720,0.378645
534.153020,0.375390
534.481280,0.374890
534.809500,0.373791
535.137680,0.367622
535.465820,0.373282
535.793920,0.367174
536.121980,0.368443
536.450000,0.363636
536.777980,0.367826
537.105920,0.368618
537.433820,0.366203
537.761680,0.362449
538.089500,0.371510
538.417280,0.359331
538.745020,0.366482
539.072720,0.361187
539.400380,0.364802
539.728000,0.362906
540.055580,0.359551
540.383120,0.358153
540.710620,0.352307
541.038080,0.358170
541.365500,0.358456
541.692880,0.353561
542.020220,0.352285
542.347520,0.360373
542.674780,0.355328
543.002000,0.346746
543.329180,0.353911
543.656320,0.359353
543.983420,0.351111
544.310480,0.350323
544.637500,0.355510
544.964480,0.352288
545.291420,0.348288
545.618320,0.352922
545.945180,0.352670
546.272000,0.344364
546.598780,0.339561
546.925520,0.346192
547.252220,0.345659
547.578880,0.340502
547.905500,0.343137
548.232080,0.342430
548.558620,0.342336
548.885120,0.349035
549.211580,0.335905
549.538000,0.343061
549.864380,0.335048
550.190720,0.336132
550.517020,0.338331
550.843280,0.338762
551.169500,0.332061
551.495680,0.335085
551.821820,0.326257
552.147920,0.329538
552.473980,0.332894
552.800000,0.333878
553.125980,0.328094
553.451920,0.333112
553.777820,0.329447
554.103680,0.320526
554.429500,0.323401
554.755280,0.330107
555.081020,0.324866
555.406720,0.326448
555.732380,0.317858
556.058000,0.317379
556.383580,0.320096
556.709120,0.321502
557.034620,0.322425
557.360080,0.318480
557.685500,0.315698
558.010880,0.314731
558.336220,0.312127
558.661520,0.315845
558.986780,0.312190
559.312000,0.308048
559.637180,0.311670
559.962320,0.313279
560.287420,0.312412
560.612480,0.306064
560.937500,0.307269
561.262480,0.308651
561.587420,0.305042
561.912320,0.301769
562.237180,0.304959
562.562000,0.303404
562.886780,0.304348
563.211520,0.302534
563.536220,0.306494
563.860880,0.302905
564.185500,0.297186
564.510080,0.302483
564.834620,0.296985
565.159120,0.296617
565.483580,0.299506
565.808000,0.291714
566.132380,0.298769
566.456720,0.293273
566.781020,0.290323
567.105280,0.286957
567.429500,0.294006
567.753680,0.288454
568.077820,0.290684
568.401920,0.286096
568.725980,0.288425
569.050000,0.295057
569.373980,0.284735
569.697920,0.292378
570.021820,0.289513
570.345680,0.283582
570.669500,0.286532
570.993280,0.284238
571.317020,0.280965
571.640720,0.279733
571.964380,0.282851
572.288000,0.281157
572.611580,0.282666
572.935120,0.282828
573.258620,0.280853
573.582080,0.275708
573.905500,0.275503
574.228880,0.274684
574.552220,0.277757
574.875520,0.271407
575.198780,0.277918
575.522000,0.272361
575.845180,0.270774
576.168320,0.269853
576.491420,0.273256
576.814480,0.269801
577.137500,0.269481
577.460480,0.265676
577.783420,0.266524
578.106320,0.272792
578.429180,0.262990
578.752000,0.261549
579.074780,0.263992
579.397520,0.262750
579.720220,0.267053
580.042880,0.260984
580.365500,0.257776
580.688080,0.261872
581.010620,0.260884
581.333120,0.263193
581.655580,0.260406
581.978000,0.257399
582.300380,0.254463
582.622720,0.253131
582.945020,0.258127
583.267280,0.254640
583.589500,0.255538
583.911680,0.254366
584.233820,0.245829
584.555920,0.247085
584.877980,0.250000
585.200000,0.246163
585.521980,0.252394
585.843920,0.252288
586.165820,0.250762
586.487680,0.246163
586.809500,0.246325
587.131280,0.248151
587.453020,0.250298
587.774720,0.249556
588.096380,0.245041
588.418000,0.244074
588.739580,0.247772
589.061120,0.244968
589.382620,0.246132
589.704080,0.241515
590.025500,0.246290
590.346880,0.246768
590.668220,0.239989
590.989520,0.237659
591.310780,0.238608
591.632000,0.235792
591.953180,0.239136
592.274320,0.238056
592.595420,0.235453
592.916480,0.236077
593.237500,0.232282
593.558480,0.233253
593.879420,0.230375
594.200320,0.231985
594.521180,0.235060
594.842000,0.235895
595.162780,0.229968
595.483520,0.228928
595.804220,0.231472
596.124880,0.234746
596.445500,0.223212
596.766080,0.232052
597.086620,0.229299
597.407120,0.231174
597.727580,0.226465
598.048000,0.225602
598.368380,0.218043
598.688720,0.222543
599.009020,0.222399
599.329280,0.222193
599.649500,0.219229
599.969680,0.219818
600.289820,0.221955
600.609920,0.217740
600.929980,0.220203
601.250000,0.216216
601.569980,0.214691
601.889920,0.214114
602.209820,0.216180
602.529680,0.217248
602.849500,0.211402
603.169280,0.210526
603.489020,0.216717
603.808720,0.211190
604.128380,0.211093
604.448000,0.208840
604.767580,0.211453
605.087120,0.206925
605.406620,0.211027
605.726080,0.212147
606.045500,0.203399
606.364880,0.210661
606.684220,0.207310
607.003520,0.200975
607.322780,0.205799
607.642000,0.201608
607.961180,0.202660
608.280320,0.204176
608.599420,0.202491
608.918480,0.200293
609.237500,0.201291
609.556480,0.200651
609.875420,0.202304
610.194320,0.195158
610.513180,0.200947
610.832000,0.195057
611.150780,0.201262
611.469520,0.198492
611.788220,0.198307
612.106880,0.198130
612.425500,0.195493
612.744080,0.194829
613.062620,0.190826
613.381120,0.191956
613.699580,0.194053
614.018000,0.197174
614.336380,0.193091
614.654720,0.187287
614.973020,0.187596
615.291280,0.191199
615.609500,0.189857
615.927680,0.189431
616.245820,0.184292
616.563920,0.189929
616.881980,0.188338
617.200000,0.182271
617.517980,0.184816
617.835920,0.182044
618.153820,0.188063
618.471680,0.181395
618.789500,0.182505
619.107280,0.183725
619.425020,0.183952
619.742720,0.181105
620.060380,0.180508
620.378000,0.184078
620.695580,0.181034
621.013120,0.177638
621.330620,0.181362
621.648080,0.176341
621.965500,0.175659
622.282880,0.177806
622.600220,0.177511
622.917520,0.177694
623.234780,0.181935
623.552000,0.179504
623.869180,0.173653
624.186320,0.177969
624.503420,0.173354
624.820480,0.174678
625.137500,0.175560
625.454480,0.175055
625.771420,0.174653
626.088320,0.170870
626.405180,0.170193
626.722000,0.174090
627.038780,0.169173
627.355520,0.168125
627.672220,0.170762
627.988880,0.170140
628.305500,0.168588
628.622080,0.174102
628.938620,0.168502
629.255120,0.169571
629.571580,0.163040
629.888000,0.162627
630.204380,0.165695
630.520720,0.167581
630.837020,0.172988
631.153280,0.165168
631.469500,0.166768
631.785680,0.162749
632.101820,0.162847
632.417920,0.162742
632.733980,0.162965
633.050000,0.164039
633.365980,0.160937
633.681920,0.160800
633.997820,0.161686
634.313680,0.158360
634.629500,0.162194
634.945280,0.159531
635.261020,0.161139
635.576720,0.158544
635.892380,0.161778
636.208000,0.160372
636.523580,0.158433
636.839120,0.156630
637.154620,0.158551
637.470080,0.158680
637.785500,0.159437
638.100880,0.153490
638.416220,0.153868
638.731520,0.158739
639.046780,0.160501
639.362000,0.154243
639.677180,0.154769
639.992320,0.155343
640.307420,0.154538
640.622480,0.155419
640.937500,0.153953
641.252480,0.155822
641.567420,0.152600
641.882320,0.149777
642.197180,0.155531
642.512000,0.150574
642.826780,0.155617
643.141520,0.148652
643.456220,0.151079
643.770880,0.148977
644.085500,0.152320
644.400080,0.147472
644.714620,0.151616
645.029120,0.147140
645.343580,0.149479
645.658000,0.148765
645.972380,0.151274
646.286720,0.144999
646.601020,0.147246
646.915280,0.147519
647.229500,0.146703
647.543680,0.148025
647.857820,0.149463
648.171920,0.147585
648.485980,0.147986
648.800000,0.146321
649.113980,0.146341
649.427920,0.144799
649.741820,0.144270
650.055680,0.146736
650.369500,0.142937
650.683280,0.143729
650.997020,0.140814
651.310720,0.141992
651.624380,0.140385
651.938000,0.141274
652.251580,0.139994
652.565120,0.137228
652.878620,0.143863
653.192080,0.140449
653.505500,0.141655
653.818880,0.144726
654.132220,0.142694
654.445520,0.138117
654.758780,0.138244
655.072000,0.140688
655.385180,0.139800
655.698320,0.139754
656.011420,0.139868
656.324480,0.139609
656.637500,0.135863
656.950480,0.140341
657.263420,0.138930
657.576320,0.137267
657.889180,0.138307
658.202000,0.134058
658.514780,0.134564
658.827520,0.136255
659.140220,0.135451
659.452880,0.135911
659.765500,0.135160
660.078080,0.135721
660.390620,0.132906
660.703120,0.138100
661.015580,0.133129
661.328000,0.136335
661.640380,0.137931
661.952720,0.133603
662.265020,0.135791
662.577280,0.133588
662.889500,0.132135
663.201680,0.134971
663.513820,0.131875
663.825920,0.131284
664.137980,0.138332
664.450000,0.129795
664.761980,0.132242
665.073920,0.131126
665.385820,0.131217
665.697680,0.138182
666.009500,0.132690
666.321280,0.137840
666.633020,0.134973
666.944720,0.134142
667.256380,0.127860
667.568000,0.129076
667.879580,0.134014
668.191120,0.132212
668.502620,0.133516
668.814080,0.133333
669.125500,0.130688
669.436880,0.130705
669.748220,0.132572
670.059520,0.132353
670.370780,0.135003
670.682000,0.134513
670.993180,0.128259
671.304320,0.130802
671.615420,0.128551
671.926480,0.130944
672.237500,0.125402
672.548480,0.128815
672.859420,0.132595
673.170320,0.130939
673.481180,0.133237
673.792000,0.130545
674.102780,0.126750
674.413520,0.129785
674.724220,0.128131
675.034880,0.128346
675.345500,0.128009
675.656080,0.130672
675.966620,0.133139
676.277120,0.125229
676.587580,0.132180
676.898000,0.129899
677.208380,0.125693
677.518720,0.123997
677.829020,0.124908
678.139280,0.127502
678.449500,0.130338
678.759680,0.129262
679.069820,0.128253
679.379920,0.131271
679.689980,0.127739
680.000000,0.131963
680.309980,0.129918
680.619920,0.129496
680.929820,0.129153
681.239680,0.126292
681.549500,0.133333
681.859280,0.125467
682.169020,0.131294
682.478720,0.127150
682.788380,0.129937
683.098000,0.128646
683.407580,0.129831
683.717120,0.129129
684.026620,0.128765
684.336080,0.126563
684.645500,0.126824
684.954880,0.126936
685.264220,0.127973
685.573520,0.131709
685.882780,0.128117
686.192000,0.130173
686.501180,0.125615
686.810320,0.132590
687.119420,0.129228
687.428480,0.129890
687.737500,0.126247
688.046480,0.127684
688.355420,0.129385
688.664320,0.124331
688.973180,0.125191
689.282000,0.126929
689.590780,0.126150
689.899520,0.126092
690.208220,0.131116
690.516880,0.129821
690.825500,0.126038
691.134080,0.126803
691.442620,0.129954
691.751120,0.124005
692.059580,0.127245
692.368000,0.128360
692.676380,0.129389
692.984720,0.128244
693.293020,0.129179
693.601280,0.127051
693.909500,0.128642
694.217680,0.129474
694.525820,0.130236
694.833920,0.127051
695.141980,0.125337
695.450000,0.130916
695.757980,0.130252
696.065920,0.130097
696.373820,0.128945
696.681680,0.133103
696.989500,0.134697
697.297280,0.133411
697.605020,0.130556
697.912720,0.127978
698.220380,0.129083
698.528000,0.129747
698.835580,0.128803
699.143120,0.130164
699.450620,0.129276
699.758080,0.126275
700.065500,0.130886
700.372880,0.126400
700.680220,0.128041
700.987520,0.128175
701.294780,0.128548
701.602000,0.129556
701.909180,0.132353
702.216320,0.131795
702.523420,0.129440
702.830480,0.133069
703.137500,0.129774
703.444480,0.129783
703.751420,0.128994
704.058320,0.131777
704.365180,0.134858
704.672000,0.133465
704.978780,0.131487
705.285520,0.131064
705.592220,0.128627
705.898880,0.130418
706.205500,0.131455
706.512080,0.136256
706.818620,0.135449
707.125120,0.133846
707.431580,0.130911
707.738000,0.133984
708.044380,0.130838
708.350720,0.133359
708.657020,0.135209
708.963280,0.140140
709.269500,0.136986
709.575680,0.138703
709.881820,0.129324
710.187920,0.135798
710.493980,0.132661
710.800000,0.133867
711.105980,0.131777
711.411920,0.135199
711.717820,0.134503
712.023680,0.132919
712.329500,0.134069
712.635280,0.140310
712.941020,0.135292
713.246720,0.138340
713.552380,0.138148
713.858000,0.132440
714.163580,0.135754
714.469120,0.135209
714.774620,0.135018
715.080080,0.134668
715.385500,0.136291
715.690880,0.136489
715.996220,0.134707
716.301520,0.137154
716.606780,0.137579
716.912000,0.137318
717.217180,0.134876
717.522320,0.135189
717.827420,0.138731
718.132480,0.140907
718.437500,0.141867
718.742480,0.136694
719.047420,0.137945
719.352320,0.141968
719.657180,0.140638
719.962000,0.139371
720.266780,0.142916
720.571520,0.142088
720.876220,0.139935
721.180880,0.136288
721.485500,0.136649
721.790080,0.138429
722.094620,0.143225
722.399120,0.139595
722.703580,0.136305
723.008000,0.142734
723.312380,0.143780
723.616720,0.138547
723.921020,0.143352
724.225280,0.138743
724.529500,0.138354
724.833680,0.145907
725.137820,0.144493
725.441920,0.143112
725.745980,0.143177
726.050000,0.147046
726.353980,0.142406
726.657920,0.140351
726.961820,0.145205
727.265680,0.143782
727.569500,0.143967
727.873280,0.139954
728.177020,0.146476
728.480720,0.147222
728.784380,0.147017
729.088000,0.146491
729.391580,0.144955
729.695120,0.152111
729.998620,0.147706
730.302080,0.146564
730.605500,0.145560
730.908880,0.149927
731.212220,0.150343
731.515520,0.143832
731.818780,0.146117
732.122000,0.148130
732.425180,0.151799
732.728320,0.149727
733.031420,0.138847
733.334480,0.149490
733.637500,0.146673
733.940480,0.155067
734.243420,0.159531
734.546320,0.150934
734.849180,0.150826
735.152000,0.150934
735.454780,0.152376
735.757520,0.148051
736.060220,0.153765
736.362880,0.158088
736.665500,0.150392
736.968080,0.152069
737.270620,0.154056
737.573120,0.149563
737.875580,0.147334
738.178000,0.151878
738.480380,0.153514
738.782720,0.151036
739.085020,0.153634
739.387280,0.156319
739.689500,0.158550
739.991680,0.155531
740.293820,0.158651
740.595920,0.154702
740.897980,0.158103
741.200000,0.161526
741.501980,0.161605
741.803920,0.157658
742.105820,0.156796
742.407680,0.159581
742.709500,0.156250
743.011280,0.152403
743.313020,0.157681
743.614720,0.152641
743.916380,0.159884
744.218000,0.159308
744.519580,0.161836
744.821120,0.159880
745.122620,0.158778
745.424080,0.158053
745.725500,0.161135
746.026880,0.160099
746.328220,0.163995
746.629520,0.158940
746.930780,0.167892
747.232000,0.160638
747.533180,0.160464
747.834320,0.160073
748.135420,0.168428
748.436480,0.160324
748.737500,0.163681
749.038480,0.161271
749.339420,0.168637
749.640320,0.165933
749.941180,0.167395
750.242000,0.167714
750.542780,0.163772
750.843520,0.172966
751.144220,0.168590
751.444880,0.172479
751.745500,0.161688
752.046080,0.174471
752.346620,0.157216
752.647120,0.158720
752.947580,0.173351
753.248000,0.176660
753.548380,0.169811
753.848720,0.170637
754.149020,0.159897
754.449280,0.170716
754.749500,0.165893
755.049680,0.161333
755.349820,0.167445
755.649920,0.177792
755.949980,0.170537
756.250000,0.175542
756.549980,0.170957
756.849920,0.174031
757.149820,0.166334
757.449680,0.182178
757.749500,0.176551
758.049280,0.175427
758.349020,0.175939
758.648720,0.175293
758.948380,0.171134
759.248000,0.181267
759.547580,0.174176
759.847120,0.182633
760.146620,0.177267
760.446080,0.180780
760.745500,0.179021
761.044880,0.176136
761.344220,0.177477
761.643520,0.182910
761.942780,0.182645
762.242000,0.181047
762.541180,0.175352
762.840320,0.183989
763.139420,0.178622
763.438480,0.181818
763.737500,0.181254
764.036480,0.176101
764.335420,0.179958
764.634320,0.180180
764.933180,0.183562
765.232000,0.176266
765.530780,0.185263
765.829520,0.185315
766.128220,0.187891
766.426880,0.183369
766.725500,0.183002
767.024080,0.189300
767.322620,0.187414
767.621120,0.184282
767.919580,0.176109
768.218000,0.184679
768.516380,0.185936
768.814720,0.183813
769.113020,0.186079
769.411280,0.189227
769.709500,0.190122
770.007680,0.182004
770.305820,0.187965
770.603920,0.184636
770.901980,0.186475
771.200000,0.188179
771.497980,0.189008
771.795920,0.186622
772.093820,0.187834
772.391680,0.194463
772.689500,0.187162
772.987280,0.186532
773.285020,0.193438
773.582720,0.195946
773.880380,0.201784
774.178000,0.197682
774.475580,0.198928
774.773120,0.187416
775.070620,0.200811
775.368080,0.199065
775.665500,0.194762
775.962880,0.198132
776.260220,0.199865
776.557520,0.200133
776.854780,0.197431
777.152000,0.193634
777.449180,0.204990
777.746320,0.199597
778.043420,0.201228
778.340480,0.196888
778.637500,0.204192
778.934480,0.199731
779.231420,0.202171
779.528320,0.203741
779.825180,0.198946
780.122000,0.201859
780.418780,0.203146
780.715520,0.204561
781.012220,0.208219
781.308880,0.210277
781.605500,0.200000
781.902080,0.197810
782.198620,0.204375
782.495120,0.205075
782.791580,0.210454
783.088000,0.208420
783.384380,0.204264
783.680720,0.201094
783.977020,0.208534
784.273280,0.205594
784.569500,0.208945
784.865680,0.215577
785.161820,0.206944
785.457920,0.203742
785.753980,0.204466
786.050000,0.201657
786.345980,0.210417
786.641920,0.212353
786.937820,0.216524
787.233680,0.203897
787.529500,0.210818
787.825280,0.218130
788.121020,0.219547
788.416720,0.216655
788.712380,0.212976
789.008000,0.208215
789.303580,0.215548
789.599120,0.223273
789.894620,0.223827
790.190080,0.208122
790.485500,0.212383
790.780880,0.210753
791.076220,0.218615
791.371520,0.217865
791.666780,0.224727
791.962000,0.221896
792.257180,0.212299
792.552320,0.227701
792.847420,0.221252
793.142480,0.225641
793.437500,0.219247
793.732480,0.216533
794.027420,0.216617
794.322320,0.225205
794.617180,0.221397
794.912000,0.225111
795.206780,0.221477
795.501520,0.233460
795.796220,0.222963
796.090880,0.232102
796.385500,0.221889
796.680080,0.222887
796.974620,0.226048
797.269120,0.227101
797.563580,0.225954
797.858000,0.230068
798.152380,0.228925
798.446720,0.230769
798.741020,0.232666
799.035280,0.225932
799.329500,0.230177
799.623680,0.231008
