399.985280,0.324324
400.329500,0.324324
400.673680,0.379747
401.017820,0.323529
401.361920,0.212121
401.705980,0.243902
402.050000,0.272727
402.393980,0.341176
402.737920,0.337079
403.081820,0.298969
403.425680,0.325581
403.769500,0.208333
404.113280,0.264368
404.457020,0.258427
404.800720,0.260870
405.144380,0.232323
405.488000,0.279570
405.831580,0.278351
406.175120,0.297872
406.518620,0.240000
406.862080,0.319588
407.205500,0.260417
407.548880,0.255102
407.892220,0.254902
408.235520,0.276596
408.578780,0.304762
408.922000,0.240385
409.265180,0.303030
409.608320,0.262626
409.951420,0.329897
410.294480,0.294118
410.637500,0.282609
410.980480,0.254902
411.323420,0.255102
411.666320,0.311927
412.009180,0.263636
412.352000,0.257426
412.694780,0.256881
413.037520,0.220183
413.380220,0.261261
413.722880,0.223214
414.065500,0.252252
414.408080,0.212389
414.750620,0.230088
415.093120,0.214876
415.435580,0.260504
415.778000,0.265152
416.120380,0.201681
416.462720,0.246032
416.805020,0.285714
417.147280,0.238806
417.489500,0.221429
417.831680,0.191781
418.173820,0.170213
418.515920,0.174825
418.857980,0.189873
419.200000,0.179487
419.541980,0.224852
419.883920,0.213483
420.225820,0.202312
420.567680,0.184358
420.909500,0.240437
421.251280,0.218750
421.593020,0.178571
421.934720,0.191919
422.276380,0.153846
422.618000,0.225490
422.959580,0.196078
423.301120,0.182648
423.642620,0.182609
423.984080,0.186047
424.325500,0.174888
424.666880,0.172414
425.008220,0.197479
425.349520,0.190678
425.690780,0.188462
426.032000,0.160784
426.373180,0.165975
426.714320,0.171875
427.055420,0.177606
427.396480,0.194757
427.737500,0.181818
428.078480,0.177866
428.419420,0.196787
428.760320,0.176245
429.101180,0.181102
429.442000,0.180077
429.782780,0.161538
430.123520,0.176471
430.464220,0.169742
430.804880,0.203065
431.145500,0.174545
431.486080,0.205993
431.826620,0.186047
432.167120,0.161765
432.507580,0.155797
432.848000,0.176259
433.188380,0.162455
433.528720,0.177358
433.869020,0.171429
434.209280,0.161404
434.549500,0.177700
434.889680,0.158249
435.229820,0.191126
435.569920,0.173010
435.909980,0.168285
436.250000,0.183051
436.589980,0.167183
436.929920,0.177778
437.269820,0.178683
437.609680,0.183432
437.949500,0.189759
438.289280,0.186969
438.629020,0.186047
438.968720,0.165698
439.308380,0.176152
439.648000,0.167123
439.987580,0.187831
440.327120,0.184000
440.666620,0.187013
441.006080,0.179028
441.345500,0.189189
441.684880,0.177033
442.024220,0.183623
442.363520,0.180952
442.702780,0.170455
443.042000,0.182819
443.381180,0.174569
443.720320,0.203024
444.059420,0.184874
444.398480,0.186192
444.737500,0.198770
445.076480,0.186508
445.415420,0.203593
445.754320,0.176715
446.093180,0.185321
446.432000,0.195489
446.770780,0.197343
447.109520,0.196691
447.448220,0.180680
447.786880,0.194991
448.125500,0.203448
448.464080,0.208929
448.802620,0.202128
449.141120,0.197232
449.479580,0.216783
449.818000,0.211704
450.156380,0.190635
450.494720,0.206612
450.833020,0.211538
451.171280,0.200342
451.509500,0.222997
451.847680,0.215852
452.185820,0.213425
452.523920,0.219931
452.861980,0.222597
453.200000,0.210963
453.537980,0.211765
453.875920,0.215126
454.213820,0.231164
454.551680,0.223510
454.889500,0.220911
455.227280,0.229537
455.565020,0.229481
455.902720,0.232945
456.240380,0.219634
456.578000,0.238676
456.915580,0.241796
457.253120,0.245066
457.590620,0.239737
457.928080,0.240741
458.265500,0.256757
458.602880,0.241883
458.940220,0.241963
459.277520,0.256000
459.614780,0.242226
459.952000,0.246894
460.289180,0.265823
460.626320,0.261417
460.963420,0.248788
461.300480,0.267584
461.637500,0.266564
461.974480,0.267584
462.311420,0.280179
462.648320,0.256223
462.985180,0.259684
463.322000,0.272321
463.658780,0.272099
463.995520,0.266850
464.332220,0.277008
464.668880,0.275538
465.005500,0.282842
465.342080,0.290653
465.678620,0.282903
466.015120,0.282018
466.351580,0.286979
466.688000,0.292326
467.024380,0.298906
467.360720,0.297727
467.697020,0.299544
468.033280,0.301111
468.369500,0.307947
468.705680,0.306652
469.041820,0.296875
469.377920,0.299349
469.713980,0.302781
470.050000,0.312077
470.385980,0.303327
470.721920,0.311459
471.057820,0.316764
471.393680,0.323667
471.729500,0.322521
472.065280,0.319320
472.401020,0.316489
472.736720,0.330716
473.072380,0.328546
473.408000,0.315057
473.743580,0.321799
474.079120,0.332472
474.414620,0.322307
474.750080,0.320586
475.085500,0.333882
475.420880,0.336386
475.756220,0.345871
476.091520,0.350384
476.426780,0.345469
476.762000,0.348351
477.097180,0.340000
477.432320,0.357027
477.767420,0.354575
478.102480,0.356693
478.437500,0.365353
478.772480,0.345942
479.107420,0.358015
479.442320,0.353317
479.777180,0.361973
480.112000,0.352851
480.446780,0.359314
480.781520,0.363124
481.116220,0.376718
481.450880,0.366901
481.785500,0.370253
482.120080,0.380878
482.454620,0.381507
482.789120,0.382962
483.123580,0.372274
483.458000,0.382120
483.792380,0.380990
484.126720,0.385328
484.461020,0.378610
484.795280,0.385505
485.129500,0.388153
485.463680,0.384496
485.797820,0.397356
486.131920,0.383321
486.465980,0.404633
486.800000,0.396183
487.133980,0.383686
487.467920,0.405509
487.801820,0.411899
488.135680,0.415466
488.469500,0.404690
488.803280,0.402675
489.137020,0.405128
489.470720,0.416172
489.804380,0.413512
490.138000,0.413947
490.471580,0.420044
490.805120,0.414582
491.138620,0.417200
491.472080,0.425442
491.805500,0.414923
492.138880,0.421821
492.472220,0.424221
492.805520,0.424581
493.138780,0.421089
493.472000,0.422742
493.805180,0.433151
494.138320,0.428953
494.471420,0.427083
494.804480,0.425614
495.137500,0.428755
495.470480,0.432760
495.803420,0.426952
496.136320,0.429198
496.469180,0.439533
496.802000,0.442543
497.134780,0.441480
497.467520,0.447095
497.800220,0.442807
498.132880,0.442093
498.465500,0.436269
498.798080,0.440639
499.130620,0.434587
499.463120,0.449186
499.795580,0.444444
500.128000,0.448501
500.460380,0.451023
500.792720,0.441676
501.125020,0.447714
501.457280,0.454830
501.789500,0.451963
502.121680,0.454121
502.453820,0.444161
502.785920,0.454727
503.117980,0.450932
503.450000,0.458061
503.781980,0.453911
504.113920,0.455192
504.445820,0.456490
504.777680,0.461176
505.109500,0.455288
505.441280,0.449331
505.773020,0.452795
506.104720,0.456430
506.436380,0.459536
506.768000,0.454163
507.099580,0.447597
507.431120,0.454801
507.762620,0.460526
508.094080,0.455333
508.425500,0.460784
508.756880,0.459076
509.088220,0.454922
509.419520,0.462756
509.750780,0.469072
510.082000,0.468284
510.413180,0.461538
510.744320,0.456512
511.075420,0.454629
511.406480,0.472967
511.737500,0.459259
512.068480,0.466165
512.399420,0.457746
512.730320,0.455889
513.061180,0.461941
513.392000,0.463322
513.722780,0.466859
514.053520,0.464782
514.384220,0.463844
514.714880,0.462422
515.045500,0.459770
515.376080,0.461985
515.706620,0.462737
516.037120,0.461275
516.367580,0.463282
516.698000,0.461765
517.028380,0.455809
517.358720,0.463210
517.689020,0.460930
518.019280,0.462619
518.349500,0.458186
518.679680,0.463402
519.009820,0.460526
519.339920,0.462926
519.669980,0.462079
520.000000,0.466633
520.329980,0.461897
520.659920,0.452454
520.989820,0.455108
521.319680,0.454218
521.649500,0.459126
521.979280,0.464509
522.309020,0.450726
522.638720,0.449565
522.968380,0.460703
523.298000,0.456681
523.627580,0.452664
523.957120,0.453506
524.286620,0.454924
524.616080,0.455533
524.945500,0.456331
525.274880,0.457671
525.604220,0.453934
525.933520,0.450210
526.262780,0.443994
526.592000,0.449011
526.921180,0.450482
527.250320,0.452055
527.579420,0.454775
527.908480,0.443131
528.237500,0.445879
528.566480,0.454092
528.895420,0.446033
529.224320,0.440317
529.553180,0.438554
529.882000,0.449148
530.210780,0.439189
530.539520,0.441515
530.868220,0.442317
531.196880,0.429527
531.525500,0.443584
531.854080,0.431989
532.182620,0.439514
532.511120,0.436195
532.839580,0.440563
533.168000,0.433911
533.496380,0.429224
533.824720,0.433827
534.153020,0.436915
534.481280,0.434361
534.809500,0.440193
535.137680,0.430990
535.465820,0.429983
535.793920,0.426396
536.121980,0.430969
536.450000,0.436364
536.777980,0.433180
537.105920,0.435035
537.433820,0.430442
537.761680,0.431020
538.089500,0.431404
538.417280,0.419419
538.745020,0.428288
539.072720,0.415463
539.400380,0.421523
539.728000,0.420650
540.055580,0.413483
540.383120,0.412882
540.710620,0.422247
541.038080,0.417927
541.365500,0.417647
541.692880,0.404797
542.020220,0.415257
542.347520,0.415291
542.674780,0.406140
543.002000,0.406928
543.329180,0.408629
543.656320,0.414909
543.983420,0.405812
544.310480,0.406728
544.637500,0.412146
544.964480,0.406124
545.291420,0.401130
545.618320,0.402722
545.945180,0.397495
546.272000,0.391547
546.598780,0.396919
546.925520,0.393999
547.252220,0.393859
547.578880,0.392636
547.905500,0.391176
548.232080,0.389214
548.558620,0.386267
548.885120,0.390579
549.211580,0.387014
549.538000,0.383593
549.864380,0.387460
550.190720,0.379077
550.517020,0.381030
550.843280,0.386645
551.169500,0.369275
551.495680,0.374836
551.821820,0.378511
552.147920,0.374756
552.473980,0.376688
552.800000,0.362655
553.125980,0.368697
553.451920,0.367286
553.777820,0.365756
554.103680,0.360971
554.429500,0.361902
554.755280,0.366822
555.081020,0.350936
555.406720,0.359296
555.732380,0.355134
556.058000,0.359131
556.383580,0.356042
556.709120,0.347002
557.034620,0.355839
557.360080,0.346805
557.685500,0.349585
558.010880,0.346274
558.336220,0.345167
558.661520,0.345268
558.986780,0.344437
559.312000,0.338319
559.637180,0.345063
559.962320,0.339623
560.287420,0.338505
560.612480,0.335845
560.937500,0.339941
561.262480,0.335044
561.587420,0.330432
561.912320,0.325718
562.237180,0.326425
562.562000,0.324729
562.886780,0.332219
563.211520,0.327496
563.536220,0.326160
563.860880,0.325538
564.185500,0.320075
564.510080,0.319789
564.834620,0.318199
565.159120,0.320301
565.483580,0.311288
565.808000,0.314794
566.132380,0.312197
566.456720,0.317838
566.781020,0.311703
567.105280,0.309263
567.429500,0.308042
567.753680,0.308400
568.077820,0.305373
568.401920,0.310924
568.725980,0.298672
569.050000,0.302281
569.373980,0.299201
569.697920,0.302237
570.021820,0.300375
570.345680,0.291619
570.669500,0.290729
570.993280,0.296419
571.317020,0.297406
571.640720,0.296036
571.964380,0.292502
572.288000,0.289688
572.611580,0.285661
572.935120,0.285821
573.258620,0.285714
573.582080,0.280551
573.905500,0.281459
574.228880,0.286192
574.552220,0.282888
574.875520,0.274758
575.198780,0.275750
575.522000,0.278959
575.845180,0.266834
576.168320,0.272727
576.491420,0.273983
576.814480,0.273056
577.137500,0.273810
577.460480,0.272925
577.783420,0.267953
578.106320,0.266738
578.429180,0.265465
578.752000,0.266412
579.074780,0.265003
579.397520,0.263719
579.720220,0.265444
580.042880,0.257351
580.365500,0.261747
580.688080,0.262890
581.010620,0.252784
581.333120,0.254843
581.655580,0.260073
581.978000,0.254406
582.300380,0.248621
582.622720,0.252142
582.945020,0.252276
583.267280,0.247476
583.589500,0.249117
583.911680,0.245157
584.233820,0.242052
584.555920,0.245509
584.877980,0.247173
585.200000,0.242480
585.521980,0.242200
585.843920,0.241306
586.165820,0.243754
586.487680,0.239844
586.809500,0.237324
587.131280,0.236321
587.453020,0.240179
587.774720,0.242756
588.096380,0.235414
588.418000,0.235587
588.739580,0.234263
589.061120,0.228005
589.382620,0.229799
589.704080,0.230856
590.025500,0.232877
590.346880,0.227937
590.668220,0.225987
590.989520,0.220466
591.310780,0.224247
591.632000,0.225137
591.953180,0.225851
592.274320,0.220857
592.595420,0.219019
592.916480,0.218962
593.237500,0.222043
593.558480,0.215765
593.879420,0.218236
594.200320,0.219127
594.521180,0.218327
594.842000,0.219237
595.162780,0.216079
595.483520,0.215634
595.804220,0.212943
596.124880,0.214229
596.445500,0.212994
596.766080,0.215649
597.086620,0.209130
597.407120,0.212217
597.727580,0.210819
598.048000,0.210526
598.368380,0.209890
598.688720,0.210747
599.009020,0.210191
599.329280,0.208888
599.649500,0.207079
599.969680,0.206197
600.289820,0.205662
600.609920,0.200107
600.929980,0.206574
601.250000,0.202432
601.569980,0.197408
601.889920,0.203689
602.209820,0.196158
602.529680,0.204339
602.849500,0.198036
603.169280,0.202260
603.489020,0.197896
603.808720,0.198025
604.128380,0.201159
604.448000,0.193923
604.767580,0.193017
605.087120,0.195845
605.406620,0.200672
605.726080,0.200171
606.045500,0.188632
606.364880,0.193933
606.684220,0.191319
607.003520,0.189794
607.322780,0.193860
607.642000,0.193280
607.961180,0.195143
608.280320,0.189675
608.599420,0.188586
608.918480,0.192669
609.237500,0.189261
609.556480,0.183486
609.875420,0.183698
610.194320,0.186596
610.513180,0.190885
610.832000,0.189696
611.150780,0.190448
611.469520,0.187934
611.788220,0.187424
612.106880,0.187575
612.425500,0.188185
612.744080,0.185288
613.062620,0.188379
613.381120,0.185862
613.699580,0.184243
614.018000,0.186732
614.336380,0.184762
614.654720,0.186357
614.973020,0.186362
615.291280,0.183142
615.609500,0.187322
615.927680,0.184487
616.245820,0.185838
616.563920,0.182468
616.881980,0.182413
617.200000,0.186936
617.517980,0.185439
617.835920,0.179248
618.153820,0.182468
618.471680,0.181395
618.789500,0.185337
619.107280,0.184038
619.425020,0.182683
619.742720,0.178594
620.060380,0.182388
620.378000,0.182190
620.695580,0.181992
621.013120,0.187087
621.330620,0.183872
621.648080,0.180757
621.965500,0.183501
622.282880,0.181274
622.600220,0.182249
622.917520,0.186200
623.234780,0.189971
623.552000,0.183641
623.869180,0.187205
624.186320,0.183063
624.503420,0.184639
624.820480,0.186302
625.137500,0.187875
625.454480,0.185370
625.771420,0.182850
626.088320,0.184111
626.405180,0.187306
626.722000,0.188206
627.038780,0.188910
627.355520,0.186875
627.672220,0.188491
627.988880,0.186003
628.305500,0.190090
628.622080,0.188352
628.938620,0.185933
629.255120,0.191350
629.571580,0.187864
629.888000,0.185640
630.204380,0.190549
630.520720,0.190737
630.837020,0.193031
631.153280,0.188549
631.469500,0.193754
631.785680,0.191079
632.101820,0.189385
632.417920,0.188674
632.733980,0.190276
633.050000,0.191025
633.365980,0.195614
633.681920,0.189439
633.997820,0.196653
634.313680,0.195812
634.629500,0.197582
634.945280,0.194721
635.261020,0.193425
635.576720,0.196712
635.892380,0.197502
636.208000,0.197850
636.523580,0.199649
636.839120,0.199768
637.154620,0.206667
637.470080,0.199139
637.785500,0.201348
638.100880,0.200985
638.416220,0.201898
638.731520,0.198854
639.046780,0.204777
639.362000,0.202122
639.677180,0.205311
639.992320,0.206090
640.307420,0.204271
640.622480,0.203584
640.937500,0.204161
641.252480,0.206088
641.567420,0.207729
641.882320,0.203786
642.197180,0.206064
642.512000,0.204310
642.826780,0.207212
643.141520,0.210892
643.456220,0.208080
643.770880,0.212825
644.085500,0.214086
644.400080,0.212360
644.714620,0.215998
645.029120,0.217547
645.343580,0.215304
645.658000,0.216764
645.972380,0.219512
646.286720,0.213410
646.601020,0.218378
646.915280,0.221004
647.229500,0.217857
647.543680,0.223143
647.857820,0.221305
648.171920,0.225719
648.485980,0.224445
648.800000,0.220171
649.113980,0.224778
649.427920,0.227739
649.741820,0.224237
650.055680,0.223533
650.369500,0.228980
650.683280,0.224195
650.997020,0.227723
651.310720,0.225371
651.624380,0.224725
651.938000,0.233795
652.251580,0.229891
652.565120,0.231694
652.878620,0.237050
653.192080,0.232303
653.505500,0.230295
653.818880,0.240830
654.132220,0.236400
654.445520,0.235111
654.758780,0.235694
655.072000,0.236963
655.385180,0.236805
655.698320,0.238925
656.011420,0.242763
656.324480,0.239872
656.637500,0.241020
656.950480,0.240752
657.263420,0.245640
657.576320,0.245775
657.889180,0.247715
658.202000,0.245773
658.514780,0.252158
658.827520,0.252101
659.140220,0.249625
659.452880,0.255512
659.765500,0.250753
660.078080,0.248270
660.390620,0.250229
660.703120,0.260923
661.015580,0.255215
661.328000,0.258816
661.640380,0.259397
661.952720,0.257864
662.265020,0.256774
662.577280,0.264313
662.889500,0.257647
663.201680,0.264518
663.513820,0.263107
663.825920,0.265450
664.137980,0.269554
664.450000,0.261509
664.761980,0.269067
665.073920,0.262577
665.385820,0.273233
665.697680,0.271074
666.009500,0.271367
666.321280,0.277005
666.633020,0.271609
666.944720,0.273340
667.256380,0.273553
667.568000,0.277853
667.879580,0.275850
668.191120,0.288118
668.502620,0.279356
668.814080,0.283860
669.125500,0.281218
669.436880,0.280083
669.748220,0.287643
670.059520,0.287115
670.370780,0.289840
670.682000,0.284248
670.993180,0.293164
671.304320,0.292897
671.615420,0.287287
671.926480,0.293471
672.237500,0.294034
672.548480,0.292406
672.859420,0.299857
673.170320,0.305404
673.481180,0.303041
673.792000,0.295709
674.102780,0.300180
674.413520,0.301859
674.724220,0.301633
675.034880,0.308398
675.345500,0.302334
675.656080,0.306352
675.966620,0.311750
676.277120,0.310143
676.587580,0.314801
676.898000,0.314296
677.208380,0.304251
677.518720,0.312910
677.829020,0.314486
678.139280,0.312083
678.449500,0.317861
678.759680,0.327463
679.069820,0.320074
679.379920,0.322143
679.689980,0.315633
680.000000,0.320374
680.309980,0.329993
680.619920,0.319576
680.929820,0.322882
681.239680,0.324963
681.549500,0.324444
681.859280,0.330844
682.169020,0.329728
682.478720,0.331713
682.788380,0.331118
683.098000,0.338818
683.407580,0.336585
683.717120,0.340465
684.026620,0.339232
684.336080,0.340659
684.645500,0.342312
684.954880,0.341896
685.264220,0.341638
685.573520,0.348306
685.882780,0.358650
686.192000,0.342739
686.501180,0.350738
686.810320,0.351268
687.119420,0.350817
687.428480,0.354728
687.737500,0.357636
688.046480,0.355445
688.355420,0.359864
688.664320,0.360367
688.973180,0.356432
689.282000,0.362269
689.590780,0.365798
689.899520,0.358526
690.208220,0.366590
690.516880,0.365025
690.825500,0.368679
691.134080,0.370919
691.442620,0.368902
691.751120,0.368980
692.059580,0.378678
692.368000,0.370693
692.676380,0.371374
692.984720,0.372137
693.293020,0.378040
693.601280,0.375811
693.909500,0.379115
694.217680,0.385377
694.525820,0.383473
694.833920,0.383823
695.141980,0.387968
695.450000,0.388168
695.757980,0.394576
696.065920,0.391845
696.373820,0.389145
696.681680,0.390487
696.989500,0.393284
697.297280,0.390898
697.605020,0.407937
697.912720,0.398155
698.220380,0.396301
698.528000,0.402690
698.835580,0.399052
699.143120,0.391660
699.450620,0.403739
699.758080,0.392941
700.065500,0.409018
700.372880,0.406800
700.680220,0.409254
700.987520,0.410317
701.294780,0.416464
701.602000,0.411648
701.909180,0.422893
702.216320,0.417286
702.523420,0.422652
702.830480,0.417030
703.137500,0.415043
703.444480,0.419329
703.751420,0.423274
704.058320,0.419470
704.365180,0.428628
704.672000,0.421386
704.978780,0.431135
705.285520,0.425274
705.592220,0.429412
705.898880,0.436170
706.205500,0.436228
706.512080,0.436809
706.818620,0.434985
707.125120,0.437692
707.431580,0.434154
707.738000,0.440625
708.044380,0.431880
708.350720,0.439052
708.657020,0.449785
708.963280,0.444876
709.269500,0.441096
709.575680,0.455796
709.881820,0.446934
710.187920,0.457588
710.493980,0.452676
710.800000,0.449275
711.105980,0.446913
711.411920,0.460780
711.717820,0.454581
712.023680,0.453945
712.329500,0.472792
712.635280,0.465891
712.941020,0.464244
713.246720,0.467194
713.552380,0.463108
713.858000,0.469846
714.163580,0.466456
714.469120,0.467761
714.774620,0.469404
715.080080,0.473498
715.385500,0.486811
715.690880,0.474951
715.996220,0.470681
716.301520,0.476285
716.606780,0.480739
716.912000,0.490307
717.217180,0.485634
717.522320,0.483499
717.827420,0.484947
718.132480,0.485347
718.437500,0.490420
718.742480,0.480645
719.047420,0.485841
719.352320,0.499792
719.657180,0.488962
719.962000,0.490488
720.266780,0.495638
720.571520,0.487158
720.876220,0.495090
721.180880,0.497910
721.485500,0.504388
721.790080,0.500212
722.094620,0.509434
722.399120,0.501939
722.703580,0.505787
723.008000,0.503665
723.312380,0.509255
723.616720,0.508287
723.921020,0.509744
724.225280,0.502618
724.529500,0.515324
724.833680,0.520463
725.137820,0.511894
725.441920,0.510031
725.745980,0.516779
726.050000,0.517366
726.353980,0.518251
726.657920,0.513270
726.961820,0.516438
727.265680,0.526121
727.569500,0.519653
727.873280,0.515473
728.177020,0.525104
728.480720,0.520833
728.784380,0.528887
729.088000,0.524258
729.391580,0.532449
729.695120,0.535029
729.998620,0.533461
730.302080,0.539164
730.605500,0.527899
730.908880,0.537972
731.212220,0.528893
731.515520,0.535836
731.818780,0.529612
732.122000,0.550197
732.425180,0.542632
732.728320,0.543381
733.031420,0.536842
733.334480,0.549490
733.637500,0.543851
733.940480,0.539406
734.243420,0.541284
734.546320,0.548755
734.849180,0.547004
735.152000,0.554979
735.454780,0.554752
735.757520,0.547418
736.060220,0.559768
736.362880,0.552521
736.665500,0.548825
736.968080,0.560989
737.270620,0.565052
737.573120,0.567140
737.875580,0.570093
738.178000,0.569951
738.480380,0.564865
738.782720,0.572519
739.085020,0.568833
739.387280,0.557650
739.689500,0.575311
739.991680,0.569905
740.293820,0.571587
740.595920,0.577629
740.897980,0.583286
741.200000,0.574313
741.501980,0.585673
741.803920,0.574887
742.105820,0.584320
742.407680,0.592312
742.709500,0.571023
743.011280,0.580891
743.313020,0.579130
743.614720,0.580383
743.916380,0.571512
744.218000,0.597852
744.519580,0.589976
744.821120,0.590419
745.122620,0.592570
745.424080,0.580529
745.725500,0.587206
746.026880,0.592365
746.328220,0.595561
746.629520,0.579169
746.930780,0.598039
747.232000,0.589209
747.533180,0.602807
747.834320,0.595253
748.135420,0.599130
748.436480,0.612601
748.737500,0.592341
749.038480,0.602321
749.339420,0.607343
749.640320,0.604651
749.941180,0.610244
750.242000,0.601759
750.542780,0.613524
750.843520,0.623959
751.144220,0.607692
751.444880,0.613824
751.745500,0.607143
752.046080,0.615138
752.346620,0.610180
752.647120,0.613325
752.947580,0.614489
753.248000,0.618311
753.548380,0.620690
753.848720,0.623954
754.149020,0.612508
754.449280,0.615890
754.749500,0.615793
755.049680,0.623333
755.349820,0.628419
755.649920,0.638467
755.949980,0.628401
756.250000,0.630506
756.549980,0.621122
756.849920,0.626785
757.149820,0.609448
757.449680,0.626403
757.749500,0.638037
758.049280,0.634812
758.349020,0.625869
758.648720,0.641132
758.948380,0.633677
759.248000,0.644205
759.547580,0.644923
759.847120,0.643694
760.146620,0.635995
760.446080,0.632392
760.745500,0.650350
761.044880,0.651989
761.344220,0.650748
761.643520,0.646186
761.942780,0.641008
762.242000,0.649222
762.541180,0.651408
762.840320,0.639747
763.139420,0.658931
763.438480,0.654819
763.737500,0.652653
764.036480,0.658980
764.335420,0.656316
764.634320,0.646570
764.933180,0.644521
765.232000,0.659264
765.530780,0.656140
765.829520,0.676224
766.128220,0.665275
766.426880,0.667377
766.725500,0.655929
767.024080,0.646776
767.322620,0.654219
767.621120,0.659214
767.919580,0.660068
768.218000,0.667579
768.516380,0.668695
768.814720,0.661180
769.113020,0.676085
769.411280,0.670580
769.709500,0.682003
770.007680,0.676892
770.305820,0.680189
770.603920,0.671833
770.901980,0.685109
771.200000,0.675951
771.497980,0.659517
771.795920,0.674247
772.093820,0.679144
772.391680,0.681608
772.689500,0.681757
772.987280,0.691582
773.285020,0.684211
773.582720,0.679054
773.880380,0.694578
774.178000,0.684390
774.475580,0.684528
774.773120,0.688086
775.070620,0.685598
775.368080,0.686707
775.665500,0.678308
775.962880,0.689793
776.260220,0.703230
776.557520,0.693129
776.854780,0.707235
777.152000,0.681698
777.449180,0.710722
777.746320,0.677419
778.043420,0.695771
778.340480,0.697564
778.637500,0.693036
778.934480,0.681910
779.231420,0.690638
779.528320,0.699399
779.825180,0.683136
780.122000,0.694555
780.418780,0.721614
780.715520,0.701543
781.012220,0.716438
781.308880,0.709263
781.605500,0.707534
781.902080,0.696783
782.198620,0.714969
782.495120,0.711934
782.791580,0.715956
783.088000,0.711525
783.384380,0.707703
783.680720,0.697674
783.977020,0.706813
784.273280,0.711189
784.569500,0.727463
784.865680,0.731572
785.161820,0.713889
785.457920,0.715870
785.753980,0.717376
786.050000,0.716160
786.345980,0.703472
786.641920,0.712006
786.937820,0.726496
787.233680,0.709116
787.529500,0.711512
787.825280,0.720255
788.121020,0.730170
788.416720,0.724065
788.712380,0.715092
789.008000,0.708924
789.303580,0.719435
789.599120,0.730182
789.894620,0.740072
790.190080,0.724438
790.485500,0.722822
790.780880,0.727599
791.076220,0.719336
791.371520,0.733479
791.666780,0.741818
791.962000,0.734019
792.257180,0.737921
792.552320,0.728064
792.847420,0.721252
793.142480,0.721612
793.437500,0.719247
793.732480,0.730797
794.027420,0.738872
794.322320,0.735272
794.617180,0.744428
794.912000,0.742942
795.206780,0.734526
795.501520,0.748289
795.796220,0.731852
796.090880,0.745290
796.385500,0.745877
796.680080,0.741960
796.974620,0.738772
797.269120,0.744890
797.563580,0.741221
797.858000,0.750949
798.152380,0.753287
798.446720,0.740000
798.741020,0.744222
799.035280,0.733696
799.329500,0.735951
799.623680,0.754264
