399.985280,0.283784
400.329500,0.216216
400.673680,0.329114
401.017820,0.294118
401.361920,0.287879
401.705980,0.304878
402.050000,0.350649
402.393980,0.305882
402.737920,0.337079
403.081820,0.340206
403.425680,0.313953
403.769500,0.229167
404.113280,0.229885
404.457020,0.303371
404.800720,0.217391
405.144380,0.323232
405.488000,0.387097
405.831580,0.309278
406.175120,0.308511
406.518620,0.290000
406.862080,0.350515
407.205500,0.343750
407.548880,0.316327
407.892220,0.343137
408.235520,0.297872
408.578780,0.323810
408.922000,0.221154
409.265180,0.353535
409.608320,0.323232
409.951420,0.329897
410.294480,0.362745
410.637500,0.315217
410.980480,0.382353
411.323420,0.306122
411.666320,0.385321
412.009180,0.345455
412.352000,0.297030
412.694780,0.330275
413.037520,0.357798
413.380220,0.315315
413.722880,0.401786
414.065500,0.378378
414.408080,0.309735
414.750620,0.415929
415.093120,0.347107
415.435580,0.394958
415.778000,0.371212
416.120380,0.344538
416.462720,0.349206
416.805020,0.398496
417.147280,0.320896
417.489500,0.364286
417.831680,0.335616
418.173820,0.347518
418.515920,0.377622
418.857980,0.354430
419.200000,0.378205
419.541980,0.360947
419.883920,0.337079
420.225820,0.364162
420.567680,0.396648
420.909500,0.404372
421.251280,0.421875
421.593020,0.403061
421.934720,0.368687
422.276380,0.389744
422.618000,0.411765
422.959580,0.411765
423.301120,0.374429
423.642620,0.365217
423.984080,0.418605
424.325500,0.381166
424.666880,0.396552
425.008220,0.399160
425.349520,0.415254
425.690780,0.384615
426.032000,0.384314
426.373180,0.373444
426.714320,0.382812
427.055420,0.405405
427.396480,0.400749
427.737500,0.407115
428.078480,0.387352
428.419420,0.393574
428.760320,0.417625
429.101180,0.433071
429.442000,0.398467
429.782780,0.411538
430.123520,0.407843
430.464220,0.413284
430.804880,0.459770
431.145500,0.396364
431.486080,0.411985
431.826620,0.418605
432.167120,0.382353
432.507580,0.431159
432.848000,0.413669
433.188380,0.436823
433.528720,0.411321
433.869020,0.421429
434.209280,0.403509
434.549500,0.414634
434.889680,0.444444
435.229820,0.409556
435.569920,0.418685
435.909980,0.420712
436.250000,0.427119
436.589980,0.411765
436.929920,0.434921
437.269820,0.404389
437.609680,0.434911
437.949500,0.418675
438.289280,0.430595
438.629020,0.418605
438.968720,0.421512
439.308380,0.406504
439.648000,0.410959
439.987580,0.433862
440.327120,0.416000
440.666620,0.412987
441.006080,0.419437
441.345500,0.442260
441.684880,0.425837
442.024220,0.424318
442.363520,0.426190
442.702780,0.402273
443.042000,0.433921
443.381180,0.426724
443.720320,0.438445
444.059420,0.443277
444.398480,0.418410
444.737500,0.428279
445.076480,0.418651
445.415420,0.433134
445.754320,0.419958
446.093180,0.416514
446.432000,0.421053
446.770780,0.428843
447.109520,0.420956
447.448220,0.422182
447.786880,0.434705
448.125500,0.408621
448.464080,0.426786
448.802620,0.429078
449.141120,0.406574
449.479580,0.416084
449.818000,0.426850
450.156380,0.421405
450.494720,0.408264
450.833020,0.423077
451.171280,0.414384
451.509500,0.447735
451.847680,0.418212
452.185820,0.423408
452.523920,0.415808
452.861980,0.416526
453.200000,0.400332
453.537980,0.410084
453.875920,0.411765
454.213820,0.409247
454.551680,0.400662
454.889500,0.391231
455.227280,0.398577
455.565020,0.413735
455.902720,0.429285
456.240380,0.397671
456.578000,0.411150
456.915580,0.407599
457.253120,0.416118
457.590620,0.410509
457.928080,0.417508
458.265500,0.403716
458.602880,0.405844
458.940220,0.385787
459.277520,0.398400
459.614780,0.405892
459.952000,0.409938
460.289180,0.392405
460.626320,0.393701
460.963420,0.397415
461.300480,0.406728
461.637500,0.391371
461.974480,0.400612
462.311420,0.388972
462.648320,0.380673
462.985180,0.380201
463.322000,0.397321
463.658780,0.372928
463.995520,0.382393
464.332220,0.394737
464.668880,0.391129
465.005500,0.390080
465.342080,0.382843
465.678620,0.375154
466.015120,0.390686
466.351580,0.386852
466.688000,0.383678
467.024380,0.376671
467.360720,0.369318
467.697020,0.367882
468.033280,0.372222
468.369500,0.379691
468.705680,0.363021
469.041820,0.376042
469.377920,0.357918
469.713980,0.371782
470.050000,0.371014
470.385980,0.363992
470.721920,0.364349
471.057820,0.367446
471.393680,0.348924
471.729500,0.361446
472.065280,0.360465
472.401020,0.354610
472.736720,0.351658
473.072380,0.345601
473.408000,0.343777
473.743580,0.333910
474.079120,0.351421
474.414620,0.348601
474.750080,0.348251
475.085500,0.347862
475.420880,0.335554
475.756220,0.348324
476.091520,0.348679
476.426780,0.335761
476.762000,0.328238
477.097180,0.335200
477.432320,0.336026
477.767420,0.334150
478.102480,0.329134
478.437500,0.336617
478.772480,0.324665
479.107420,0.322213
479.442320,0.334133
479.777180,0.329356
480.112000,0.312789
480.446780,0.308652
480.781520,0.309984
481.116220,0.316896
481.450880,0.310695
481.785500,0.314082
482.120080,0.320533
482.454620,0.311577
482.789120,0.313694
483.123580,0.306854
483.458000,0.306171
483.792380,0.308307
484.126720,0.298069
484.461020,0.298205
484.795280,0.301465
485.129500,0.307872
485.463680,0.300775
485.797820,0.300933
486.131920,0.288447
486.465980,0.294208
486.800000,0.290076
487.133980,0.289275
487.467920,0.290742
487.801820,0.288330
488.135680,0.294920
488.469500,0.280635
488.803280,0.279346
489.137020,0.276923
489.470720,0.275223
489.804380,0.284336
490.138000,0.276706
490.471580,0.288136
490.805120,0.273052
491.138620,0.274343
491.472080,0.270671
491.805500,0.268480
492.138880,0.277276
492.472220,0.268512
492.805520,0.268855
493.138780,0.264645
493.472000,0.267559
493.805180,0.269441
494.138320,0.262842
494.471420,0.259115
494.804480,0.248383
495.137500,0.261232
495.470480,0.255577
495.803420,0.256927
496.136320,0.262531
496.469180,0.248005
496.802000,0.245110
497.134780,0.248029
497.467520,0.257492
497.800220,0.241156
498.132880,0.242798
498.465500,0.242178
498.798080,0.243151
499.130620,0.245929
499.463120,0.240314
499.795580,0.235424
500.128000,0.238147
500.460380,0.238428
500.792720,0.230647
501.125020,0.226484
501.457280,0.229243
501.789500,0.224690
502.121680,0.233281
502.453820,0.220296
502.785920,0.223112
503.117980,0.216389
503.450000,0.230537
503.781980,0.216741
504.113920,0.220009
504.445820,0.213418
504.777680,0.214118
505.109500,0.219712
505.441280,0.212715
505.773020,0.212776
506.104720,0.211022
506.436380,0.208235
506.768000,0.212348
507.099580,0.209153
507.431120,0.211241
507.762620,0.210526
508.094080,0.199180
508.425500,0.204482
508.756880,0.206219
509.088220,0.204692
509.419520,0.207169
509.750780,0.197751
510.082000,0.199160
510.413180,0.198065
510.744320,0.202945
511.075420,0.196609
511.406480,0.197461
511.737500,0.187963
512.068480,0.191729
512.399420,0.194366
512.730320,0.180600
513.061180,0.184110
513.392000,0.191197
513.722780,0.193084
514.053520,0.186871
514.384220,0.183159
514.714880,0.181427
515.045500,0.179598
515.376080,0.180630
515.706620,0.179737
516.037120,0.176471
516.367580,0.182849
516.698000,0.175490
517.028380,0.181728
517.358720,0.173827
517.689020,0.181009
518.019280,0.171099
518.349500,0.171313
518.679680,0.169107
519.009820,0.171559
519.339920,0.173347
519.669980,0.172777
520.000000,0.168110
520.329980,0.172110
520.659920,0.168200
520.989820,0.166151
521.319680,0.165638
521.649500,0.166067
521.979280,0.169102
522.309020,0.160788
522.638720,0.162314
522.968380,0.165460
523.298000,0.161795
523.627580,0.160890
523.957120,0.163117
524.286620,0.165711
524.616080,0.160290
524.945500,0.163824
525.274880,0.160595
525.604220,0.164596
525.933520,0.157757
526.262780,0.153573
526.592000,0.158803
526.921180,0.160995
527.250320,0.157788
527.579420,0.160687
527.908480,0.158543
528.237500,0.159881
528.566480,0.156687
528.895420,0.155742
529.224320,0.154037
529.553180,0.156627
529.882000,0.162530
530.210780,0.155888
530.539520,0.151486
530.868220,0.152705
531.196880,0.151935
531.525500,0.158838
531.854080,0.154784
532.182620,0.151798
532.511120,0.155452
532.839580,0.153358
533.168000,0.154057
533.496380,0.157534
533.824720,0.153881
534.153020,0.150245
534.481280,0.150220
534.809500,0.156992
535.137680,0.155382
535.465820,0.149914
535.793920,0.148900
536.121980,0.153168
536.450000,0.150951
536.777980,0.152912
537.105920,0.153591
537.433820,0.151391
537.761680,0.151837
538.089500,0.154593
538.417280,0.151214
538.745020,0.151743
539.072720,0.149551
539.400380,0.154623
539.728000,0.153728
540.055580,0.149064
540.383120,0.153388
540.710620,0.150670
541.038080,0.153818
541.365500,0.152941
541.692880,0.151526
542.020220,0.154732
542.347520,0.154343
542.674780,0.151023
543.002000,0.150455
543.329180,0.154683
543.656320,0.155767
543.983420,0.150769
544.310480,0.151206
544.637500,0.150461
544.964480,0.152086
545.291420,0.158524
545.618320,0.153386
545.945180,0.154252
546.272000,0.157929
546.598780,0.155031
546.925520,0.153643
547.252220,0.153186
547.578880,0.157054
547.905500,0.159477
548.232080,0.156595
548.558620,0.157501
548.885120,0.159307
549.211580,0.155256
549.538000,0.156939
549.864380,0.157878
550.190720,0.160801
550.517020,0.160365
550.843280,0.166450
551.169500,0.158397
551.495680,0.160315
551.821820,0.163619
552.147920,0.156799
552.473980,0.158051
552.800000,0.165795
553.125980,0.165684
553.451920,0.168879
553.777820,0.165556
554.103680,0.167846
554.429500,0.161031
554.755280,0.168892
555.081020,0.164439
555.406720,0.169997
555.732380,0.166045
556.058000,0.164969
556.383580,0.167408
556.709120,0.168504
557.034620,0.169824
557.360080,0.172712
557.685500,0.172199
558.010880,0.170884
558.336220,0.173638
558.661520,0.174761
558.986780,0.180369
559.312000,0.178419
559.637180,0.179174
559.962320,0.182983
560.287420,0.184767
560.612480,0.180122
560.937500,0.181718
561.262480,0.177786
561.587420,0.182082
561.912320,0.177598
562.237180,0.184308
562.562000,0.184063
562.886780,0.186176
563.211520,0.184426
563.536220,0.186271
563.860880,0.179932
564.185500,0.186116
564.510080,0.188488
564.834620,0.192780
565.159120,0.190602
565.483580,0.184341
565.808000,0.196746
566.132380,0.194703
566.456720,0.196523
566.781020,0.196549
567.105280,0.197353
567.429500,0.198407
567.753680,0.203682
568.077820,0.193274
568.401920,0.202827
568.725980,0.204554
569.050000,0.205703
569.373980,0.207461
569.697920,0.205157
570.021820,0.205243
570.345680,0.211634
570.669500,0.211751
570.993280,0.212625
571.317020,0.210449
571.640720,0.213412
571.964380,0.216407
572.288000,0.217730
572.611580,0.215650
572.935120,0.221848
573.258620,0.223635
573.582080,0.219821
573.905500,0.221519
574.228880,0.223088
574.552220,0.222426
574.875520,0.224497
575.198780,0.225876
575.522000,0.222874
575.845180,0.223854
576.168320,0.231405
576.491420,0.238009
576.814480,0.230018
577.137500,0.239538
577.460480,0.234143
577.783420,0.235441
578.106320,0.234687
578.429180,0.238954
578.752000,0.238625
579.074780,0.245786
579.397520,0.241123
579.720220,0.238739
580.042880,0.247109
580.365500,0.244209
580.688080,0.247626
581.010620,0.249747
581.333120,0.248497
581.655580,0.254079
581.978000,0.257732
582.300380,0.247322
582.622720,0.256098
582.945020,0.256827
583.267280,0.257896
583.589500,0.260995
583.911680,0.261670
584.233820,0.259994
584.555920,0.266625
584.877980,0.265704
585.200000,0.270411
585.521980,0.265369
585.843920,0.269372
586.165820,0.270871
586.487680,0.274752
586.809500,0.274827
587.131280,0.274475
587.453020,0.286310
587.774720,0.278533
588.096380,0.280922
588.418000,0.280656
588.739580,0.286002
589.061120,0.283784
589.382620,0.283381
589.704080,0.287237
590.025500,0.295091
590.346880,0.292861
590.668220,0.290675
590.989520,0.293123
591.310780,0.293565
591.632000,0.296448
591.953180,0.294215
592.274320,0.299208
592.595420,0.302263
592.916480,0.301005
593.237500,0.306925
593.558480,0.305623
593.879420,0.304559
594.200320,0.308063
594.521180,0.307835
594.842000,0.315153
595.162780,0.313301
595.483520,0.314278
595.804220,0.321697
596.124880,0.320277
596.445500,0.312811
596.766080,0.326701
597.086620,0.321921
597.407120,0.318852
597.727580,0.327499
598.048000,0.323195
598.368380,0.324040
598.688720,0.325295
599.009020,0.329618
599.329280,0.336083
599.649500,0.331484
599.969680,0.338942
600.289820,0.336806
600.609920,0.339834
600.929980,0.340727
601.250000,0.340811
601.569980,0.342155
601.889920,0.341085
602.209820,0.345779
602.529680,0.350179
602.849500,0.351882
603.169280,0.347754
603.489020,0.354830
603.808720,0.352441
604.128380,0.359272
604.448000,0.353315
604.767580,0.350279
605.087120,0.352632
605.406620,0.355723
605.726080,0.362133
606.045500,0.353023
606.364880,0.364899
606.684220,0.370074
607.003520,0.369839
607.322780,0.369528
607.642000,0.369041
607.961180,0.370338
608.280320,0.375000
608.599420,0.376883
608.918480,0.373900
609.237500,0.374707
609.556480,0.381178
609.875420,0.381867
610.194320,0.378506
610.513180,0.382658
610.832000,0.382370
611.150780,0.386002
611.469520,0.387632
611.788220,0.383011
612.106880,0.389626
612.425500,0.390987
612.744080,0.395814
613.062620,0.392661
613.381120,0.392444
613.699580,0.400981
614.018000,0.399877
614.336380,0.399445
614.654720,0.397519
614.973020,0.401419
615.291280,0.400682
615.609500,0.409826
615.927680,0.406057
616.245820,0.409091
616.563920,0.411253
616.881980,0.413159
617.200000,0.419285
617.517980,0.408214
617.835920,0.415036
618.153820,0.411253
618.471680,0.418605
618.789500,0.420076
619.107280,0.427230
619.425020,0.423723
619.742720,0.422473
620.060380,0.420871
620.378000,0.419446
620.695580,0.428480
621.013120,0.431181
621.330620,0.428930
621.648080,0.421136
621.965500,0.435696
622.282880,0.432219
622.600220,0.438092
622.917520,0.435413
623.234780,0.445837
623.552000,0.445894
623.869180,0.444374
624.186320,0.450493
624.503420,0.446708
624.820480,0.447377
625.137500,0.450584
625.454480,0.449515
625.771420,0.455549
626.088320,0.447037
626.405180,0.458619
626.722000,0.465809
627.038780,0.454574
627.355520,0.460000
627.672220,0.459098
627.988880,0.454743
628.305500,0.464007
628.622080,0.472429
628.938620,0.467890
629.255120,0.460485
629.571580,0.463684
629.888000,0.469469
630.204380,0.470390
630.520720,0.475015
630.837020,0.469319
631.153280,0.476918
631.469500,0.485749
631.785680,0.481615
632.101820,0.478589
632.417920,0.480179
632.733980,0.477491
633.050000,0.487871
633.365980,0.489627
633.681920,0.483294
633.997820,0.491632
634.313680,0.489826
634.629500,0.488352
634.945280,0.497654
635.261020,0.494570
635.576720,0.495596
635.892380,0.494046
636.208000,0.495061
636.523580,0.497808
636.839120,0.503764
637.154620,0.500290
637.470080,0.506456
637.785500,0.509965
638.100880,0.513467
638.416220,0.516825
638.731520,0.506304
639.046780,0.512962
639.362000,0.511468
639.677180,0.507424
639.992320,0.508881
640.307420,0.511661
640.622480,0.513302
640.937500,0.514008
641.252480,0.520525
641.567420,0.527707
641.882320,0.517539
642.197180,0.527793
642.512000,0.520291
642.826780,0.525936
643.141520,0.525424
643.456220,0.528500
643.770880,0.530680
644.085500,0.531582
644.400080,0.534831
644.714620,0.531773
645.029120,0.534653
645.343580,0.534833
645.658000,0.538995
645.972380,0.547821
646.286720,0.543472
646.601020,0.539994
646.915280,0.535783
647.229500,0.541484
647.543680,0.536040
647.857820,0.537848
648.171920,0.543679
648.485980,0.541792
648.800000,0.541196
649.113980,0.545455
649.427920,0.546741
649.741820,0.545480
650.055680,0.553209
650.369500,0.558857
650.683280,0.551332
650.997020,0.560506
651.310720,0.558613
651.624380,0.548077
651.938000,0.556787
652.251580,0.560256
652.565120,0.555338
652.878620,0.561374
653.192080,0.563202
653.505500,0.559046
653.818880,0.567813
654.132220,0.570493
654.445520,0.567215
654.758780,0.567705
655.072000,0.563037
655.385180,0.566334
655.698320,0.561875
656.011420,0.565778
656.324480,0.569805
656.637500,0.568076
656.950480,0.574281
657.263420,0.573751
657.576320,0.578120
657.889180,0.582129
658.202000,0.579408
658.514780,0.578744
658.827520,0.577431
659.140220,0.574168
659.452880,0.583510
659.765500,0.580373
660.078080,0.569967
660.390620,0.575924
660.703120,0.579285
661.015580,0.578528
661.328000,0.588476
661.640380,0.591799
661.952720,0.582685
662.265020,0.589162
662.577280,0.591603
662.889500,0.588773
663.201680,0.586471
663.513820,0.589257
663.825920,0.586295
664.137980,0.606012
664.450000,0.589194
664.761980,0.592799
665.073920,0.598182
665.385820,0.595877
665.697680,0.603306
666.009500,0.605254
666.321280,0.603380
666.633020,0.596410
666.944720,0.595214
667.256380,0.594886
667.568000,0.600204
667.879580,0.599660
668.191120,0.603022
668.502620,0.595344
668.814080,0.607018
669.125500,0.600068
669.436880,0.615491
669.748220,0.601938
670.059520,0.619748
670.370780,0.608212
670.682000,0.610265
670.993180,0.609937
671.304320,0.602321
671.615420,0.609375
671.926480,0.615685
672.237500,0.610932
672.548480,0.621363
672.859420,0.613295
673.170320,0.616975
673.481180,0.627082
673.792000,0.609809
674.102780,0.607181
674.413520,0.625592
674.724220,0.618875
675.034880,0.628163
675.345500,0.619621
675.656080,0.621416
675.966620,0.620953
676.277120,0.619187
676.587580,0.615979
676.898000,0.617021
677.208380,0.620702
677.518720,0.611233
677.829020,0.625647
678.139280,0.624907
678.449500,0.624582
678.759680,0.635069
679.069820,0.618587
679.379920,0.628442
679.689980,0.634980
680.000000,0.616449
680.309980,0.617669
680.619920,0.635365
680.929820,0.634192
681.239680,0.627400
681.549500,0.621111
681.859280,0.628454
682.169020,0.632973
682.478720,0.638369
682.788380,0.633813
683.098000,0.637996
683.407580,0.640525
683.717120,0.631381
684.026620,0.624247
684.336080,0.645320
684.645500,0.636738
684.954880,0.632036
685.264220,0.639864
685.573520,0.645984
685.882780,0.643652
686.192000,0.640707
686.501180,0.639425
686.810320,0.645273
687.119420,0.657165
687.428480,0.650589
687.737500,0.649271
688.046480,0.640721
688.355420,0.643531
688.664320,0.639633
688.973180,0.641654
689.282000,0.648148
689.590780,0.646089
689.899520,0.643752
690.208220,0.649083
690.516880,0.647194
690.825500,0.646038
691.134080,0.643888
691.442620,0.637576
691.751120,0.654152
692.059580,0.648070
692.368000,0.646346
692.676380,0.651145
692.984720,0.642748
693.293020,0.648556
693.601280,0.645937
693.909500,0.643965
694.217680,0.647753
694.525820,0.653465
694.833920,0.657764
695.141980,0.647898
695.450000,0.655344
695.757980,0.656990
696.065920,0.657087
696.373820,0.647806
696.681680,0.647488
696.989500,0.658433
697.297280,0.650720
697.605020,0.676190
697.912720,0.648347
698.220380,0.656434
698.528000,0.658623
698.835580,0.657448
699.143120,0.650429
699.450620,0.657518
699.758080,0.645882
700.065500,0.653631
700.372880,0.664400
700.680220,0.662545
700.987520,0.663095
701.294780,0.665045
701.602000,0.656101
701.909180,0.678855
702.216320,0.665233
702.523420,0.667324
702.830480,0.664158
703.137500,0.652377
703.444480,0.662722
703.751420,0.661144
704.058320,0.666799
704.365180,0.661672
704.672000,0.668515
704.978780,0.666797
705.285520,0.658451
705.592220,0.660392
705.898880,0.668637
706.205500,0.663537
706.512080,0.661927
706.818620,0.670279
707.125120,0.664615
707.431580,0.663540
707.738000,0.673828
708.044380,0.656889
708.350720,0.660680
708.657020,0.670574
708.963280,0.671972
709.269500,0.666928
709.575680,0.672692
709.881820,0.666667
710.187920,0.662646
710.493980,0.671839
710.800000,0.665523
711.105980,0.666416
711.411920,0.673236
711.717820,0.665107
712.023680,0.659541
712.329500,0.672713
712.635280,0.675969
712.941020,0.673753
713.246720,0.670751
713.552380,0.673077
713.858000,0.671265
714.163580,0.666140
714.469120,0.670965
714.774620,0.669167
715.080080,0.668237
715.385500,0.678257
715.690880,0.674556
715.996220,0.675515
716.301520,0.666798
716.606780,0.671777
716.912000,0.678918
717.217180,0.673583
717.522320,0.664016
717.827420,0.677380
718.132480,0.667603
718.437500,0.669792
718.742480,0.668548
719.047420,0.669498
719.352320,0.672063
719.657180,0.673344
719.962000,0.674938
720.266780,0.680100
720.571520,0.671085
720.876220,0.671031
721.180880,0.677258
721.485500,0.669453
721.790080,0.670488
722.094620,0.677959
722.399120,0.674278
722.703580,0.672953
723.008000,0.673997
723.312380,0.665949
723.616720,0.665533
723.921020,0.676916
724.225280,0.660122
724.529500,0.665061
724.833680,0.682384
725.137820,0.662555
725.441920,0.660276
725.745980,0.669351
726.050000,0.663058
726.353980,0.660207
726.657920,0.666217
726.961820,0.680822
727.265680,0.681461
727.569500,0.667733
727.873280,0.668360
728.177020,0.671119
728.480720,0.662500
728.784380,0.678253
729.088000,0.660386
729.391580,0.669825
729.695120,0.671305
729.998620,0.673040
730.302080,0.669390
730.605500,0.663755
730.908880,0.667320
731.212220,0.671890
731.515520,0.662116
731.818780,0.650971
732.122000,0.666339
732.425180,0.652538
732.728320,0.659395
733.031420,0.659649
733.334480,0.681633
733.637500,0.658770
733.940480,0.667349
734.243420,0.664118
734.546320,0.673755
734.849180,0.663740
735.152000,0.657676
735.454780,0.664773
735.757520,0.654373
736.060220,0.670879
736.362880,0.652836
736.665500,0.651697
736.968080,0.651800
737.270620,0.663038
737.573120,0.658843
737.875580,0.683342
738.178000,0.655961
738.480380,0.661081
738.782720,0.657034
739.085020,0.658040
739.387280,0.664080
739.689500,0.667610
739.991680,0.663672
740.293820,0.669431
740.595920,0.675570
740.897980,0.665726
741.200000,0.658441
741.501980,0.663610
741.803920,0.662162
742.105820,0.656514
742.407680,0.663366
742.709500,0.647727
743.011280,0.659437
743.313020,0.664348
743.614720,0.652931
743.916380,0.648837
744.218000,0.653341
744.519580,0.661232
744.821120,0.671856
745.122620,0.652487
745.424080,0.655649
745.725500,0.662643
746.026880,0.670567
746.328220,0.660296
746.629520,0.649609
746.930780,0.662377
747.232000,0.655426
747.533180,0.649786
747.834320,0.662812
748.135420,0.653201
748.436480,0.658141
748.737500,0.659049
749.038480,0.642639
749.339420,0.658370
749.640320,0.654934
749.941180,0.652092
750.242000,0.652010
750.542780,0.640819
750.843520,0.650865
751.144220,0.647436
751.444880,0.647432
751.745500,0.648701
752.046080,0.656831
752.346620,0.646907
752.647120,0.632920
752.947580,0.631307
753.248000,0.653772
753.548380,0.648016
753.848720,0.644559
754.149020,0.628627
754.449280,0.643467
754.749500,0.643663
755.049680,0.648667
755.349820,0.649099
755.649920,0.630535
755.949980,0.646317
756.250000,0.651545
756.549980,0.629703
756.849920,0.659415
757.149820,0.628077
757.449680,0.653465
757.749500,0.641445
758.049280,0.644369
758.349020,0.639082
758.648720,0.653554
758.948380,0.645361
759.248000,0.636792
759.547580,0.643578
759.847120,0.636802
760.146620,0.648173
760.446080,0.637769
760.745500,0.634965
761.044880,0.644176
761.344220,0.628653
761.643520,0.641949
761.942780,0.645206
762.242000,0.642857
762.541180,0.630986
762.840320,0.646770
763.139420,0.635724
763.438480,0.626794
763.737500,0.635424
764.036480,0.633823
764.335420,0.633733
764.634320,0.625087
764.933180,0.630137
765.232000,0.632894
765.530780,0.627368
765.829520,0.639860
766.128220,0.631872
766.426880,0.636105
766.725500,0.625771
767.024080,0.628258
767.322620,0.633472
767.621120,0.626694
767.919580,0.638225
768.218000,0.638167
768.516380,0.634888
768.814720,0.617284
769.113020,0.630600
769.411280,0.630525
769.709500,0.630582
770.007680,0.626449
770.305820,0.630832
770.603920,0.629380
770.901980,0.626366
771.200000,0.613451
771.497980,0.609920
771.795920,0.622074
772.093820,0.606952
772.391680,0.624918
772.689500,0.619595
772.987280,0.631650
773.285020,0.624060
773.582720,0.612838
773.880380,0.632807
774.178000,0.615542
774.475580,0.614200
774.773120,0.613788
775.070620,0.614604
775.368080,0.610554
775.665500,0.604433
775.962880,0.609740
776.260220,0.623822
776.557520,0.616411
776.854780,0.624070
777.152000,0.602122
777.449180,0.621713
777.746320,0.598118
778.043420,0.614598
778.340480,0.616373
778.637500,0.609872
778.934480,0.605245
779.231420,0.603799
779.528320,0.615230
779.825180,0.600132
780.122000,0.600930
780.418780,0.614911
780.715520,0.596244
781.012220,0.618493
781.308880,0.606491
781.605500,0.604110
781.902080,0.602327
782.198620,0.609706
782.495120,0.617284
782.791580,0.605915
783.088000,0.610766
783.384380,0.607290
783.680720,0.598495
783.977020,0.596696
784.273280,0.612587
784.569500,0.606569
784.865680,0.596662
785.161820,0.600694
785.457920,0.604990
785.753980,0.579902
786.050000,0.594613
786.345980,0.596528
786.641920,0.592644
786.937820,0.594017
787.233680,0.587335
787.529500,0.585992
787.825280,0.599150
788.121020,0.590652
788.416720,0.597036
788.712380,0.594499
789.008000,0.594901
789.303580,0.580919
789.599120,0.594182
789.894620,0.590614
790.190080,0.591008
790.485500,0.591793
790.780880,0.584229
791.076220,0.589466
791.371520,0.599855
791.666780,0.592000
791.962000,0.598824
792.257180,0.590776
792.552320,0.583031
792.847420,0.585881
793.142480,0.578022
793.437500,0.578148
793.732480,0.589612
794.027420,0.571958
794.322320,0.585384
794.617180,0.583952
794.912000,0.581724
795.206780,0.583147
795.501520,0.583270
795.796220,0.578519
796.090880,0.577995
796.385500,0.569715
796.680080,0.577412
796.974620,0.575599
797.269120,0.573051
797.563580,0.572519
797.858000,0.574791
798.152380,0.582367
798.446720,0.583077
798.741020,0.574730
799.035280,0.565994
799.329500,0.568129
799.623680,0.593023
