382,NaN
383,1.0000
384,0.6328
385,1.0000
386,0.0000
387,0.0779
388,0.0176
389,0.0000
390,0.0000
391,0.0323
392,0.0819
393,0.0779
394,0.0000
395,0.0000
396,0.0000
397,0.0000
398,0.0365
399,0.0637
400,0.0036
401,0.1656
402,0.0000
403,0.0530
404,0.0470
405,0.0000
406,0.0100
407,0.0000
408,0.0320
409,0.0000
410,0.0618
411,0.0583
412,0.0711
413,0.0554
414,0.0231
415,0.0297
416,0.0069
417,0.0763
418,0.0275
419,0.0000
420,0.0186
421,0.0071
422,0.0000
423,0.0030
424,0.0000
425,0.0000
426,0.0449
427,0.0085
428,0.0049
429,0.0103
430,0.0233
431,0.0000
432,0.0181
433,0.0043
434,0.0000
435,0.0335
436,0.0421
437,0.0194
438,0.0126
439,0.0000
440,0.0363
441,0.0339
442,0.0005
443,0.0281
444,0.0201
445,0.0107
446,0.0031
447,0.0312
448,0.0076
449,0.0210
450,0.0106
451,0.0206
452,0.0137
453,0.0176
454,0.0302
455,0.0236
456,0.0394
457,0.0148
458,0.0051
459,0.0008
460,0.0234
461,0.0363
462,0.0123
463,0.0349
464,0.0139
465,0.0150
466,0.0270
467,0.0200
468,0.0305
469,0.0271
470,0.0207
471,0.0098
472,0.0371
473,0.0359
474,0.0232
475,0.0226
476,0.0255
477,0.0345
478,0.0236
479,0.0346
480,0.0409
481,0.0296
482,0.0257
483,0.0338
484,0.0199
485,0.0349
486,0.0281
487,0.0382
488,0.0338
489,0.0235
490,0.0356
491,0.0294
492,0.0323
493,0.0394
494,0.0359
495,0.0375
496,0.0369
497,0.0334
498,0.0339
499,0.0360
500,0.0320
501,0.0350
502,0.0328
503,0.0282
504,0.0297
505,0.0246
506,0.0292
507,0.0318
508,0.0291
509,0.0309
510,0.0321
511,0.0263
512,0.0253
513,0.0251
514,0.0246
515,0.0257
516,0.0212
517,0.0243
518,0.0205
519,0.0214
520,0.0219
521,0.0186
522,0.0195
523,0.0210
524,0.0221
525,0.0205
526,0.0217
527,0.0222
528,0.0220
529,0.0205
530,0.0197
531,0.0201
532,0.0197
533,0.0189
534,0.0211
535,0.0205
536,0.0200
537,0.0207
538,0.0199
539,0.0199
540,0.0200
541,0.0209
542,0.0193
543,0.0197
544,0.0206
545,0.0202
546,0.0208
547,0.0214
548,0.0204
549,0.0193
550,0.0215
551,0.0190
552,0.0197
553,0.0196
554,0.0208
555,0.0193
556,0.0210
557,0.0208
558,0.0195
559,0.0194
560,0.0186
561,0.0192
562,0.0209
563,0.0198
564,0.0203
565,0.0209
566,0.0197
567,0.0216
568,0.0204
569,0.0208
570,0.0231
571,0.0221
572,0.0217
573,0.0203
574,0.0205
575,0.0195
576,0.0211
577,0.0220
578,0.0208
579,0.0213
580,0.0214
581,0.0207
582,0.0196
583,0.0198
584,0.0196
585,0.0202
586,0.0204
587,0.0208
588,0.0206
589,0.0194
590,0.0212
591,0.0207
592,0.0206
593,0.0192
594,0.0197
595,0.0198
596,0.0196
597,0.0195
598,0.0192
599,0.0198
600,0.0199
601,0.0194
602,0.0198
603,0.0193
604,0.0201
605,0.0191
606,0.0184
607,0.0186
608,0.0193
609,0.0201
610,0.0196
611,0.0196
612,0.0202
613,0.0196
614,0.0186
615,0.0195
616,0.0192
617,0.0190
618,0.0191
619,0.0200
620,0.0192
621,0.0193
622,0.0202
623,0.0201
624,0.0198
625,0.0200
626,0.0197
627,0.0209
628,0.0197
629,0.0202
630,0.0199
631,0.0201
632,0.0192
633,0.0193
634,0.0189
635,0.0202
636,0.0196
637,0.0201
638,0.0191
639,0.0195
640,0.0190
641,0.0199
642,0.0193
643,0.0186
644,0.0196
645,0.0202
646,0.0197
647,0.0197
648,0.0197
649,0.0196
650,0.0189
651,0.0193
652,0.0197
653,0.0192
654,0.0179
655,0.0184
656,0.0183
657,0.0185
658,0.0184
659,0.0180
660,0.0179
661,0.0176
662,0.0178
663,0.0179
664,0.0181
665,0.0181
666,0.0179
667,0.0179
668,0.0175
669,0.0176
670,0.0180
671,0.0175
672,0.0183
673,0.0179
674,0.0174
675,0.0180
676,0.0181
677,0.0177
678,0.0179
679,0.0175
680,0.0176
681,0.0167
682,0.0166
683,0.0187
684,0.0178
685,0.0182
686,0.0168
687,0.0175
688,0.0176
689,0.0180
690,0.0183
691,0.0183
692,0.0176
693,0.0188
694,0.0176
695,0.0182
696,0.0180
697,0.0179
698,0.0177
699,0.0181
700,0.0183
701,0.0183
702,0.0179
703,0.0176
704,0.0173
705,0.0167
706,0.0176
707,0.0178
708,0.0172
709,0.0180
710,0.0174
711,0.0169
712,0.0173
713,0.0180
714,0.0171
715,0.0179
716,0.0178
717,0.0179
718,0.0177
719,0.0168
720,0.0166
721,0.0163
722,0.0154
723,0.0160
724,0.0164
725,0.0161
726,0.0163
727,0.0163
728,0.0152
729,0.0153
730,0.0158
731,0.0160
732,0.0157
733,0.0158
734,0.0159
735,0.0161
736,0.0148
737,0.0152
738,0.0152
739,0.0158
740,0.0143
741,0.0146
742,0.0158
743,0.0153
744,0.0156
745,0.0150
746,0.0151
747,0.0150
748,0.0157
749,0.0155
750,0.0147
751,0.0155
752,0.0154
753,0.0148
754,0.0161
755,0.0158
756,0.0152
757,0.0153
758,0.0148
759,0.0160
760,0.0154
761,0.0153
762,0.0154
763,0.0158
764,0.0159
765,0.0153
766,0.0152
767,0.0148
768,0.0152
769,0.0150
770,0.0137
771,0.0150
772,0.0150
773,0.0142
774,0.0153
775,0.0156
776,0.0168
777,0.0158
778,0.0153
779,0.0152
780,0.0143
781,0.0150
782,0.0150
783,0.0155
784,0.0142
785,0.0146
786,0.0147
787,0.0154
788,0.0155
789,0.0147
790,0.0150
791,0.0146
792,0.0144
793,0.0143
794,0.0143
795,0.0145
796,0.0140
797,0.0162
798,0.0149
799,0.0148
800,0.0149
801,0.0142
802,0.0149
803,0.0152
804,0.0151
805,0.0147
806,0.0148
807,0.0160
808,0.0148
809,0.0167
810,0.0166
811,0.0157
812,0.0161
813,0.0165
814,0.0155
815,0.0166
816,0.0170
817,0.0148
818,0.0168
819,0.0161
820,0.0169
821,0.0171
822,0.0168
823,0.0172
824,0.0153
825,0.0169
826,0.0161
827,0.0148
828,0.0157
829,0.0149
830,0.0157
831,0.0158
832,0.0153
833,0.0157
834,0.0146
835,0.0147
836,0.0154
837,0.0150
838,0.0148
839,0.0142
840,0.0142
841,0.0151
842,0.0155
843,0.0128
844,0.0148
845,0.0133
846,0.0131
847,0.0134
848,0.0128
849,0.0135
850,0.0135
851,0.0136
852,0.0126
853,0.0130
854,0.0138
855,0.0128
856,0.0124
857,0.0142
858,0.0129
859,0.0125
860,0.0115
861,0.0132
862,0.0117
863,0.0142
864,0.0126
865,0.0126
866,0.0131
867,0.0132
868,0.0116
869,0.0122
870,0.0109
871,0.0122
872,0.0127
873,0.0123
874,0.0127
875,0.0114
876,0.0119
877,0.0117
878,0.0114
879,0.0131
880,0.0125
881,0.0132
882,0.0129
883,0.0118
884,0.0118
885,0.0130
886,0.0131
887,0.0141
888,0.0117
889,0.0137
890,0.0149
891,0.0127
892,0.0140
893,0.0152
894,0.0153
895,0.0151
896,0.0155
897,0.0148
898,0.0146
899,0.0158
900,0.0168
901,0.0160
902,0.0144
903,0.0135
904,0.0159
905,0.0158
906,0.0142
907,0.0193
908,0.0176
909,0.0159
910,0.0166
911,0.0148
912,0.0164
913,0.0129
914,0.0164
915,0.0149
916,0.0123
917,0.0147
918,0.0138
919,0.0157
920,0.0147
921,0.0115
922,0.0119
923,0.0105
924,0.0107
925,0.0135
926,0.0096
927,0.0119
928,0.0105
929,0.0092
930,0.0105
931,0.0080
932,0.0089
933,0.0083
934,0.0073
935,0.0068
936,0.0041
937,0.0068
938,0.0049
939,0.0048
940,0.0028
941,0.0047
942,0.0012
943,0.0019
944,0.0024
945,0.0040
946,0.0015
947,0.0084
