382,NaN
383,0.0386
384,1.0000
385,1.0000
386,0.0000
387,0.1526
388,0.1841
389,0.1311
390,0.0000
391,0.0418
392,0.0798
393,0.0681
394,0.0000
395,0.0000
396,0.2038
397,0.0000
398,0.0567
399,0.0000
400,0.0131
401,0.2247
402,0.0000
403,0.0542
404,0.0210
405,0.0000
406,0.0581
407,0.0881
408,0.0421
409,0.0000
410,0.0000
411,0.1411
412,0.1271
413,0.0367
414,0.0350
415,0.0576
416,0.0191
417,0.0802
418,0.0000
419,0.0000
420,0.0352
421,0.0511
422,0.0025
423,0.0349
424,0.0000
425,0.0075
426,0.0510
427,0.0000
428,0.0334
429,0.0092
430,0.0409
431,0.0210
432,0.0272
433,0.0043
434,0.0003
435,0.0197
436,0.0329
437,0.0223
438,0.0416
439,0.0076
440,0.0369
441,0.0321
442,0.0415
443,0.0766
444,0.0396
445,0.0325
446,0.0149
447,0.0471
448,0.0032
449,0.0364
450,0.0341
451,0.0321
452,0.0238
453,0.0359
454,0.0234
455,0.0506
456,0.0323
457,0.0120
458,0.0346
459,0.0200
460,0.0298
461,0.0371
462,0.0195
463,0.0378
464,0.0242
465,0.0128
466,0.0362
467,0.0224
468,0.0339
469,0.0464
470,0.0197
471,0.0304
472,0.0406
473,0.0379
474,0.0278
475,0.0359
476,0.0430
477,0.0514
478,0.0342
479,0.0507
480,0.0436
481,0.0413
482,0.0466
483,0.0386
484,0.0445
485,0.0605
486,0.0461
487,0.0565
488,0.0488
489,0.0434
490,0.0464
491,0.0531
492,0.0430
493,0.0521
494,0.0477
495,0.0499
496,0.0427
497,0.0401
498,0.0485
499,0.0399
500,0.0352
501,0.0371
502,0.0384
503,0.0353
504,0.0396
505,0.0357
506,0.0395
507,0.0400
508,0.0384
509,0.0398
510,0.0398
511,0.0319
512,0.0347
513,0.0364
514,0.0351
515,0.0326
516,0.0322
517,0.0336
518,0.0275
519,0.0290
520,0.0300
521,0.0272
522,0.0262
523,0.0239
524,0.0264
525,0.0232
526,0.0243
527,0.0285
528,0.0241
529,0.0258
530,0.0241
531,0.0243
532,0.0245
533,0.0232
534,0.0261
535,0.0247
536,0.0260
537,0.0259
538,0.0251
539,0.0254
540,0.0268
541,0.0251
542,0.0265
543,0.0269
544,0.0253
545,0.0267
546,0.0281
547,0.0288
548,0.0268
549,0.0244
550,0.0253
551,0.0257
552,0.0253
553,0.0247
554,0.0242
555,0.0234
556,0.0237
557,0.0228
558,0.0236
559,0.0234
560,0.0232
561,0.0230
562,0.0235
563,0.0252
564,0.0241
565,0.0260
566,0.0245
567,0.0259
568,0.0265
569,0.0261
570,0.0273
571,0.0266
572,0.0271
573,0.0272
574,0.0278
575,0.0268
576,0.0274
577,0.0268
578,0.0263
579,0.0286
580,0.0282
581,0.0260
582,0.0265
583,0.0264
584,0.0253
585,0.0256
586,0.0245
587,0.0248
588,0.0247
589,0.0240
590,0.0244
591,0.0228
592,0.0238
593,0.0238
594,0.0230
595,0.0231
596,0.0226
597,0.0220
598,0.0230
599,0.0230
600,0.0223
601,0.0226
602,0.0231
603,0.0232
604,0.0239
605,0.0238
606,0.0236
607,0.0242
608,0.0251
609,0.0249
610,0.0251
611,0.0239
612,0.0257
613,0.0251
614,0.0251
615,0.0256
616,0.0248
617,0.0257
618,0.0256
619,0.0251
620,0.0242
621,0.0234
622,0.0250
623,0.0242
624,0.0247
625,0.0236
626,0.0236
627,0.0235
628,0.0239
629,0.0240
630,0.0232
631,0.0234
632,0.0234
633,0.0227
634,0.0222
635,0.0226
636,0.0228
637,0.0222
638,0.0224
639,0.0225
640,0.0231
641,0.0235
642,0.0228
643,0.0228
644,0.0228
645,0.0228
646,0.0234
647,0.0230
648,0.0241
649,0.0234
650,0.0234
651,0.0233
652,0.0237
653,0.0236
654,0.0231
655,0.0239
656,0.0235
657,0.0232
658,0.0233
659,0.0230
660,0.0233
661,0.0230
662,0.0230
663,0.0236
664,0.0233
665,0.0227
666,0.0220
667,0.0222
668,0.0217
669,0.0225
670,0.0221
671,0.0221
672,0.0210
673,0.0215
674,0.0206
675,0.0213
676,0.0207
677,0.0202
678,0.0201
679,0.0206
680,0.0202
681,0.0195
682,0.0201
683,0.0209
684,0.0198
685,0.0200
686,0.0211
687,0.0201
688,0.0206
689,0.0205
690,0.0209
691,0.0217
692,0.0220
693,0.0214
694,0.0216
695,0.0215
696,0.0223
697,0.0220
698,0.0226
699,0.0231
700,0.0227
701,0.0232
702,0.0233
703,0.0224
704,0.0218
705,0.0231
706,0.0239
707,0.0233
708,0.0226
709,0.0241
710,0.0228
711,0.0232
712,0.0230
713,0.0228
714,0.0225
715,0.0229
716,0.0212
717,0.0222
718,0.0220
719,0.0208
720,0.0212
721,0.0200
722,0.0185
723,0.0204
724,0.0198
725,0.0183
726,0.0183
727,0.0183
728,0.0174
729,0.0181
730,0.0178
731,0.0166
732,0.0182
733,0.0164
734,0.0180
735,0.0175
736,0.0175
737,0.0180
738,0.0179
739,0.0172
740,0.0169
741,0.0173
742,0.0179
743,0.0170
744,0.0180
745,0.0178
746,0.0176
747,0.0193
748,0.0194
749,0.0187
750,0.0187
751,0.0196
752,0.0198
753,0.0197
754,0.0197
755,0.0206
756,0.0200
757,0.0209
758,0.0197
759,0.0206
760,0.0209
761,0.0202
762,0.0202
763,0.0208
764,0.0207
765,0.0207
766,0.0200
767,0.0204
768,0.0205
769,0.0205
770,0.0197
771,0.0206
772,0.0193
773,0.0192
774,0.0195
775,0.0190
776,0.0191
777,0.0181
778,0.0184
779,0.0184
780,0.0176
781,0.0187
782,0.0182
783,0.0167
784,0.0178
785,0.0179
786,0.0175
787,0.0169
788,0.0166
789,0.0169
790,0.0157
791,0.0159
792,0.0164
793,0.0149
794,0.0161
795,0.0165
796,0.0163
797,0.0174
798,0.0160
799,0.0167
800,0.0165
801,0.0167
802,0.0162
803,0.0180
804,0.0183
805,0.0177
806,0.0179
807,0.0181
808,0.0190
809,0.0186
810,0.0195
811,0.0200
812,0.0187
813,0.0189
814,0.0199
815,0.0193
816,0.0202
817,0.0203
818,0.0203
819,0.0214
820,0.0226
821,0.0224
822,0.0220
823,0.0211
824,0.0208
825,0.0228
826,0.0215
827,0.0198
828,0.0202
829,0.0208
830,0.0220
831,0.0209
832,0.0210
833,0.0204
834,0.0202
835,0.0195
836,0.0199
837,0.0199
838,0.0197
839,0.0184
840,0.0183
841,0.0184
842,0.0194
843,0.0162
844,0.0180
845,0.0179
846,0.0161
847,0.0161
848,0.0157
849,0.0161
850,0.0159
851,0.0164
852,0.0158
853,0.0157
854,0.0166
855,0.0143
856,0.0144
857,0.0162
858,0.0140
859,0.0148
860,0.0146
861,0.0146
862,0.0130
863,0.0156
864,0.0129
865,0.0140
866,0.0147
867,0.0136
868,0.0129
869,0.0143
870,0.0136
871,0.0135
872,0.0150
873,0.0138
874,0.0152
875,0.0142
876,0.0136
877,0.0154
878,0.0140
879,0.0152
880,0.0143
881,0.0136
882,0.0136
883,0.0163
884,0.0158
885,0.0167
886,0.0158
887,0.0161
888,0.0165
889,0.0165
890,0.0191
891,0.0174
892,0.0178
893,0.0213
894,0.0201
895,0.0193
896,0.0207
897,0.0206
898,0.0195
899,0.0199
900,0.0226
901,0.0214
902,0.0216
903,0.0237
904,0.0216
905,0.0221
906,0.0204
907,0.0261
908,0.0224
909,0.0234
910,0.0221
911,0.0211
912,0.0225
913,0.0197
914,0.0196
915,0.0200
916,0.0236
917,0.0179
918,0.0182
919,0.0169
920,0.0206
921,0.0163
922,0.0161
923,0.0157
924,0.0170
925,0.0148
926,0.0133
927,0.0128
928,0.0132
929,0.0119
930,0.0114
931,0.0120
932,0.0100
933,0.0085
934,0.0096
935,0.0092
936,0.0060
937,0.0075
938,0.0046
939,0.0040
940,0.0070
941,0.0036
942,0.0031
943,0.0000
944,0.0023
945,0.0044
946,0.0033
947,0.0081
