382,NaN
383,1.0000
384,0.9687
385,0.0000
386,0.0000
387,0.2346
388,0.2967
389,0.2068
390,0.0000
391,0.0956
392,0.0193
393,0.1519
394,0.0302
395,0.0000
396,0.0468
397,0.0000
398,0.0306
399,0.0494
400,0.0000
401,0.1656
402,0.0000
403,0.0656
404,0.0000
405,0.0346
406,0.0807
407,0.0608
408,0.0000
409,0.1026
410,0.0699
411,0.0419
412,0.0491
413,0.0468
414,0.0000
415,0.0887
416,0.0000
417,0.0572
418,0.0269
419,0.0036
420,0.0904
421,0.0000
422,0.0000
423,0.0000
424,0.0210
425,0.0000
426,0.0639
427,0.0000
428,0.0206
429,0.0336
430,0.0282
431,0.0053
432,0.0281
433,0.0164
434,0.0133
435,0.0335
436,0.0109
437,0.0466
438,0.0398
439,0.0172
440,0.0502
441,0.0593
442,0.0161
443,0.0582
444,0.0312
445,0.0481
446,0.0391
447,0.0286
448,0.0190
449,0.0510
450,0.0500
451,0.0297
452,0.0324
453,0.0425
454,0.0385
455,0.0514
456,0.0322
457,0.0385
458,0.0251
459,0.0404
460,0.0271
461,0.0479
462,0.0431
463,0.0455
464,0.0290
465,0.0197
466,0.0376
467,0.0257
468,0.0423
469,0.0435
470,0.0252
471,0.0307
472,0.0477
473,0.0398
474,0.0400
475,0.0352
476,0.0431
477,0.0532
478,0.0561
479,0.0599
480,0.0467
481,0.0491
482,0.0429
483,0.0464
484,0.0350
485,0.0475
486,0.0393
487,0.0481
488,0.0384
489,0.0362
490,0.0504
491,0.0427
492,0.0426
493,0.0513
494,0.0473
495,0.0431
496,0.0467
497,0.0517
498,0.0527
499,0.0462
500,0.0563
501,0.0485
502,0.0502
503,0.0446
504,0.0459
505,0.0418
506,0.0479
507,0.0442
508,0.0403
509,0.0409
510,0.0434
511,0.0320
512,0.0318
513,0.0322
514,0.0321
515,0.0317
516,0.0304
517,0.0308
518,0.0269
519,0.0299
520,0.0308
521,0.0284
522,0.0285
523,0.0282
524,0.0285
525,0.0279
526,0.0294
527,0.0296
528,0.0295
529,0.0305
530,0.0281
531,0.0287
532,0.0286
533,0.0268
534,0.0285
535,0.0267
536,0.0280
537,0.0273
538,0.0261
539,0.0250
540,0.0267
541,0.0260
542,0.0248
543,0.0246
544,0.0238
545,0.0247
546,0.0261
547,0.0253
548,0.0238
549,0.0252
550,0.0258
551,0.0256
552,0.0270
553,0.0257
554,0.0266
555,0.0270
556,0.0272
557,0.0265
558,0.0274
559,0.0284
560,0.0283
561,0.0266
562,0.0278
563,0.0279
564,0.0276
565,0.0269
566,0.0264
567,0.0264
568,0.0265
569,0.0276
570,0.0284
571,0.0281
572,0.0273
573,0.0269
574,0.0268
575,0.0259
576,0.0264
577,0.0266
578,0.0241
579,0.0262
580,0.0268
581,0.0257
582,0.0255
583,0.0261
584,0.0260
585,0.0261
586,0.0272
587,0.0258
588,0.0262
589,0.0251
590,0.0259
591,0.0251
592,0.0256
593,0.0267
594,0.0273
595,0.0252
596,0.0257
597,0.0257
598,0.0243
599,0.0246
600,0.0251
601,0.0259
602,0.0261
603,0.0257
604,0.0249
605,0.0246
606,0.0235
607,0.0248
608,0.0243
609,0.0241
610,0.0232
611,0.0245
612,0.0246
613,0.0247
614,0.0234
615,0.0244
616,0.0237
617,0.0234
618,0.0240
619,0.0246
620,0.0246
621,0.0246
622,0.0237
623,0.0252
624,0.0247
625,0.0250
626,0.0248
627,0.0250
628,0.0252
629,0.0265
630,0.0257
631,0.0256
632,0.0247
633,0.0251
634,0.0254
635,0.0251
636,0.0253
637,0.0266
638,0.0244
639,0.0246
640,0.0257
641,0.0258
642,0.0250
643,0.0250
644,0.0244
645,0.0244
646,0.0237
647,0.0233
648,0.0246
649,0.0229
650,0.0232
651,0.0230
652,0.0232
653,0.0236
654,0.0224
655,0.0225
656,0.0219
657,0.0213
658,0.0221
659,0.0221
660,0.0218
661,0.0214
662,0.0221
663,0.0223
664,0.0222
665,0.0227
666,0.0226
667,0.0218
668,0.0217
669,0.0222
670,0.0230
671,0.0228
672,0.0228
673,0.0226
674,0.0218
675,0.0234
676,0.0229
677,0.0222
678,0.0232
679,0.0223
680,0.0232
681,0.0225
682,0.0226
683,0.0228
684,0.0233
685,0.0221
686,0.0229
687,0.0218
688,0.0226
689,0.0236
690,0.0230
691,0.0226
692,0.0228
693,0.0222
694,0.0231
695,0.0215
696,0.0222
697,0.0227
698,0.0228
699,0.0225
700,0.0216
701,0.0213
702,0.0220
703,0.0227
704,0.0212
705,0.0209
706,0.0213
707,0.0211
708,0.0215
709,0.0217
710,0.0214
711,0.0222
712,0.0217
713,0.0213
714,0.0203
715,0.0221
716,0.0221
717,0.0218
718,0.0215
719,0.0215
720,0.0214
721,0.0198
722,0.0203
723,0.0211
724,0.0207
725,0.0213
726,0.0211
727,0.0210
728,0.0193
729,0.0201
730,0.0205
731,0.0206
732,0.0213
733,0.0207
734,0.0213
735,0.0205
736,0.0201
737,0.0204
738,0.0197
739,0.0196
740,0.0194
741,0.0195
742,0.0197
743,0.0197
744,0.0195
745,0.0198
746,0.0190
747,0.0191
748,0.0194
749,0.0195
750,0.0188
751,0.0197
752,0.0182
753,0.0186
754,0.0181
755,0.0188
756,0.0189
757,0.0195
758,0.0181
759,0.0193
760,0.0191
761,0.0200
762,0.0180
763,0.0189
764,0.0182
765,0.0184
766,0.0176
767,0.0184
768,0.0183
769,0.0187
770,0.0182
771,0.0193
772,0.0185
773,0.0181
774,0.0192
775,0.0196
776,0.0194
777,0.0192
778,0.0190
779,0.0195
780,0.0186
781,0.0190
782,0.0196
783,0.0196
784,0.0185
785,0.0186
786,0.0194
787,0.0201
788,0.0201
789,0.0191
790,0.0193
791,0.0192
792,0.0196
793,0.0195
794,0.0195
795,0.0189
796,0.0192
797,0.0206
798,0.0195
799,0.0199
800,0.0202
801,0.0195
802,0.0197
803,0.0206
804,0.0203
805,0.0201
806,0.0196
807,0.0203
808,0.0203
809,0.0199
810,0.0207
811,0.0200
812,0.0190
813,0.0201
814,0.0207
815,0.0192
816,0.0198
817,0.0203
818,0.0197
819,0.0207
820,0.0209
821,0.0202
822,0.0202
823,0.0191
824,0.0193
825,0.0203
826,0.0192
827,0.0183
828,0.0181
829,0.0178
830,0.0182
831,0.0198
832,0.0184
833,0.0183
834,0.0182
835,0.0179
836,0.0176
837,0.0189
838,0.0174
839,0.0178
840,0.0182
841,0.0170
842,0.0173
843,0.0166
844,0.0187
845,0.0187
846,0.0172
847,0.0172
848,0.0170
849,0.0187
850,0.0182
851,0.0193
852,0.0171
853,0.0175
854,0.0189
855,0.0181
856,0.0174
857,0.0180
858,0.0179
859,0.0166
860,0.0169
861,0.0190
862,0.0178
863,0.0183
864,0.0169
865,0.0176
866,0.0183
867,0.0177
868,0.0171
869,0.0169
870,0.0174
871,0.0162
872,0.0173
873,0.0155
874,0.0163
875,0.0164
876,0.0162
877,0.0150
878,0.0147
879,0.0171
880,0.0167
881,0.0156
882,0.0154
883,0.0169
884,0.0150
885,0.0160
886,0.0170
887,0.0161
888,0.0157
889,0.0175
890,0.0180
891,0.0172
892,0.0173
893,0.0196
894,0.0190
895,0.0177
896,0.0166
897,0.0193
898,0.0180
899,0.0170
900,0.0178
901,0.0199
902,0.0163
903,0.0151
904,0.0205
905,0.0175
906,0.0200
907,0.0222
908,0.0216
909,0.0189
910,0.0207
911,0.0170
912,0.0202
913,0.0172
914,0.0198
915,0.0197
916,0.0201
917,0.0184
918,0.0175
919,0.0176
920,0.0188
921,0.0146
922,0.0160
923,0.0142
924,0.0183
925,0.0162
926,0.0152
927,0.0160
928,0.0123
929,0.0149
930,0.0149
931,0.0117
932,0.0130
933,0.0095
934,0.0133
935,0.0109
936,0.0074
937,0.0079
938,0.0090
939,0.0056
940,0.0053
941,0.0041
942,0.0046
943,0.0048
944,0.0028
945,0.0044
946,0.0008
947,0.0090
