382,NaN
383,1.0000
384,0.1592
385,1.0000
386,0.0000
387,0.2268
388,0.1791
389,0.0000
390,0.0000
391,0.0000
392,0.0909
393,0.2608
394,0.0416
395,0.0000
396,0.0342
397,0.0000
398,0.0032
399,0.0000
400,0.0000
401,0.2446
402,0.0000
403,0.0000
404,0.0172
405,0.0096
406,0.0145
407,0.0000
408,0.0521
409,0.0670
410,0.0489
411,0.0741
412,0.0549
413,0.0660
414,0.0000
415,0.0295
416,0.0000
417,0.0419
418,0.0064
419,0.0164
420,0.0000
421,0.0000
422,0.0116
423,0.0579
424,0.0000
425,0.0500
426,0.0509
427,0.0000
428,0.0261
429,0.0283
430,0.0359
431,0.0262
432,0.0093
433,0.0096
434,0.0063
435,0.0338
436,0.0483
437,0.0478
438,0.0431
439,0.0000
440,0.0312
441,0.0504
442,0.0289
443,0.0698
444,0.0458
445,0.0271
446,0.0298
447,0.0396
448,0.0139
449,0.0336
450,0.0378
451,0.0234
452,0.0216
453,0.0429
454,0.0351
455,0.0310
456,0.0352
457,0.0344
458,0.0291
459,0.0356
460,0.0240
461,0.0370
462,0.0344
463,0.0548
464,0.0218
465,0.0272
466,0.0395
467,0.0320
468,0.0457
469,0.0467
470,0.0446
471,0.0378
472,0.0403
473,0.0301
474,0.0317
475,0.0348
476,0.0359
477,0.0464
478,0.0400
479,0.0475
480,0.0491
481,0.0497
482,0.0456
483,0.0511
484,0.0446
485,0.0574
486,0.0557
487,0.0644
488,0.0523
489,0.0555
490,0.0585
491,0.0594
492,0.0498
493,0.0559
494,0.0499
495,0.0499
496,0.0476
497,0.0425
498,0.0459
499,0.0450
500,0.0441
501,0.0433
502,0.0408
503,0.0414
504,0.0415
505,0.0451
506,0.0477
507,0.0496
508,0.0440
509,0.0461
510,0.0468
511,0.0376
512,0.0430
513,0.0384
514,0.0390
515,0.0371
516,0.0353
517,0.0340
518,0.0302
519,0.0316
520,0.0315
521,0.0272
522,0.0266
523,0.0250
524,0.0255
525,0.0253
526,0.0264
527,0.0287
528,0.0256
529,0.0286
530,0.0263
531,0.0285
532,0.0289
533,0.0295
534,0.0308
535,0.0319
536,0.0310
537,0.0296
538,0.0304
539,0.0299
540,0.0287
541,0.0282
542,0.0293
543,0.0281
544,0.0272
545,0.0250
546,0.0274
547,0.0267
548,0.0249
549,0.0243
550,0.0241
551,0.0245
552,0.0247
553,0.0251
554,0.0247
555,0.0261
556,0.0259
557,0.0270
558,0.0274
559,0.0282
560,0.0283
561,0.0285
562,0.0302
563,0.0299
564,0.0300
565,0.0294
566,0.0276
567,0.0299
568,0.0291
569,0.0303
570,0.0303
571,0.0296
572,0.0277
573,0.0282
574,0.0278
575,0.0260
576,0.0263
577,0.0266
578,0.0246
579,0.0254
580,0.0257
581,0.0245
582,0.0236
583,0.0252
584,0.0253
585,0.0250
586,0.0258
587,0.0256
588,0.0259
589,0.0266
590,0.0266
591,0.0271
592,0.0280
593,0.0277
594,0.0278
595,0.0268
596,0.0272
597,0.0277
598,0.0273
599,0.0282
600,0.0266
601,0.0272
602,0.0277
603,0.0271
604,0.0260
605,0.0261
606,0.0242
607,0.0255
608,0.0248
609,0.0241
610,0.0241
611,0.0242
612,0.0235
613,0.0234
614,0.0227
615,0.0236
616,0.0236
617,0.0229
618,0.0232
619,0.0236
620,0.0248
621,0.0244
622,0.0252
623,0.0255
624,0.0263
625,0.0260
626,0.0268
627,0.0266
628,0.0271
629,0.0273
630,0.0272
631,0.0277
632,0.0261
633,0.0267
634,0.0266
635,0.0271
636,0.0273
637,0.0279
638,0.0259
639,0.0255
640,0.0258
641,0.0261
642,0.0258
643,0.0250
644,0.0245
645,0.0241
646,0.0237
647,0.0236
648,0.0240
649,0.0231
650,0.0233
651,0.0221
652,0.0227
653,0.0229
654,0.0223
655,0.0225
656,0.0218
657,0.0226
658,0.0223
659,0.0221
660,0.0224
661,0.0218
662,0.0239
663,0.0239
664,0.0232
665,0.0240
666,0.0237
667,0.0238
668,0.0244
669,0.0243
670,0.0253
671,0.0260
672,0.0246
673,0.0249
674,0.0242
675,0.0253
676,0.0243
677,0.0237
678,0.0243
679,0.0226
680,0.0239
681,0.0229
682,0.0229
683,0.0228
684,0.0228
685,0.0230
686,0.0227
687,0.0217
688,0.0222
689,0.0228
690,0.0224
691,0.0218
692,0.0217
693,0.0208
694,0.0212
695,0.0199
696,0.0216
697,0.0219
698,0.0215
699,0.0227
700,0.0215
701,0.0216
702,0.0221
703,0.0229
704,0.0213
705,0.0224
706,0.0227
707,0.0228
708,0.0238
709,0.0235
710,0.0221
711,0.0247
712,0.0240
713,0.0238
714,0.0234
715,0.0248
716,0.0244
717,0.0244
718,0.0236
719,0.0231
720,0.0233
721,0.0219
722,0.0221
723,0.0219
724,0.0215
725,0.0221
726,0.0213
727,0.0214
728,0.0209
729,0.0213
730,0.0198
731,0.0202
732,0.0200
733,0.0196
734,0.0193
735,0.0196
736,0.0196
737,0.0184
738,0.0182
739,0.0185
740,0.0178
741,0.0185
742,0.0178
743,0.0185
744,0.0184
745,0.0184
746,0.0178
747,0.0180
748,0.0190
749,0.0182
750,0.0181
751,0.0186
752,0.0192
753,0.0188
754,0.0199
755,0.0206
756,0.0199
757,0.0194
758,0.0202
759,0.0200
760,0.0203
761,0.0209
762,0.0204
763,0.0206
764,0.0209
765,0.0210
766,0.0202
767,0.0206
768,0.0214
769,0.0212
770,0.0205
771,0.0213
772,0.0203
773,0.0201
774,0.0216
775,0.0208
776,0.0213
777,0.0212
778,0.0205
779,0.0215
780,0.0193
781,0.0202
782,0.0192
783,0.0194
784,0.0194
785,0.0201
786,0.0189
787,0.0194
788,0.0196
789,0.0189
790,0.0178
791,0.0173
792,0.0179
793,0.0168
794,0.0184
795,0.0177
796,0.0169
797,0.0181
798,0.0172
799,0.0179
800,0.0189
801,0.0177
802,0.0179
803,0.0191
804,0.0190
805,0.0182
806,0.0187
807,0.0195
808,0.0202
809,0.0186
810,0.0211
811,0.0207
812,0.0204
813,0.0209
814,0.0207
815,0.0200
816,0.0208
817,0.0205
818,0.0210
819,0.0220
820,0.0205
821,0.0224
822,0.0223
823,0.0211
824,0.0219
825,0.0229
826,0.0224
827,0.0213
828,0.0212
829,0.0219
830,0.0211
831,0.0222
832,0.0216
833,0.0207
834,0.0195
835,0.0202
836,0.0210
837,0.0195
838,0.0182
839,0.0205
840,0.0184
841,0.0190
842,0.0198
843,0.0179
844,0.0189
845,0.0188
846,0.0169
847,0.0167
848,0.0180
849,0.0178
850,0.0170
851,0.0183
852,0.0175
853,0.0168
854,0.0186
855,0.0162
856,0.0161
857,0.0166
858,0.0161
859,0.0157
860,0.0155
861,0.0168
862,0.0167
863,0.0171
864,0.0160
865,0.0153
866,0.0162
867,0.0160
868,0.0150
869,0.0152
870,0.0159
871,0.0170
872,0.0155
873,0.0160
874,0.0144
875,0.0159
876,0.0147
877,0.0155
878,0.0145
879,0.0156
880,0.0155
881,0.0151
882,0.0167
883,0.0174
884,0.0169
885,0.0171
886,0.0173
887,0.0173
888,0.0174
889,0.0195
890,0.0193
891,0.0172
892,0.0187
893,0.0223
894,0.0210
895,0.0209
896,0.0206
897,0.0187
898,0.0207
899,0.0205
900,0.0233
901,0.0232
902,0.0211
903,0.0226
904,0.0224
905,0.0233
906,0.0223
907,0.0224
908,0.0235
909,0.0268
910,0.0234
911,0.0202
912,0.0230
913,0.0196
914,0.0213
915,0.0212
916,0.0229
917,0.0189
918,0.0178
919,0.0171
920,0.0190
921,0.0164
922,0.0139
923,0.0160
924,0.0167
925,0.0158
926,0.0144
927,0.0143
928,0.0148
929,0.0146
930,0.0124
931,0.0117
932,0.0106
933,0.0079
934,0.0098
935,0.0097
936,0.0084
937,0.0062
938,0.0066
939,0.0058
940,0.0045
941,0.0020
942,0.0031
943,0.0028
944,0.0031
945,0.0039
946,0.0052
947,0.0078
