382,NaN
383,0.8961
384,1.0000
385,1.0000
386,0.0000
387,0.3119
388,0.3506
389,0.2255
390,0.1539
391,0.0599
392,0.2791
393,0.2875
394,0.0552
395,0.0000
396,0.3025
397,0.0000
398,0.0821
399,0.0887
400,0.1238
401,0.3723
402,0.0156
403,0.2036
404,0.1366
405,0.2119
406,0.1429
407,0.0919
408,0.1406
409,0.1230
410,0.1816
411,0.1643
412,0.1772
413,0.1848
414,0.1859
415,0.1175
416,0.1904
417,0.1923
418,0.1382
419,0.1316
420,0.1529
421,0.1457
422,0.1596
423,0.1640
424,0.1441
425,0.0968
426,0.1602
427,0.0624
428,0.0806
429,0.1054
430,0.1684
431,0.1841
432,0.1503
433,0.1424
434,0.1387
435,0.1825
436,0.1553
437,0.1675
438,0.1877
439,0.1499
440,0.1797
441,0.1528
442,0.1473
443,0.1559
444,0.1266
445,0.1186
446,0.0890
447,0.1201
448,0.1368
449,0.1542
450,0.1395
451,0.1254
452,0.1527
453,0.1681
454,0.1579
455,0.1616
456,0.1585
457,0.1599
458,0.1504
459,0.1542
460,0.1448
461,0.1467
462,0.1439
463,0.1302
464,0.1104
465,0.1146
466,0.1185
467,0.1240
468,0.1360
469,0.1551
470,0.1405
471,0.1409
472,0.1611
473,0.1660
474,0.1731
475,0.1816
476,0.1897
477,0.1983
478,0.1986
479,0.2010
480,0.1902
481,0.1811
482,0.1884
483,0.1869
484,0.1705
485,0.1785
486,0.1723
487,0.1798
488,0.1716
489,0.1737
490,0.1754
491,0.1898
492,0.1967
493,0.2078
494,0.2138
495,0.2139
496,0.2193
497,0.2109
498,0.2120
499,0.2077
500,0.2097
501,0.1955
502,0.1949
503,0.1779
504,0.1681
505,0.1576
506,0.1553
507,0.1487
508,0.1364
509,0.1325
510,0.1217
511,0.1156
512,0.1135
513,0.1175
514,0.1170
515,0.1206
516,0.1149
517,0.1184
518,0.1136
519,0.1177
520,0.1190
521,0.1184
522,0.1182
523,0.1159
524,0.1178
525,0.1102
526,0.1114
527,0.1081
528,0.1041
529,0.0990
530,0.0959
531,0.0930
532,0.0932
533,0.0863
534,0.0840
535,0.0808
536,0.0808
537,0.0794
538,0.0793
539,0.0823
540,0.0804
541,0.0829
542,0.0850
543,0.0861
544,0.0876
545,0.0901
546,0.0938
547,0.0957
548,0.0972
549,0.0974
550,0.0997
551,0.0994
552,0.0985
553,0.0989
554,0.0982
555,0.0957
556,0.0950
557,0.0932
558,0.0903
559,0.0867
560,0.0854
561,0.0828
562,0.0814
563,0.0808
564,0.0781
565,0.0761
566,0.0755
567,0.0756
568,0.0760
569,0.0768
570,0.0799
571,0.0811
572,0.0836
573,0.0842
574,0.0861
575,0.0867
576,0.0904
577,0.0920
578,0.0922
579,0.0951
580,0.0948
581,0.0941
582,0.0946
583,0.0941
584,0.0951
585,0.0924
586,0.0913
587,0.0885
588,0.0860
589,0.0834
590,0.0826
591,0.0797
592,0.0776
593,0.0743
594,0.0748
595,0.0721
596,0.0718
597,0.0702
598,0.0707
599,0.0697
600,0.0703
601,0.0694
602,0.0712
603,0.0712
604,0.0734
605,0.0739
606,0.0753
607,0.0773
608,0.0797
609,0.0807
610,0.0833
611,0.0844
612,0.0860
613,0.0864
614,0.0876
615,0.0880
616,0.0875
617,0.0884
618,0.0890
619,0.0877
620,0.0867
621,0.0862
622,0.0854
623,0.0828
624,0.0837
625,0.0804
626,0.0780
627,0.0778
628,0.0750
629,0.0731
630,0.0738
631,0.0710
632,0.0688
633,0.0683
634,0.0671
635,0.0668
636,0.0675
637,0.0685
638,0.0674
639,0.0691
640,0.0708
641,0.0715
642,0.0725
643,0.0727
644,0.0747
645,0.0766
646,0.0776
647,0.0802
648,0.0807
649,0.0819
650,0.0820
651,0.0831
652,0.0840
653,0.0843
654,0.0844
655,0.0851
656,0.0837
657,0.0832
658,0.0836
659,0.0814
660,0.0807
661,0.0796
662,0.0775
663,0.0769
664,0.0754
665,0.0738
666,0.0723
667,0.0721
668,0.0699
669,0.0692
670,0.0672
671,0.0672
672,0.0638
673,0.0624
674,0.0607
675,0.0618
676,0.0620
677,0.0589
678,0.0602
679,0.0601
680,0.0614
681,0.0616
682,0.0619
683,0.0629
684,0.0651
685,0.0649
686,0.0679
687,0.0672
688,0.0696
689,0.0709
690,0.0719
691,0.0759
692,0.0752
693,0.0756
694,0.0778
695,0.0792
696,0.0801
697,0.0818
698,0.0809
699,0.0811
700,0.0829
701,0.0821
702,0.0828
703,0.0821
704,0.0799
705,0.0799
706,0.0794
707,0.0785
708,0.0768
709,0.0770
710,0.0755
711,0.0745
712,0.0727
713,0.0717
714,0.0696
715,0.0690
716,0.0667
717,0.0658
718,0.0631
719,0.0630
720,0.0613
721,0.0598
722,0.0581
723,0.0580
724,0.0567
725,0.0557
726,0.0561
727,0.0569
728,0.0556
729,0.0557
730,0.0556
731,0.0568
732,0.0579
733,0.0589
734,0.0590
735,0.0604
736,0.0617
737,0.0624
738,0.0630
739,0.0636
740,0.0647
741,0.0657
742,0.0674
743,0.0665
744,0.0685
745,0.0691
746,0.0698
747,0.0702
748,0.0715
749,0.0703
750,0.0715
751,0.0729
752,0.0726
753,0.0732
754,0.0732
755,0.0720
756,0.0713
757,0.0717
758,0.0702
759,0.0709
760,0.0701
761,0.0684
762,0.0683
763,0.0673
764,0.0665
765,0.0661
766,0.0650
767,0.0619
768,0.0613
769,0.0596
770,0.0588
771,0.0593
772,0.0583
773,0.0571
774,0.0587
775,0.0575
776,0.0570
777,0.0558
778,0.0557
779,0.0557
780,0.0542
781,0.0556
782,0.0547
783,0.0571
784,0.0561
785,0.0571
786,0.0560
787,0.0564
788,0.0587
789,0.0578
790,0.0585
791,0.0587
792,0.0608
793,0.0617
794,0.0624
795,0.0639
796,0.0639
797,0.0656
798,0.0655
799,0.0676
800,0.0688
801,0.0694
802,0.0699
803,0.0716
804,0.0743
805,0.0745
806,0.0736
807,0.0750
808,0.0764
809,0.0759
810,0.0793
811,0.0781
812,0.0774
813,0.0782
814,0.0766
815,0.0769
816,0.0774
817,0.0777
818,0.0778
819,0.0757
820,0.0750
821,0.0739
822,0.0729
823,0.0723
824,0.0701
825,0.0690
826,0.0683
827,0.0658
828,0.0666
829,0.0650
830,0.0616
831,0.0611
832,0.0595
833,0.0584
834,0.0585
835,0.0583
836,0.0559
837,0.0535
838,0.0528
839,0.0512
840,0.0498
841,0.0501
842,0.0512
843,0.0499
844,0.0476
845,0.0491
846,0.0487
847,0.0491
848,0.0505
849,0.0505
850,0.0507
851,0.0526
852,0.0520
853,0.0533
854,0.0548
855,0.0538
856,0.0539
857,0.0559
858,0.0549
859,0.0564
860,0.0569
861,0.0592
862,0.0607
863,0.0622
864,0.0608
865,0.0611
866,0.0614
867,0.0624
868,0.0613
869,0.0610
870,0.0633
871,0.0620
872,0.0640
873,0.0627
874,0.0628
875,0.0611
876,0.0629
877,0.0630
878,0.0628
879,0.0655
880,0.0652
881,0.0638
882,0.0657
883,0.0649
884,0.0674
885,0.0675
886,0.0675
887,0.0713
888,0.0689
889,0.0713
890,0.0720
891,0.0706
892,0.0677
893,0.0718
894,0.0738
895,0.0725
896,0.0721
897,0.0702
898,0.0710
899,0.0711
900,0.0698
901,0.0716
902,0.0703
903,0.0696
904,0.0727
905,0.0708
906,0.0688
907,0.0700
908,0.0652
909,0.0680
910,0.0661
911,0.0638
912,0.0631
913,0.0578
914,0.0600
915,0.0580
916,0.0587
917,0.0549
918,0.0519
919,0.0533
920,0.0553
921,0.0477
922,0.0488
923,0.0468
924,0.0475
925,0.0454
926,0.0420
927,0.0442
928,0.0435
929,0.0408
930,0.0419
931,0.0387
932,0.0403
933,0.0390
934,0.0370
935,0.0342
936,0.0300
937,0.0270
938,0.0265
939,0.0216
940,0.0194
941,0.0181
942,0.0182
943,0.0182
944,0.0155
945,0.0157
946,0.0178
947,0.0239
