382,NaN
383,0.3206
384,1.0000
385,1.0000
386,0.0000
387,0.2595
388,0.4081
389,0.3626
390,0.0485
391,0.4070
392,0.3139
393,0.2968
394,0.2962
395,0.1440
396,0.4531
397,0.1907
398,0.1947
399,0.2467
400,0.2607
401,0.3702
402,0.0804
403,0.3682
404,0.2597
405,0.1919
406,0.2210
407,0.2130
408,0.2261
409,0.0702
410,0.1756
411,0.1639
412,0.1703
413,0.1313
414,0.1566
415,0.1831
416,0.1613
417,0.1961
418,0.1862
419,0.1367
420,0.1633
421,0.1076
422,0.0899
423,0.1813
424,0.1254
425,0.0802
426,0.1849
427,0.1517
428,0.1063
429,0.1311
430,0.1304
431,0.1978
432,0.1640
433,0.1495
434,0.1680
435,0.1779
436,0.1691
437,0.1947
438,0.1732
439,0.1963
440,0.1688
441,0.1886
442,0.1813
443,0.1873
444,0.1888
445,0.1674
446,0.1558
447,0.1501
448,0.1326
449,0.1610
450,0.1481
451,0.1261
452,0.1274
453,0.1425
454,0.1444
455,0.1568
456,0.1640
457,0.1607
458,0.1716
459,0.1672
460,0.1621
461,0.1750
462,0.1716
463,0.1876
464,0.1765
465,0.1470
466,0.1759
467,0.1634
468,0.1810
469,0.1709
470,0.1466
471,0.1625
472,0.1602
473,0.1676
474,0.1631
475,0.1705
476,0.1787
477,0.1815
478,0.1915
479,0.1999
480,0.2037
481,0.1992
482,0.2076
483,0.2199
484,0.2174
485,0.2212
486,0.2254
487,0.2258
488,0.2280
489,0.2234
490,0.2180
491,0.2117
492,0.2093
493,0.2098
494,0.2090
495,0.2109
496,0.2033
497,0.1921
498,0.1961
499,0.1851
500,0.1920
501,0.1898
502,0.1877
503,0.1784
504,0.1705
505,0.1705
506,0.1747
507,0.1775
508,0.1762
509,0.1664
510,0.1676
511,0.1549
512,0.1533
513,0.1509
514,0.1493
515,0.1421
516,0.1421
517,0.1352
518,0.1238
519,0.1254
520,0.1239
521,0.1163
522,0.1139
523,0.1078
524,0.1096
525,0.1020
526,0.1023
527,0.1023
528,0.0994
529,0.1011
530,0.0990
531,0.0948
532,0.0984
533,0.0956
534,0.0977
535,0.0965
536,0.0979
537,0.0994
538,0.0987
539,0.0981
540,0.1001
541,0.0995
542,0.0998
543,0.1008
544,0.0988
545,0.0989
546,0.0991
547,0.1013
548,0.0992
549,0.0965
550,0.0976
551,0.0954
552,0.0958
553,0.0945
554,0.0954
555,0.0917
556,0.0918
557,0.0924
558,0.0905
559,0.0891
560,0.0899
561,0.0887
562,0.0898
563,0.0890
564,0.0888
565,0.0883
566,0.0852
567,0.0910
568,0.0921
569,0.0922
570,0.0936
571,0.0939
572,0.0932
573,0.0949
574,0.0951
575,0.0950
576,0.0964
577,0.0976
578,0.0966
579,0.0969
580,0.0984
581,0.0964
582,0.0955
583,0.0950
584,0.0946
585,0.0952
586,0.0936
587,0.0918
588,0.0907
589,0.0890
590,0.0896
591,0.0866
592,0.0875
593,0.0853
594,0.0845
595,0.0821
596,0.0821
597,0.0812
598,0.0801
599,0.0809
600,0.0793
601,0.0782
602,0.0785
603,0.0777
604,0.0775
605,0.0775
606,0.0761
607,0.0790
608,0.0786
609,0.0799
610,0.0793
611,0.0784
612,0.0804
613,0.0810
614,0.0829
615,0.0826
616,0.0844
617,0.0843
618,0.0840
619,0.0846
620,0.0869
621,0.0865
622,0.0888
623,0.0886
624,0.0872
625,0.0891
626,0.0871
627,0.0887
628,0.0873
629,0.0879
630,0.0870
631,0.0877
632,0.0843
633,0.0845
634,0.0828
635,0.0813
636,0.0816
637,0.0811
638,0.0790
639,0.0801
640,0.0799
641,0.0801
642,0.0781
643,0.0775
644,0.0776
645,0.0758
646,0.0769
647,0.0758
648,0.0768
649,0.0756
650,0.0766
651,0.0762
652,0.0756
653,0.0767
654,0.0751
655,0.0763
656,0.0761
657,0.0753
658,0.0759
659,0.0761
660,0.0776
661,0.0766
662,0.0780
663,0.0784
664,0.0796
665,0.0805
666,0.0785
667,0.0810
668,0.0806
669,0.0805
670,0.0807
671,0.0807
672,0.0804
673,0.0793
674,0.0800
675,0.0800
676,0.0792
677,0.0794
678,0.0786
679,0.0772
680,0.0779
681,0.0772
682,0.0761
683,0.0767
684,0.0759
685,0.0741
686,0.0743
687,0.0731
688,0.0740
689,0.0732
690,0.0727
691,0.0728
692,0.0716
693,0.0704
694,0.0711
695,0.0703
696,0.0699
697,0.0698
698,0.0696
699,0.0691
700,0.0681
701,0.0697
702,0.0691
703,0.0679
704,0.0688
705,0.0683
706,0.0693
707,0.0685
708,0.0699
709,0.0701
710,0.0699
711,0.0709
712,0.0700
713,0.0711
714,0.0716
715,0.0724
716,0.0718
717,0.0728
718,0.0720
719,0.0713
720,0.0714
721,0.0714
722,0.0714
723,0.0712
724,0.0707
725,0.0708
726,0.0717
727,0.0712
728,0.0714
729,0.0709
730,0.0712
731,0.0709
732,0.0725
733,0.0716
734,0.0717
735,0.0707
736,0.0714
737,0.0711
738,0.0709
739,0.0694
740,0.0684
741,0.0701
742,0.0688
743,0.0679
744,0.0685
745,0.0677
746,0.0673
747,0.0649
748,0.0678
749,0.0662
750,0.0656
751,0.0659
752,0.0652
753,0.0664
754,0.0669
755,0.0650
756,0.0655
757,0.0652
758,0.0654
759,0.0652
760,0.0647
761,0.0647
762,0.0634
763,0.0647
764,0.0635
765,0.0633
766,0.0626
767,0.0622
768,0.0630
769,0.0609
770,0.0612
771,0.0646
772,0.0632
773,0.0626
774,0.0646
775,0.0637
776,0.0632
777,0.0650
778,0.0656
779,0.0649
780,0.0646
781,0.0655
782,0.0670
783,0.0662
784,0.0659
785,0.0668
786,0.0680
787,0.0680
788,0.0682
789,0.0659
790,0.0679
791,0.0659
792,0.0681
793,0.0674
794,0.0669
795,0.0657
796,0.0682
797,0.0688
798,0.0674
799,0.0689
800,0.0697
801,0.0710
802,0.0693
803,0.0711
804,0.0711
805,0.0728
806,0.0708
807,0.0727
808,0.0717
809,0.0728
810,0.0744
811,0.0710
812,0.0706
813,0.0704
814,0.0696
815,0.0699
816,0.0706
817,0.0702
818,0.0691
819,0.0703
820,0.0699
821,0.0686
822,0.0699
823,0.0678
824,0.0679
825,0.0673
826,0.0674
827,0.0649
828,0.0645
829,0.0638
830,0.0646
831,0.0627
832,0.0626
833,0.0602
834,0.0601
835,0.0601
836,0.0599
837,0.0585
838,0.0576
839,0.0573
840,0.0566
841,0.0553
842,0.0561
843,0.0546
844,0.0567
845,0.0545
846,0.0553
847,0.0551
848,0.0550
849,0.0555
850,0.0551
851,0.0559
852,0.0541
853,0.0580
854,0.0575
855,0.0594
856,0.0569
857,0.0588
858,0.0568
859,0.0573
860,0.0578
861,0.0595
862,0.0582
863,0.0609
864,0.0605
865,0.0591
866,0.0627
867,0.0612
868,0.0607
869,0.0616
870,0.0601
871,0.0595
872,0.0597
873,0.0589
874,0.0587
875,0.0586
876,0.0606
877,0.0608
878,0.0620
879,0.0623
880,0.0615
881,0.0613
882,0.0611
883,0.0621
884,0.0626
885,0.0653
886,0.0662
887,0.0680
888,0.0669
889,0.0688
890,0.0685
891,0.0704
892,0.0713
893,0.0736
894,0.0717
895,0.0729
896,0.0750
897,0.0757
898,0.0716
899,0.0728
900,0.0744
901,0.0755
902,0.0751
903,0.0756
904,0.0782
905,0.0778
906,0.0770
907,0.0792
908,0.0765
909,0.0751
910,0.0771
911,0.0718
912,0.0705
913,0.0672
914,0.0700
915,0.0684
916,0.0674
917,0.0653
918,0.0601
919,0.0591
920,0.0601
921,0.0544
922,0.0554
923,0.0528
924,0.0510
925,0.0507
926,0.0469
927,0.0464
928,0.0463
929,0.0451
930,0.0432
931,0.0416
932,0.0427
933,0.0389
934,0.0372
935,0.0348
936,0.0284
937,0.0284
938,0.0248
939,0.0210
940,0.0206
941,0.0197
942,0.0158
943,0.0155
944,0.0158
945,0.0176
946,0.0155
947,0.0259
