382,NaN
383,1.0000
384,0.8049
385,1.0000
386,0.0000
387,0.1595
388,0.4176
389,0.0757
390,0.1433
391,0.1695
392,0.3755
393,0.2203
394,0.0396
395,0.1353
396,0.4151
397,0.2366
398,0.1382
399,0.3223
400,0.2151
401,0.3005
402,0.1640
403,0.2862
404,0.1528
405,0.1558
406,0.1592
407,0.0967
408,0.1108
409,0.1265
410,0.1851
411,0.1871
412,0.1231
413,0.1749
414,0.1791
415,0.2195
416,0.2111
417,0.1924
418,0.1871
419,0.2509
420,0.2291
421,0.1803
422,0.1732
423,0.1650
424,0.1709
425,0.0937
426,0.1610
427,0.0868
428,0.0704
429,0.0774
430,0.1152
431,0.1046
432,0.1010
433,0.0999
434,0.0867
435,0.1571
436,0.1371
437,0.1914
438,0.1900
439,0.1757
440,0.2302
441,0.2400
442,0.2227
443,0.2286
444,0.2302
445,0.2240
446,0.1968
447,0.1830
448,0.1710
449,0.1810
450,0.1529
451,0.1167
452,0.1060
453,0.1187
454,0.0925
455,0.1056
456,0.1105
457,0.1088
458,0.1060
459,0.1038
460,0.1140
461,0.1389
462,0.1477
463,0.1702
464,0.1634
465,0.1610
466,0.1877
467,0.1937
468,0.2153
469,0.2261
470,0.2224
471,0.2182
472,0.2245
473,0.2146
474,0.2204
475,0.2196
476,0.2201
477,0.2076
478,0.1890
479,0.1965
480,0.1784
481,0.1473
482,0.1505
483,0.1442
484,0.1284
485,0.1401
486,0.1277
487,0.1465
488,0.1451
489,0.1493
490,0.1567
491,0.1733
492,0.1846
493,0.2023
494,0.2215
495,0.2293
496,0.2455
497,0.2412
498,0.2599
499,0.2459
500,0.2680
501,0.2587
502,0.2643
503,0.2407
504,0.2357
505,0.2260
506,0.2211
507,0.2138
508,0.2026
509,0.1805
510,0.1640
511,0.1465
512,0.1348
513,0.1289
514,0.1131
515,0.1035
516,0.0959
517,0.0884
518,0.0802
519,0.0794
520,0.0779
521,0.0737
522,0.0751
523,0.0754
524,0.0789
525,0.0808
526,0.0858
527,0.0914
528,0.0955
529,0.1042
530,0.1060
531,0.1106
532,0.1150
533,0.1162
534,0.1247
535,0.1257
536,0.1298
537,0.1311
538,0.1302
539,0.1325
540,0.1285
541,0.1291
542,0.1245
543,0.1192
544,0.1181
545,0.1142
546,0.1109
547,0.1055
548,0.1017
549,0.0960
550,0.0901
551,0.0838
552,0.0796
553,0.0737
554,0.0716
555,0.0673
556,0.0633
557,0.0623
558,0.0619
559,0.0608
560,0.0592
561,0.0608
562,0.0624
563,0.0645
564,0.0658
565,0.0703
566,0.0714
567,0.0783
568,0.0839
569,0.0888
570,0.0922
571,0.0970
572,0.1004
573,0.1055
574,0.1094
575,0.1109
576,0.1160
577,0.1195
578,0.1182
579,0.1211
580,0.1199
581,0.1207
582,0.1210
583,0.1181
584,0.1197
585,0.1139
586,0.1143
587,0.1087
588,0.1069
589,0.1002
590,0.0999
591,0.0921
592,0.0901
593,0.0865
594,0.0802
595,0.0766
596,0.0735
597,0.0703
598,0.0671
599,0.0630
600,0.0602
601,0.0587
602,0.0558
603,0.0534
604,0.0536
605,0.0523
606,0.0516
607,0.0520
608,0.0537
609,0.0554
610,0.0556
611,0.0587
612,0.0624
613,0.0655
614,0.0683
615,0.0728
616,0.0744
617,0.0786
618,0.0819
619,0.0866
620,0.0893
621,0.0934
622,0.0971
623,0.0986
624,0.1020
625,0.1063
626,0.1064
627,0.1071
628,0.1101
629,0.1116
630,0.1108
631,0.1119
632,0.1098
633,0.1111
634,0.1069
635,0.1063
636,0.1035
637,0.1031
638,0.1004
639,0.0992
640,0.0970
641,0.0949
642,0.0909
643,0.0864
644,0.0836
645,0.0810
646,0.0762
647,0.0728
648,0.0712
649,0.0657
650,0.0623
651,0.0612
652,0.0575
653,0.0560
654,0.0537
655,0.0505
656,0.0495
657,0.0485
658,0.0479
659,0.0470
660,0.0469
661,0.0454
662,0.0479
663,0.0487
664,0.0490
665,0.0507
666,0.0516
667,0.0560
668,0.0567
669,0.0587
670,0.0604
671,0.0653
672,0.0652
673,0.0682
674,0.0714
675,0.0738
676,0.0787
677,0.0792
678,0.0823
679,0.0845
680,0.0867
681,0.0883
682,0.0903
683,0.0932
684,0.0947
685,0.0961
686,0.0966
687,0.0965
688,0.0994
689,0.1000
690,0.1001
691,0.1025
692,0.0998
693,0.0989
694,0.1007
695,0.0991
696,0.0983
697,0.0971
698,0.0948
699,0.0930
700,0.0916
701,0.0884
702,0.0855
703,0.0849
704,0.0812
705,0.0791
706,0.0761
707,0.0735
708,0.0711
709,0.0687
710,0.0655
711,0.0630
712,0.0601
713,0.0587
714,0.0547
715,0.0522
716,0.0517
717,0.0492
718,0.0469
719,0.0460
720,0.0438
721,0.0423
722,0.0414
723,0.0407
724,0.0402
725,0.0394
726,0.0396
727,0.0403
728,0.0403
729,0.0410
730,0.0427
731,0.0422
732,0.0439
733,0.0455
734,0.0479
735,0.0491
736,0.0504
737,0.0526
738,0.0541
739,0.0554
740,0.0580
741,0.0610
742,0.0622
743,0.0636
744,0.0656
745,0.0681
746,0.0690
747,0.0725
748,0.0756
749,0.0748
750,0.0781
751,0.0812
752,0.0833
753,0.0843
754,0.0870
755,0.0877
756,0.0892
757,0.0900
758,0.0909
759,0.0912
760,0.0918
761,0.0914
762,0.0911
763,0.0918
764,0.0912
765,0.0907
766,0.0877
767,0.0873
768,0.0876
769,0.0853
770,0.0836
771,0.0853
772,0.0819
773,0.0811
774,0.0808
775,0.0785
776,0.0766
777,0.0750
778,0.0719
779,0.0707
780,0.0684
781,0.0667
782,0.0653
783,0.0636
784,0.0610
785,0.0602
786,0.0566
787,0.0561
788,0.0530
789,0.0518
790,0.0502
791,0.0469
792,0.0462
793,0.0438
794,0.0434
795,0.0406
796,0.0401
797,0.0399
798,0.0394
799,0.0390
800,0.0389
801,0.0379
802,0.0372
803,0.0379
804,0.0387
805,0.0379
806,0.0375
807,0.0399
808,0.0400
809,0.0410
810,0.0431
811,0.0417
812,0.0425
813,0.0451
814,0.0445
815,0.0480
816,0.0482
817,0.0519
818,0.0519
819,0.0563
820,0.0582
821,0.0586
822,0.0608
823,0.0625
824,0.0641
825,0.0671
826,0.0664
827,0.0672
828,0.0696
829,0.0715
830,0.0725
831,0.0739
832,0.0753
833,0.0757
834,0.0767
835,0.0780
836,0.0768
837,0.0785
838,0.0804
839,0.0796
840,0.0790
841,0.0806
842,0.0812
843,0.0799
844,0.0804
845,0.0812
846,0.0817
847,0.0809
848,0.0798
849,0.0813
850,0.0802
851,0.0825
852,0.0832
853,0.0808
854,0.0826
855,0.0793
856,0.0772
857,0.0792
858,0.0770
859,0.0762
860,0.0751
861,0.0751
862,0.0756
863,0.0724
864,0.0727
865,0.0692
866,0.0698
867,0.0677
868,0.0677
869,0.0641
870,0.0620
871,0.0616
872,0.0610
873,0.0568
874,0.0553
875,0.0527
876,0.0537
877,0.0507
878,0.0510
879,0.0511
880,0.0501
881,0.0457
882,0.0483
883,0.0462
884,0.0442
885,0.0443
886,0.0440
887,0.0426
888,0.0435
889,0.0413
890,0.0429
891,0.0427
892,0.0403
893,0.0415
894,0.0405
895,0.0387
896,0.0397
897,0.0399
898,0.0377
899,0.0383
900,0.0384
901,0.0390
902,0.0352
903,0.0369
904,0.0423
905,0.0379
906,0.0383
907,0.0437
908,0.0413
909,0.0436
910,0.0446
911,0.0419
912,0.0428
913,0.0408
914,0.0432
915,0.0432
916,0.0449
917,0.0428
918,0.0416
919,0.0419
920,0.0456
921,0.0428
922,0.0435
923,0.0440
924,0.0446
925,0.0447
926,0.0450
927,0.0472
928,0.0433
929,0.0440
930,0.0453
931,0.0412
932,0.0421
933,0.0408
934,0.0387
935,0.0384
936,0.0352
937,0.0296
938,0.0295
939,0.0248
940,0.0230
941,0.0198
942,0.0198
943,0.0201
944,0.0180
945,0.0207
946,0.0187
947,0.0295
