382,NaN
383,1.0000
384,1.0000
385,0.3161
386,0.0000
387,0.1479
388,0.2783
389,0.1556
390,0.0000
391,0.0701
392,0.3464
393,0.3800
394,0.0000
395,0.1373
396,0.2489
397,0.0059
398,0.1859
399,0.2667
400,0.2307
401,0.3690
402,0.1269
403,0.1576
404,0.2469
405,0.1245
406,0.1580
407,0.1917
408,0.1267
409,0.1272
410,0.2067
411,0.1970
412,0.1853
413,0.1583
414,0.1663
415,0.1001
416,0.1307
417,0.1690
418,0.1587
419,0.1673
420,0.1488
421,0.1579
422,0.1262
423,0.1926
424,0.1728
425,0.1796
426,0.2378
427,0.1911
428,0.1815
429,0.1739
430,0.1788
431,0.1757
432,0.1771
433,0.1392
434,0.1420
435,0.1235
436,0.1485
437,0.1301
438,0.1427
439,0.1194
440,0.1096
441,0.1586
442,0.1491
443,0.1683
444,0.1534
445,0.1604
446,0.1518
447,0.1746
448,0.1807
449,0.1983
450,0.1695
451,0.1861
452,0.1616
453,0.1917
454,0.2011
455,0.1970
456,0.1707
457,0.1943
458,0.1718
459,0.1567
460,0.1540
461,0.1567
462,0.1434
463,0.1457
464,0.1304
465,0.1287
466,0.1385
467,0.1285
468,0.1333
469,0.1533
470,0.1225
471,0.1380
472,0.1496
473,0.1380
474,0.1525
475,0.1551
476,0.1741
477,0.1822
478,0.1901
479,0.2060
480,0.2164
481,0.2214
482,0.2311
483,0.2411
484,0.2443
485,0.2549
486,0.2607
487,0.2624
488,0.2601
489,0.2544
490,0.2534
491,0.2492
492,0.2460
493,0.2412
494,0.2282
495,0.2276
496,0.2091
497,0.1854
498,0.1970
499,0.1753
500,0.1781
501,0.1647
502,0.1611
503,0.1512
504,0.1436
505,0.1387
506,0.1412
507,0.1455
508,0.1411
509,0.1367
510,0.1375
511,0.1305
512,0.1341
513,0.1341
514,0.1383
515,0.1389
516,0.1367
517,0.1346
518,0.1373
519,0.1398
520,0.1408
521,0.1326
522,0.1325
523,0.1329
524,0.1326
525,0.1313
526,0.1311
527,0.1262
528,0.1253
529,0.1193
530,0.1145
531,0.1140
532,0.1101
533,0.1046
534,0.1034
535,0.0975
536,0.0957
537,0.0924
538,0.0902
539,0.0863
540,0.0850
541,0.0813
542,0.0800
543,0.0782
544,0.0773
545,0.0773
546,0.0762
547,0.0758
548,0.0761
549,0.0773
550,0.0796
551,0.0818
552,0.0830
553,0.0844
554,0.0882
555,0.0873
556,0.0908
557,0.0942
558,0.0939
559,0.0984
560,0.1000
561,0.1010
562,0.1049
563,0.1066
564,0.1082
565,0.1081
566,0.1076
567,0.1099
568,0.1124
569,0.1107
570,0.1109
571,0.1119
572,0.1094
573,0.1090
574,0.1068
575,0.1046
576,0.1032
577,0.1004
578,0.0962
579,0.0965
580,0.0947
581,0.0903
582,0.0877
583,0.0841
584,0.0831
585,0.0809
586,0.0789
587,0.0745
588,0.0730
589,0.0732
590,0.0715
591,0.0702
592,0.0678
593,0.0678
594,0.0680
595,0.0679
596,0.0668
597,0.0671
598,0.0682
599,0.0693
600,0.0683
601,0.0710
602,0.0725
603,0.0744
604,0.0760
605,0.0771
606,0.0775
607,0.0807
608,0.0827
609,0.0844
610,0.0858
611,0.0887
612,0.0902
613,0.0914
614,0.0923
615,0.0947
616,0.0952
617,0.0966
618,0.0982
619,0.0979
620,0.0994
621,0.0986
622,0.1002
623,0.0986
624,0.0994
625,0.0990
626,0.0976
627,0.0972
628,0.0973
629,0.0949
630,0.0932
631,0.0925
632,0.0878
633,0.0875
634,0.0848
635,0.0830
636,0.0811
637,0.0799
638,0.0771
639,0.0749
640,0.0746
641,0.0734
642,0.0710
643,0.0701
644,0.0674
645,0.0666
646,0.0654
647,0.0645
648,0.0635
649,0.0614
650,0.0624
651,0.0615
652,0.0605
653,0.0598
654,0.0601
655,0.0599
656,0.0604
657,0.0617
658,0.0624
659,0.0615
660,0.0630
661,0.0628
662,0.0651
663,0.0663
664,0.0666
665,0.0694
666,0.0695
667,0.0721
668,0.0736
669,0.0752
670,0.0767
671,0.0784
672,0.0785
673,0.0799
674,0.0795
675,0.0840
676,0.0845
677,0.0842
678,0.0848
679,0.0850
680,0.0875
681,0.0867
682,0.0878
683,0.0886
684,0.0886
685,0.0885
686,0.0883
687,0.0879
688,0.0887
689,0.0900
690,0.0876
691,0.0880
692,0.0861
693,0.0848
694,0.0848
695,0.0835
696,0.0835
697,0.0833
698,0.0814
699,0.0792
700,0.0786
701,0.0784
702,0.0757
703,0.0739
704,0.0718
705,0.0696
706,0.0689
707,0.0678
708,0.0660
709,0.0649
710,0.0628
711,0.0650
712,0.0614
713,0.0603
714,0.0584
715,0.0589
716,0.0572
717,0.0564
718,0.0561
719,0.0545
720,0.0536
721,0.0530
722,0.0520
723,0.0523
724,0.0507
725,0.0517
726,0.0513
727,0.0511
728,0.0513
729,0.0506
730,0.0519
731,0.0531
732,0.0538
733,0.0544
734,0.0551
735,0.0564
736,0.0566
737,0.0587
738,0.0589
739,0.0597
740,0.0609
741,0.0629
742,0.0634
743,0.0633
744,0.0647
745,0.0673
746,0.0670
747,0.0682
748,0.0720
749,0.0699
750,0.0716
751,0.0740
752,0.0751
753,0.0771
754,0.0760
755,0.0782
756,0.0793
757,0.0799
758,0.0787
759,0.0801
760,0.0800
761,0.0796
762,0.0807
763,0.0798
764,0.0808
765,0.0805
766,0.0799
767,0.0801
768,0.0785
769,0.0776
770,0.0777
771,0.0762
772,0.0769
773,0.0742
774,0.0745
775,0.0751
776,0.0735
777,0.0722
778,0.0720
779,0.0705
780,0.0685
781,0.0684
782,0.0680
783,0.0670
784,0.0651
785,0.0655
786,0.0632
787,0.0626
788,0.0621
789,0.0601
790,0.0583
791,0.0564
792,0.0575
793,0.0549
794,0.0544
795,0.0535
796,0.0516
797,0.0539
798,0.0507
799,0.0507
800,0.0514
801,0.0496
802,0.0491
803,0.0503
804,0.0507
805,0.0511
806,0.0489
807,0.0496
808,0.0510
809,0.0515
810,0.0532
811,0.0515
812,0.0503
813,0.0510
814,0.0514
815,0.0513
816,0.0524
817,0.0534
818,0.0536
819,0.0553
820,0.0561
821,0.0586
822,0.0564
823,0.0564
824,0.0575
825,0.0590
826,0.0592
827,0.0583
828,0.0599
829,0.0602
830,0.0598
831,0.0614
832,0.0614
833,0.0611
834,0.0616
835,0.0630
836,0.0623
837,0.0630
838,0.0630
839,0.0648
840,0.0629
841,0.0639
842,0.0647
843,0.0651
844,0.0641
845,0.0656
846,0.0660
847,0.0663
848,0.0676
849,0.0675
850,0.0668
851,0.0693
852,0.0685
853,0.0687
854,0.0696
855,0.0671
856,0.0702
857,0.0697
858,0.0703
859,0.0696
860,0.0697
861,0.0714
862,0.0692
863,0.0700
864,0.0688
865,0.0694
866,0.0681
867,0.0687
868,0.0679
869,0.0661
870,0.0659
871,0.0650
872,0.0662
873,0.0627
874,0.0643
875,0.0614
876,0.0627
877,0.0633
878,0.0617
879,0.0619
880,0.0624
881,0.0614
882,0.0618
883,0.0633
884,0.0612
885,0.0610
886,0.0631
887,0.0636
888,0.0626
889,0.0620
890,0.0637
891,0.0617
892,0.0629
893,0.0653
894,0.0640
895,0.0646
896,0.0625
897,0.0635
898,0.0616
899,0.0628
900,0.0632
901,0.0650
902,0.0613
903,0.0626
904,0.0634
905,0.0638
906,0.0611
907,0.0625
908,0.0617
909,0.0593
910,0.0589
911,0.0571
912,0.0571
913,0.0513
914,0.0547
915,0.0555
916,0.0537
917,0.0492
918,0.0477
919,0.0462
920,0.0473
921,0.0449
922,0.0423
923,0.0409
924,0.0383
925,0.0402
926,0.0378
927,0.0366
928,0.0345
929,0.0353
930,0.0340
931,0.0336
932,0.0330
933,0.0303
934,0.0304
935,0.0282
936,0.0225
937,0.0199
938,0.0204
939,0.0182
940,0.0160
941,0.0142
942,0.0132
943,0.0109
944,0.0117
945,0.0128
946,0.0115
947,0.0145
