382,NaN
383,0.7960
384,1.0000
385,1.0000
386,1.0000
387,0.2565
388,0.1922
389,0.1693
390,0.1073
391,0.1388
392,0.4135
393,0.1599
394,0.2518
395,0.1448
396,0.3442
397,0.2393
398,0.2865
399,0.1019
400,0.1875
401,0.3968
402,0.0037
403,0.1171
404,0.1359
405,0.2069
406,0.1619
407,0.0635
408,0.1479
409,0.1554
410,0.1307
411,0.2171
412,0.2296
413,0.2356
414,0.1415
415,0.1976
416,0.1466
417,0.2149
418,0.1599
419,0.1870
420,0.2082
421,0.2091
422,0.1310
423,0.1595
424,0.0991
425,0.1455
426,0.1818
427,0.1145
428,0.1330
429,0.1333
430,0.1500
431,0.1396
432,0.1106
433,0.1329
434,0.1265
435,0.1401
436,0.1467
437,0.1506
438,0.1379
439,0.1294
440,0.1638
441,0.1998
442,0.1614
443,0.2024
444,0.1873
445,0.1955
446,0.1763
447,0.1956
448,0.1964
449,0.1755
450,0.1937
451,0.1815
452,0.1583
453,0.1784
454,0.1827
455,0.1744
456,0.1662
457,0.1509
458,0.1467
459,0.1201
460,0.1190
461,0.1283
462,0.1267
463,0.1286
464,0.1241
465,0.1059
466,0.1274
467,0.1100
468,0.1504
469,0.1419
470,0.1412
471,0.1282
472,0.1514
473,0.1641
474,0.1675
475,0.1824
476,0.1911
477,0.2076
478,0.2040
479,0.2354
480,0.2395
481,0.2256
482,0.2340
483,0.2524
484,0.2457
485,0.2520
486,0.2435
487,0.2548
488,0.2516
489,0.2358
490,0.2329
491,0.2271
492,0.2199
493,0.2173
494,0.2097
495,0.2018
496,0.1898
497,0.1712
498,0.1754
499,0.1615
500,0.1606
501,0.1546
502,0.1532
503,0.1374
504,0.1429
505,0.1371
506,0.1409
507,0.1416
508,0.1423
509,0.1379
510,0.1393
511,0.1331
512,0.1370
513,0.1339
514,0.1406
515,0.1391
516,0.1414
517,0.1393
518,0.1347
519,0.1364
520,0.1410
521,0.1316
522,0.1318
523,0.1280
524,0.1290
525,0.1257
526,0.1255
527,0.1245
528,0.1207
529,0.1199
530,0.1167
531,0.1104
532,0.1072
533,0.1050
534,0.1022
535,0.0972
536,0.0970
537,0.0924
538,0.0905
539,0.0855
540,0.0834
541,0.0834
542,0.0800
543,0.0765
544,0.0770
545,0.0771
546,0.0767
547,0.0783
548,0.0743
549,0.0743
550,0.0744
551,0.0748
552,0.0762
553,0.0807
554,0.0801
555,0.0815
556,0.0805
557,0.0865
558,0.0874
559,0.0917
560,0.0928
561,0.0934
562,0.0970
563,0.0992
564,0.1001
565,0.1018
566,0.1020
567,0.1034
568,0.1065
569,0.1079
570,0.1084
571,0.1077
572,0.1082
573,0.1062
574,0.1067
575,0.1042
576,0.1067
577,0.1037
578,0.0999
579,0.1008
580,0.0985
581,0.0959
582,0.0936
583,0.0921
584,0.0905
585,0.0873
586,0.0852
587,0.0826
588,0.0799
589,0.0774
590,0.0773
591,0.0749
592,0.0714
593,0.0717
594,0.0698
595,0.0678
596,0.0688
597,0.0661
598,0.0647
599,0.0652
600,0.0659
601,0.0648
602,0.0652
603,0.0645
604,0.0651
605,0.0665
606,0.0662
607,0.0673
608,0.0687
609,0.0692
610,0.0715
611,0.0738
612,0.0744
613,0.0767
614,0.0772
615,0.0787
616,0.0805
617,0.0809
618,0.0843
619,0.0867
620,0.0872
621,0.0895
622,0.0911
623,0.0919
624,0.0928
625,0.0928
626,0.0950
627,0.0946
628,0.0946
629,0.0958
630,0.0939
631,0.0971
632,0.0940
633,0.0934
634,0.0920
635,0.0911
636,0.0918
637,0.0909
638,0.0883
639,0.0887
640,0.0884
641,0.0876
642,0.0844
643,0.0834
644,0.0809
645,0.0802
646,0.0789
647,0.0767
648,0.0758
649,0.0744
650,0.0713
651,0.0712
652,0.0688
653,0.0686
654,0.0666
655,0.0655
656,0.0639
657,0.0618
658,0.0615
659,0.0594
660,0.0588
661,0.0584
662,0.0579
663,0.0580
664,0.0571
665,0.0569
666,0.0566
667,0.0565
668,0.0569
669,0.0577
670,0.0570
671,0.0599
672,0.0578
673,0.0601
674,0.0601
675,0.0619
676,0.0626
677,0.0628
678,0.0652
679,0.0630
680,0.0657
681,0.0668
682,0.0680
683,0.0694
684,0.0710
685,0.0716
686,0.0737
687,0.0725
688,0.0747
689,0.0784
690,0.0779
691,0.0794
692,0.0801
693,0.0811
694,0.0820
695,0.0821
696,0.0829
697,0.0848
698,0.0847
699,0.0855
700,0.0855
701,0.0849
702,0.0863
703,0.0859
704,0.0837
705,0.0844
706,0.0831
707,0.0833
708,0.0843
709,0.0832
710,0.0801
711,0.0816
712,0.0798
713,0.0797
714,0.0785
715,0.0782
716,0.0768
717,0.0758
718,0.0736
719,0.0726
720,0.0706
721,0.0684
722,0.0668
723,0.0649
724,0.0629
725,0.0633
726,0.0616
727,0.0599
728,0.0592
729,0.0582
730,0.0569
731,0.0561
732,0.0552
733,0.0543
734,0.0534
735,0.0537
736,0.0533
737,0.0517
738,0.0513
739,0.0501
740,0.0494
741,0.0497
742,0.0489
743,0.0477
744,0.0503
745,0.0496
746,0.0480
747,0.0490
748,0.0507
749,0.0482
750,0.0498
751,0.0502
752,0.0499
753,0.0499
754,0.0523
755,0.0530
756,0.0523
757,0.0526
758,0.0549
759,0.0563
760,0.0568
761,0.0573
762,0.0567
763,0.0587
764,0.0585
765,0.0600
766,0.0595
767,0.0592
768,0.0611
769,0.0617
770,0.0615
771,0.0633
772,0.0625
773,0.0651
774,0.0670
775,0.0671
776,0.0659
777,0.0675
778,0.0680
779,0.0686
780,0.0685
781,0.0695
782,0.0687
783,0.0700
784,0.0715
785,0.0702
786,0.0719
787,0.0719
788,0.0732
789,0.0720
790,0.0718
791,0.0696
792,0.0723
793,0.0725
794,0.0704
795,0.0712
796,0.0714
797,0.0736
798,0.0710
799,0.0718
800,0.0719
801,0.0729
802,0.0710
803,0.0728
804,0.0740
805,0.0727
806,0.0721
807,0.0725
808,0.0724
809,0.0736
810,0.0736
811,0.0722
812,0.0701
813,0.0702
814,0.0691
815,0.0692
816,0.0688
817,0.0690
818,0.0675
819,0.0687
820,0.0666
821,0.0673
822,0.0655
823,0.0665
824,0.0631
825,0.0634
826,0.0622
827,0.0593
828,0.0592
829,0.0577
830,0.0564
831,0.0563
832,0.0533
833,0.0530
834,0.0510
835,0.0508
836,0.0495
837,0.0478
838,0.0475
839,0.0478
840,0.0448
841,0.0459
842,0.0466
843,0.0435
844,0.0441
845,0.0435
846,0.0414
847,0.0426
848,0.0411
849,0.0423
850,0.0407
851,0.0420
852,0.0422
853,0.0408
854,0.0429
855,0.0429
856,0.0423
857,0.0444
858,0.0424
859,0.0417
860,0.0426
861,0.0433
862,0.0443
863,0.0460
864,0.0445
865,0.0443
866,0.0460
867,0.0466
868,0.0460
869,0.0450
870,0.0466
871,0.0471
872,0.0475
873,0.0470
874,0.0478
875,0.0490
876,0.0484
877,0.0487
878,0.0497
879,0.0499
880,0.0531
881,0.0530
882,0.0527
883,0.0559
884,0.0536
885,0.0568
886,0.0591
887,0.0608
888,0.0609
889,0.0628
890,0.0665
891,0.0662
892,0.0674
893,0.0732
894,0.0714
895,0.0731
896,0.0746
897,0.0751
898,0.0769
899,0.0780
900,0.0800
901,0.0813
902,0.0817
903,0.0841
904,0.0829
905,0.0852
906,0.0844
907,0.0904
908,0.0890
909,0.0864
910,0.0869
911,0.0828
912,0.0827
913,0.0807
914,0.0841
915,0.0792
916,0.0814
917,0.0750
918,0.0741
919,0.0708
920,0.0709
921,0.0665
922,0.0678
923,0.0614
924,0.0634
925,0.0603
926,0.0586
927,0.0567
928,0.0554
929,0.0535
930,0.0515
931,0.0479
932,0.0457
933,0.0447
934,0.0412
935,0.0380
936,0.0345
937,0.0304
938,0.0249
939,0.0218
940,0.0204
941,0.0177
942,0.0138
943,0.0148
944,0.0142
945,0.0154
946,0.0159
947,0.0227
