382,NaN
383,1.0000
384,1.0000
385,1.0000
386,0.0000
387,0.1727
388,0.0948
389,0.1468
390,0.0000
391,0.3632
392,0.3919
393,0.2246
394,0.2003
395,0.0000
396,0.3049
397,0.0929
398,0.3103
399,0.2082
400,0.2790
401,0.2764
402,0.0939
403,0.2553
404,0.1760
405,0.3087
406,0.2530
407,0.1741
408,0.1999
409,0.1437
410,0.1542
411,0.2198
412,0.1753
413,0.1688
414,0.1206
415,0.0650
416,0.0839
417,0.1866
418,0.0775
419,0.1561
420,0.1240
421,0.0868
422,0.1145
423,0.1253
424,0.1093
425,0.1513
426,0.2042
427,0.1804
428,0.1790
429,0.1723
430,0.2327
431,0.2360
432,0.1610
433,0.1589
434,0.1989
435,0.2103
436,0.2086
437,0.1862
438,0.2087
439,0.2131
440,0.1874
441,0.1704
442,0.1595
443,0.1906
444,0.1489
445,0.1663
446,0.1277
447,0.1323
448,0.1190
449,0.1290
450,0.1371
451,0.0962
452,0.0957
453,0.1180
454,0.1238
455,0.1270
456,0.1222
457,0.1260
458,0.1307
459,0.1346
460,0.1472
461,0.1494
462,0.1388
463,0.1488
464,0.1371
465,0.1520
466,0.1533
467,0.1634
468,0.1807
469,0.1735
470,0.1673
471,0.1830
472,0.1923
473,0.1948
474,0.1942
475,0.1967
476,0.2006
477,0.2064
478,0.2101
479,0.2171
480,0.2025
481,0.1966
482,0.2036
483,0.2089
484,0.1937
485,0.2157
486,0.1971
487,0.1972
488,0.1920
489,0.1831
490,0.1816
491,0.1754
492,0.1859
493,0.1763
494,0.1785
495,0.1718
496,0.1684
497,0.1643
498,0.1667
499,0.1525
500,0.1626
501,0.1538
502,0.1614
503,0.1513
504,0.1531
505,0.1520
506,0.1557
507,0.1585
508,0.1567
509,0.1570
510,0.1511
511,0.1425
512,0.1434
513,0.1424
514,0.1471
515,0.1449
516,0.1407
517,0.1367
518,0.1327
519,0.1341
520,0.1345
521,0.1280
522,0.1277
523,0.1226
524,0.1240
525,0.1194
526,0.1193
527,0.1183
528,0.1139
529,0.1106
530,0.1099
531,0.1063
532,0.1048
533,0.0996
534,0.0986
535,0.0967
536,0.0929
537,0.0912
538,0.0888
539,0.0855
540,0.0848
541,0.0815
542,0.0810
543,0.0789
544,0.0767
545,0.0750
546,0.0756
547,0.0719
548,0.0740
549,0.0702
550,0.0708
551,0.0699
552,0.0727
553,0.0715
554,0.0720
555,0.0714
556,0.0713
557,0.0727
558,0.0756
559,0.0760
560,0.0761
561,0.0784
562,0.0804
563,0.0817
564,0.0820
565,0.0840
566,0.0851
567,0.0881
568,0.0883
569,0.0931
570,0.0933
571,0.0951
572,0.0967
573,0.0958
574,0.0991
575,0.0990
576,0.0992
577,0.1007
578,0.0990
579,0.1027
580,0.1018
581,0.1012
582,0.1001
583,0.1004
584,0.0998
585,0.0993
586,0.0998
587,0.0980
588,0.0953
589,0.0934
590,0.0939
591,0.0918
592,0.0924
593,0.0911
594,0.0887
595,0.0853
596,0.0858
597,0.0835
598,0.0814
599,0.0810
600,0.0796
601,0.0784
602,0.0766
603,0.0734
604,0.0733
605,0.0712
606,0.0706
607,0.0699
608,0.0687
609,0.0667
610,0.0658
611,0.0652
612,0.0647
613,0.0632
614,0.0614
615,0.0615
616,0.0601
617,0.0596
618,0.0615
619,0.0608
620,0.0610
621,0.0602
622,0.0606
623,0.0609
624,0.0624
625,0.0613
626,0.0621
627,0.0625
628,0.0643
629,0.0649
630,0.0664
631,0.0661
632,0.0665
633,0.0670
634,0.0683
635,0.0676
636,0.0698
637,0.0712
638,0.0722
639,0.0734
640,0.0753
641,0.0767
642,0.0775
643,0.0776
644,0.0798
645,0.0799
646,0.0817
647,0.0827
648,0.0818
649,0.0820
650,0.0830
651,0.0843
652,0.0828
653,0.0846
654,0.0835
655,0.0848
656,0.0836
657,0.0828
658,0.0835
659,0.0834
660,0.0830
661,0.0836
662,0.0831
663,0.0831
664,0.0815
665,0.0824
666,0.0794
667,0.0810
668,0.0816
669,0.0809
670,0.0790
671,0.0798
672,0.0765
673,0.0770
674,0.0751
675,0.0752
676,0.0746
677,0.0724
678,0.0713
679,0.0704
680,0.0704
681,0.0697
682,0.0685
683,0.0672
684,0.0659
685,0.0645
686,0.0637
687,0.0626
688,0.0630
689,0.0621
690,0.0610
691,0.0610
692,0.0588
693,0.0584
694,0.0586
695,0.0569
696,0.0564
697,0.0562
698,0.0554
699,0.0555
700,0.0541
701,0.0545
702,0.0547
703,0.0535
704,0.0521
705,0.0521
706,0.0526
707,0.0518
708,0.0529
709,0.0523
710,0.0520
711,0.0534
712,0.0530
713,0.0541
714,0.0536
715,0.0536
716,0.0539
717,0.0540
718,0.0540
719,0.0549
720,0.0545
721,0.0538
722,0.0541
723,0.0548
724,0.0553
725,0.0555
726,0.0559
727,0.0575
728,0.0565
729,0.0574
730,0.0587
731,0.0585
732,0.0600
733,0.0594
734,0.0619
735,0.0624
736,0.0631
737,0.0639
738,0.0638
739,0.0642
740,0.0638
741,0.0656
742,0.0665
743,0.0662
744,0.0671
745,0.0674
746,0.0679
747,0.0691
748,0.0687
749,0.0701
750,0.0700
751,0.0713
752,0.0711
753,0.0720
754,0.0725
755,0.0725
756,0.0729
757,0.0738
758,0.0729
759,0.0739
760,0.0731
761,0.0725
762,0.0711
763,0.0723
764,0.0729
765,0.0717
766,0.0710
767,0.0701
768,0.0711
769,0.0703
770,0.0676
771,0.0692
772,0.0668
773,0.0681
774,0.0661
775,0.0659
776,0.0652
777,0.0649
778,0.0648
779,0.0645
780,0.0627
781,0.0628
782,0.0626
783,0.0619
784,0.0608
785,0.0597
786,0.0592
787,0.0565
788,0.0572
789,0.0566
790,0.0558
791,0.0539
792,0.0537
793,0.0531
794,0.0518
795,0.0507
796,0.0508
797,0.0508
798,0.0499
799,0.0486
800,0.0507
801,0.0497
802,0.0489
803,0.0496
804,0.0484
805,0.0483
806,0.0488
807,0.0489
808,0.0488
809,0.0481
810,0.0499
811,0.0484
812,0.0480
813,0.0484
814,0.0465
815,0.0469
816,0.0482
817,0.0463
818,0.0467
819,0.0484
820,0.0474
821,0.0478
822,0.0461
823,0.0469
824,0.0461
825,0.0471
826,0.0471
827,0.0461
828,0.0454
829,0.0465
830,0.0451
831,0.0458
832,0.0452
833,0.0455
834,0.0448
835,0.0467
836,0.0461
837,0.0453
838,0.0446
839,0.0452
840,0.0446
841,0.0457
842,0.0460
843,0.0450
844,0.0467
845,0.0475
846,0.0464
847,0.0467
848,0.0478
849,0.0484
850,0.0461
851,0.0500
852,0.0501
853,0.0497
854,0.0513
855,0.0515
856,0.0516
857,0.0538
858,0.0522
859,0.0538
860,0.0530
861,0.0544
862,0.0546
863,0.0546
864,0.0555
865,0.0553
866,0.0567
867,0.0569
868,0.0563
869,0.0579
870,0.0580
871,0.0559
872,0.0583
873,0.0559
874,0.0555
875,0.0562
876,0.0574
877,0.0596
878,0.0590
879,0.0607
880,0.0598
881,0.0581
882,0.0593
883,0.0630
884,0.0616
885,0.0654
886,0.0656
887,0.0673
888,0.0663
889,0.0681
890,0.0703
891,0.0708
892,0.0710
893,0.0741
894,0.0739
895,0.0751
896,0.0776
897,0.0736
898,0.0761
899,0.0751
900,0.0811
901,0.0781
902,0.0762
903,0.0799
904,0.0805
905,0.0832
906,0.0819
907,0.0832
908,0.0821
909,0.0819
910,0.0787
911,0.0767
912,0.0765
913,0.0754
914,0.0743
915,0.0722
916,0.0708
917,0.0685
918,0.0651
919,0.0668
920,0.0640
921,0.0590
922,0.0571
923,0.0565
924,0.0563
925,0.0531
926,0.0498
927,0.0485
928,0.0462
929,0.0455
930,0.0450
931,0.0417
932,0.0377
933,0.0347
934,0.0368
935,0.0328
936,0.0291
937,0.0235
938,0.0216
939,0.0192
940,0.0158
941,0.0144
942,0.0129
943,0.0102
944,0.0120
945,0.0129
946,0.0116
947,0.0187
