382,NaN
383,0.3089
384,1.0000
385,0.7853
386,0.0000
387,0.3894
388,0.3659
389,0.3837
390,0.0000
391,0.0810
392,0.2554
393,0.2440
394,0.2584
395,0.1398
396,0.3045
397,0.0001
398,0.1837
399,0.1813
400,0.2018
401,0.3030
402,0.0532
403,0.1904
404,0.2337
405,0.0944
406,0.2012
407,0.1535
408,0.1894
409,0.1506
410,0.1965
411,0.2024
412,0.2192
413,0.2089
414,0.1727
415,0.2004
416,0.2175
417,0.1967
418,0.1344
419,0.1381
420,0.1624
421,0.1028
422,0.0873
423,0.1143
424,0.0880
425,0.0988
426,0.1885
427,0.1324
428,0.1369
429,0.1367
430,0.1595
431,0.1651
432,0.1588
433,0.1434
434,0.1711
435,0.1619
436,0.1253
437,0.1293
438,0.1914
439,0.1879
440,0.1847
441,0.1537
442,0.1930
443,0.1898
444,0.1622
445,0.1700
446,0.1658
447,0.1626
448,0.1467
449,0.1447
450,0.1593
451,0.1513
452,0.1434
453,0.1851
454,0.1607
455,0.1499
456,0.1572
457,0.1464
458,0.1515
459,0.1416
460,0.1349
461,0.1411
462,0.1304
463,0.1409
464,0.1240
465,0.1258
466,0.1403
467,0.1234
468,0.1389
469,0.1439
470,0.1349
471,0.1355
472,0.1414
473,0.1394
474,0.1512
475,0.1559
476,0.1535
477,0.1684
478,0.1649
479,0.1851
480,0.1891
481,0.1745
482,0.1870
483,0.1921
484,0.2113
485,0.2147
486,0.2063
487,0.2213
488,0.2288
489,0.2198
490,0.2257
491,0.2337
492,0.2415
493,0.2386
494,0.2305
495,0.2383
496,0.2294
497,0.2208
498,0.2331
499,0.2065
500,0.2189
501,0.2082
502,0.2030
503,0.1899
504,0.1806
505,0.1746
506,0.1661
507,0.1656
508,0.1632
509,0.1471
510,0.1409
511,0.1302
512,0.1294
513,0.1195
514,0.1180
515,0.1120
516,0.1080
517,0.1046
518,0.0990
519,0.0976
520,0.0977
521,0.0909
522,0.0897
523,0.0849
524,0.0865
525,0.0861
526,0.0852
527,0.0872
528,0.0845
529,0.0841
530,0.0846
531,0.0892
532,0.0858
533,0.0854
534,0.0902
535,0.0853
536,0.0907
537,0.0892
538,0.0906
539,0.0930
540,0.0936
541,0.0972
542,0.0958
543,0.0957
544,0.0978
545,0.0983
546,0.1006
547,0.1006
548,0.1005
549,0.1006
550,0.1015
551,0.0990
552,0.1032
553,0.1015
554,0.1024
555,0.1029
556,0.1030
557,0.1025
558,0.1020
559,0.1011
560,0.0988
561,0.0975
562,0.0974
563,0.0977
564,0.0940
565,0.0929
566,0.0921
567,0.0928
568,0.0912
569,0.0902
570,0.0893
571,0.0887
572,0.0861
573,0.0828
574,0.0830
575,0.0791
576,0.0798
577,0.0778
578,0.0757
579,0.0768
580,0.0737
581,0.0718
582,0.0701
583,0.0689
584,0.0690
585,0.0693
586,0.0663
587,0.0657
588,0.0677
589,0.0649
590,0.0664
591,0.0647
592,0.0655
593,0.0655
594,0.0658
595,0.0666
596,0.0660
597,0.0651
598,0.0672
599,0.0685
600,0.0673
601,0.0677
602,0.0694
603,0.0699
604,0.0705
605,0.0720
606,0.0723
607,0.0727
608,0.0740
609,0.0744
610,0.0765
611,0.0780
612,0.0792
613,0.0801
614,0.0800
615,0.0830
616,0.0812
617,0.0822
618,0.0831
619,0.0851
620,0.0859
621,0.0863
622,0.0864
623,0.0879
624,0.0885
625,0.0876
626,0.0881
627,0.0882
628,0.0880
629,0.0902
630,0.0880
631,0.0889
632,0.0876
633,0.0863
634,0.0846
635,0.0836
636,0.0828
637,0.0846
638,0.0832
639,0.0833
640,0.0825
641,0.0829
642,0.0817
643,0.0812
644,0.0800
645,0.0788
646,0.0773
647,0.0756
648,0.0759
649,0.0746
650,0.0724
651,0.0724
652,0.0708
653,0.0695
654,0.0676
655,0.0665
656,0.0663
657,0.0652
658,0.0643
659,0.0632
660,0.0628
661,0.0616
662,0.0613
663,0.0601
664,0.0600
665,0.0601
666,0.0591
667,0.0590
668,0.0585
669,0.0578
670,0.0579
671,0.0576
672,0.0577
673,0.0565
674,0.0561
675,0.0568
676,0.0560
677,0.0563
678,0.0559
679,0.0568
680,0.0561
681,0.0573
682,0.0568
683,0.0571
684,0.0580
685,0.0581
686,0.0595
687,0.0572
688,0.0586
689,0.0604
690,0.0596
691,0.0603
692,0.0616
693,0.0620
694,0.0629
695,0.0637
696,0.0635
697,0.0653
698,0.0650
699,0.0662
700,0.0673
701,0.0667
702,0.0679
703,0.0679
704,0.0673
705,0.0677
706,0.0689
707,0.0680
708,0.0688
709,0.0699
710,0.0691
711,0.0710
712,0.0713
713,0.0715
714,0.0707
715,0.0721
716,0.0721
717,0.0715
718,0.0712
719,0.0707
720,0.0697
721,0.0682
722,0.0684
723,0.0685
724,0.0670
725,0.0668
726,0.0672
727,0.0681
728,0.0664
729,0.0680
730,0.0660
731,0.0660
732,0.0660
733,0.0649
734,0.0658
735,0.0656
736,0.0650
737,0.0653
738,0.0657
739,0.0634
740,0.0639
741,0.0633
742,0.0622
743,0.0613
744,0.0620
745,0.0612
746,0.0606
747,0.0616
748,0.0613
749,0.0593
750,0.0598
751,0.0602
752,0.0598
753,0.0600
754,0.0600
755,0.0599
756,0.0598
757,0.0593
758,0.0596
759,0.0582
760,0.0589
761,0.0573
762,0.0565
763,0.0568
764,0.0562
765,0.0570
766,0.0558
767,0.0547
768,0.0542
769,0.0546
770,0.0538
771,0.0532
772,0.0528
773,0.0540
774,0.0538
775,0.0513
776,0.0521
777,0.0525
778,0.0520
779,0.0521
780,0.0515
781,0.0513
782,0.0518
783,0.0517
784,0.0510
785,0.0509
786,0.0505
787,0.0513
788,0.0518
789,0.0512
790,0.0511
791,0.0509
792,0.0511
793,0.0515
794,0.0502
795,0.0507
796,0.0502
797,0.0512
798,0.0510
799,0.0515
800,0.0533
801,0.0526
802,0.0536
803,0.0550
804,0.0540
805,0.0554
806,0.0556
807,0.0572
808,0.0594
809,0.0574
810,0.0596
811,0.0597
812,0.0586
813,0.0607
814,0.0595
815,0.0597
816,0.0611
817,0.0614
818,0.0616
819,0.0635
820,0.0647
821,0.0635
822,0.0620
823,0.0643
824,0.0629
825,0.0635
826,0.0632
827,0.0617
828,0.0624
829,0.0613
830,0.0623
831,0.0620
832,0.0616
833,0.0604
834,0.0586
835,0.0604
836,0.0590
837,0.0599
838,0.0585
839,0.0568
840,0.0555
841,0.0571
842,0.0576
843,0.0545
844,0.0561
845,0.0558
846,0.0551
847,0.0539
848,0.0560
849,0.0532
850,0.0536
851,0.0535
852,0.0549
853,0.0527
854,0.0525
855,0.0531
856,0.0516
857,0.0529
858,0.0528
859,0.0524
860,0.0521
861,0.0521
862,0.0525
863,0.0525
864,0.0514
865,0.0495
866,0.0525
867,0.0507
868,0.0479
869,0.0478
870,0.0487
871,0.0496
872,0.0474
873,0.0467
874,0.0463
875,0.0460
876,0.0459
877,0.0471
878,0.0468
879,0.0460
880,0.0484
881,0.0454
882,0.0475
883,0.0474
884,0.0479
885,0.0487
886,0.0498
887,0.0491
888,0.0486
889,0.0496
890,0.0514
891,0.0525
892,0.0517
893,0.0554
894,0.0549
895,0.0548
896,0.0534
897,0.0576
898,0.0540
899,0.0551
900,0.0585
901,0.0566
902,0.0566
903,0.0580
904,0.0592
905,0.0594
906,0.0603
907,0.0620
908,0.0603
909,0.0619
910,0.0595
911,0.0576
912,0.0578
913,0.0569
914,0.0545
915,0.0525
916,0.0547
917,0.0506
918,0.0495
919,0.0491
920,0.0509
921,0.0469
922,0.0467
923,0.0438
924,0.0446
925,0.0438
926,0.0431
927,0.0416
928,0.0380
929,0.0420
930,0.0382
931,0.0351
932,0.0371
933,0.0321
934,0.0336
935,0.0290
936,0.0254
937,0.0226
938,0.0215
939,0.0178
940,0.0160
941,0.0123
942,0.0144
943,0.0122
944,0.0133
945,0.0142
946,0.0141
947,0.0196
