382,NaN
383,0.6004
384,1.0000
385,1.0000
386,0.0000
387,0.5192
388,0.2214
389,0.1149
390,0.1364
391,0.3609
392,0.3419
393,0.3422
394,0.0275
395,0.1345
396,0.1602
397,0.1457
398,0.0752
399,0.1561
400,0.2037
401,0.4213
402,0.0000
403,0.1865
404,0.2148
405,0.2084
406,0.1100
407,0.0822
408,0.1300
409,0.0100
410,0.1397
411,0.0583
412,0.1841
413,0.1585
414,0.0488
415,0.0623
416,0.0877
417,0.0502
418,0.1005
419,0.0823
420,0.0902
421,0.0303
422,0.0684
423,0.0910
424,0.0778
425,0.1016
426,0.1395
427,0.1448
428,0.1395
429,0.1296
430,0.1579
431,0.1306
432,0.1718
433,0.1727
434,0.1511
435,0.2020
436,0.1905
437,0.1948
438,0.2108
439,0.2029
440,0.2104
441,0.2087
442,0.2230
443,0.2405
444,0.2174
445,0.2136
446,0.2166
447,0.2046
448,0.1850
449,0.2006
450,0.1864
451,0.1989
452,0.1789
453,0.1883
454,0.1696
455,0.1827
456,0.1778
457,0.1664
458,0.1702
459,0.1564
460,0.1519
461,0.1572
462,0.1484
463,0.1539
464,0.1246
465,0.1251
466,0.1333
467,0.1165
468,0.1222
469,0.1157
470,0.1056
471,0.0930
472,0.1014
473,0.0914
474,0.1044
475,0.0936
476,0.0988
477,0.1015
478,0.1021
479,0.0915
480,0.1037
481,0.0995
482,0.0995
483,0.0979
484,0.0966
485,0.1088
486,0.1116
487,0.1162
488,0.1194
489,0.1238
490,0.1313
491,0.1258
492,0.1384
493,0.1475
494,0.1502
495,0.1588
496,0.1587
497,0.1569
498,0.1699
499,0.1690
500,0.1753
501,0.1792
502,0.1785
503,0.1700
504,0.1757
505,0.1734
506,0.1807
507,0.1847
508,0.1763
509,0.1824
510,0.1797
511,0.1698
512,0.1671
513,0.1686
514,0.1675
515,0.1627
516,0.1625
517,0.1583
518,0.1540
519,0.1493
520,0.1528
521,0.1456
522,0.1453
523,0.1411
524,0.1384
525,0.1380
526,0.1348
527,0.1331
528,0.1301
529,0.1284
530,0.1254
531,0.1227
532,0.1208
533,0.1177
534,0.1167
535,0.1143
536,0.1137
537,0.1078
538,0.1065
539,0.1034
540,0.1002
541,0.0984
542,0.0947
543,0.0924
544,0.0887
545,0.0862
546,0.0855
547,0.0825
548,0.0801
549,0.0768
550,0.0761
551,0.0713
552,0.0705
553,0.0696
554,0.0666
555,0.0617
556,0.0609
557,0.0608
558,0.0586
559,0.0569
560,0.0539
561,0.0529
562,0.0524
563,0.0514
564,0.0486
565,0.0480
566,0.0451
567,0.0462
568,0.0453
569,0.0451
570,0.0455
571,0.0449
572,0.0446
573,0.0439
574,0.0433
575,0.0415
576,0.0431
577,0.0433
578,0.0439
579,0.0459
580,0.0454
581,0.0443
582,0.0459
583,0.0453
584,0.0474
585,0.0481
586,0.0484
587,0.0490
588,0.0498
589,0.0518
590,0.0539
591,0.0527
592,0.0544
593,0.0565
594,0.0582
595,0.0588
596,0.0617
597,0.0620
598,0.0636
599,0.0651
600,0.0658
601,0.0680
602,0.0693
603,0.0705
604,0.0722
605,0.0734
606,0.0748
607,0.0777
608,0.0781
609,0.0797
610,0.0799
611,0.0835
612,0.0840
613,0.0844
614,0.0858
615,0.0888
616,0.0893
617,0.0897
618,0.0897
619,0.0928
620,0.0936
621,0.0946
622,0.0959
623,0.0975
624,0.0979
625,0.0984
626,0.0995
627,0.1001
628,0.1004
629,0.1007
630,0.1013
631,0.1004
632,0.1005
633,0.0997
634,0.0983
635,0.0968
636,0.0975
637,0.0986
638,0.0984
639,0.0998
640,0.0979
641,0.0981
642,0.0973
643,0.0974
644,0.0960
645,0.0952
646,0.0942
647,0.0935
648,0.0926
649,0.0920
650,0.0910
651,0.0890
652,0.0879
653,0.0864
654,0.0841
655,0.0851
656,0.0834
657,0.0805
658,0.0799
659,0.0787
660,0.0783
661,0.0750
662,0.0748
663,0.0731
664,0.0724
665,0.0706
666,0.0708
667,0.0692
668,0.0682
669,0.0673
670,0.0663
671,0.0646
672,0.0623
673,0.0618
674,0.0598
675,0.0591
676,0.0585
677,0.0566
678,0.0556
679,0.0535
680,0.0533
681,0.0524
682,0.0519
683,0.0505
684,0.0492
685,0.0479
686,0.0469
687,0.0465
688,0.0453
689,0.0456
690,0.0444
691,0.0428
692,0.0421
693,0.0404
694,0.0414
695,0.0398
696,0.0393
697,0.0391
698,0.0382
699,0.0377
700,0.0364
701,0.0360
702,0.0365
703,0.0353
704,0.0337
705,0.0344
706,0.0340
707,0.0335
708,0.0335
709,0.0332
710,0.0324
711,0.0340
712,0.0316
713,0.0320
714,0.0317
715,0.0326
716,0.0312
717,0.0321
718,0.0319
719,0.0323
720,0.0317
721,0.0308
722,0.0309
723,0.0319
724,0.0316
725,0.0309
726,0.0315
727,0.0325
728,0.0308
729,0.0317
730,0.0332
731,0.0329
732,0.0342
733,0.0341
734,0.0345
735,0.0363
736,0.0358
737,0.0372
738,0.0376
739,0.0373
740,0.0381
741,0.0385
742,0.0397
743,0.0393
744,0.0410
745,0.0423
746,0.0407
747,0.0429
748,0.0433
749,0.0441
750,0.0453
751,0.0458
752,0.0463
753,0.0468
754,0.0490
755,0.0495
756,0.0510
757,0.0518
758,0.0524
759,0.0543
760,0.0528
761,0.0543
762,0.0536
763,0.0553
764,0.0577
765,0.0576
766,0.0571
767,0.0566
768,0.0593
769,0.0598
770,0.0596
771,0.0616
772,0.0613
773,0.0602
774,0.0608
775,0.0619
776,0.0623
777,0.0624
778,0.0652
779,0.0636
780,0.0651
781,0.0652
782,0.0655
783,0.0667
784,0.0659
785,0.0676
786,0.0665
787,0.0685
788,0.0683
789,0.0686
790,0.0674
791,0.0666
792,0.0701
793,0.0698
794,0.0686
795,0.0685
796,0.0700
797,0.0710
798,0.0707
799,0.0718
800,0.0737
801,0.0725
802,0.0731
803,0.0741
804,0.0756
805,0.0751
806,0.0765
807,0.0775
808,0.0794
809,0.0793
810,0.0802
811,0.0790
812,0.0796
813,0.0809
814,0.0802
815,0.0799
816,0.0806
817,0.0809
818,0.0812
819,0.0825
820,0.0832
821,0.0819
822,0.0807
823,0.0822
824,0.0801
825,0.0811
826,0.0798
827,0.0794
828,0.0768
829,0.0769
830,0.0766
831,0.0744
832,0.0745
833,0.0722
834,0.0724
835,0.0711
836,0.0709
837,0.0698
838,0.0685
839,0.0672
840,0.0653
841,0.0661
842,0.0655
843,0.0631
844,0.0630
845,0.0610
846,0.0607
847,0.0609
848,0.0603
849,0.0579
850,0.0580
851,0.0591
852,0.0572
853,0.0561
854,0.0576
855,0.0545
856,0.0542
857,0.0559
858,0.0541
859,0.0526
860,0.0533
861,0.0513
862,0.0526
863,0.0515
864,0.0504
865,0.0488
866,0.0491
867,0.0481
868,0.0477
869,0.0464
870,0.0461
871,0.0442
872,0.0444
873,0.0432
874,0.0421
875,0.0418
876,0.0415
877,0.0420
878,0.0409
879,0.0418
880,0.0411
881,0.0393
882,0.0402
883,0.0426
884,0.0394
885,0.0419
886,0.0414
887,0.0415
888,0.0402
889,0.0396
890,0.0417
891,0.0409
892,0.0403
893,0.0421
894,0.0426
895,0.0415
896,0.0401
897,0.0412
898,0.0387
899,0.0400
900,0.0395
901,0.0407
902,0.0393
903,0.0388
904,0.0425
905,0.0415
906,0.0390
907,0.0443
908,0.0409
909,0.0407
910,0.0403
911,0.0366
912,0.0389
913,0.0346
914,0.0366
915,0.0332
916,0.0340
917,0.0312
918,0.0314
919,0.0289
920,0.0315
921,0.0251
922,0.0251
923,0.0260
924,0.0258
925,0.0239
926,0.0235
927,0.0233
928,0.0204
929,0.0233
930,0.0212
931,0.0194
932,0.0197
933,0.0156
934,0.0183
935,0.0145
936,0.0130
937,0.0122
938,0.0106
939,0.0060
940,0.0082
941,0.0072
942,0.0062
943,0.0063
944,0.0059
945,0.0072
946,0.0064
947,0.0125
