382,NaN
383,0.3091
384,1.0000
385,1.0000
386,0.3796
387,0.1727
388,0.1097
389,0.1558
390,0.0777
391,0.2704
392,0.1019
393,0.3519
394,0.0777
395,0.0024
396,0.2605
397,0.0635
398,0.2243
399,0.1507
400,0.1382
401,0.3412
402,0.1248
403,0.2438
404,0.1242
405,0.1271
406,0.1535
407,0.1154
408,0.1569
409,0.1132
410,0.2065
411,0.1747
412,0.1901
413,0.1614
414,0.1382
415,0.1110
416,0.1139
417,0.1634
418,0.1041
419,0.1345
420,0.1480
421,0.1204
422,0.1492
423,0.1303
424,0.1309
425,0.1174
426,0.1680
427,0.1432
428,0.1003
429,0.1454
430,0.1800
431,0.1437
432,0.1656
433,0.1247
434,0.1433
435,0.1579
436,0.1424
437,0.1414
438,0.1562
439,0.1484
440,0.1485
441,0.1716
442,0.1460
443,0.1777
444,0.1474
445,0.1448
446,0.1579
447,0.1558
448,0.1214
449,0.1464
450,0.1318
451,0.1160
452,0.1355
453,0.1552
454,0.1582
455,0.1441
456,0.1239
457,0.1334
458,0.1286
459,0.1179
460,0.1267
461,0.1332
462,0.1299
463,0.1386
464,0.1128
465,0.1153
466,0.1348
467,0.1288
468,0.1355
469,0.1434
470,0.1241
471,0.1474
472,0.1487
473,0.1395
474,0.1466
475,0.1582
476,0.1523
477,0.1559
478,0.1635
479,0.1762
480,0.1672
481,0.1583
482,0.1753
483,0.1801
484,0.1790
485,0.1889
486,0.1852
487,0.1949
488,0.1970
489,0.1927
490,0.1998
491,0.1885
492,0.1904
493,0.2025
494,0.1998
495,0.1961
496,0.1916
497,0.1810
498,0.2029
499,0.1840
500,0.1885
501,0.1843
502,0.1829
503,0.1659
504,0.1640
505,0.1691
506,0.1641
507,0.1590
508,0.1609
509,0.1570
510,0.1473
511,0.1426
512,0.1379
513,0.1361
514,0.1376
515,0.1313
516,0.1297
517,0.1229
518,0.1185
519,0.1147
520,0.1195
521,0.1086
522,0.1127
523,0.1065
524,0.1076
525,0.1037
526,0.1061
527,0.1043
528,0.1018
529,0.1022
530,0.0986
531,0.0983
532,0.0993
533,0.0946
534,0.0967
535,0.0928
536,0.0949
537,0.0900
538,0.0919
539,0.0918
540,0.0900
541,0.0895
542,0.0855
543,0.0885
544,0.0880
545,0.0859
546,0.0864
547,0.0865
548,0.0835
549,0.0835
550,0.0826
551,0.0815
552,0.0822
553,0.0819
554,0.0827
555,0.0799
556,0.0792
557,0.0783
558,0.0807
559,0.0797
560,0.0771
561,0.0771
562,0.0780
563,0.0753
564,0.0772
565,0.0761
566,0.0733
567,0.0757
568,0.0748
569,0.0753
570,0.0758
571,0.0747
572,0.0735
573,0.0732
574,0.0709
575,0.0713
576,0.0714
577,0.0720
578,0.0701
579,0.0717
580,0.0716
581,0.0679
582,0.0686
583,0.0675
584,0.0681
585,0.0674
586,0.0679
587,0.0662
588,0.0663
589,0.0647
590,0.0663
591,0.0644
592,0.0652
593,0.0658
594,0.0651
595,0.0657
596,0.0646
597,0.0642
598,0.0651
599,0.0637
600,0.0616
601,0.0652
602,0.0648
603,0.0635
604,0.0649
605,0.0640
606,0.0646
607,0.0638
608,0.0642
609,0.0653
610,0.0645
611,0.0646
612,0.0658
613,0.0665
614,0.0654
615,0.0658
616,0.0654
617,0.0649
618,0.0675
619,0.0671
620,0.0673
621,0.0673
622,0.0687
623,0.0699
624,0.0703
625,0.0703
626,0.0690
627,0.0693
628,0.0711
629,0.0699
630,0.0705
631,0.0705
632,0.0692
633,0.0707
634,0.0698
635,0.0687
636,0.0703
637,0.0710
638,0.0699
639,0.0710
640,0.0705
641,0.0719
642,0.0715
643,0.0714
644,0.0722
645,0.0713
646,0.0711
647,0.0705
648,0.0714
649,0.0707
650,0.0717
651,0.0697
652,0.0704
653,0.0704
654,0.0695
655,0.0694
656,0.0690
657,0.0685
658,0.0692
659,0.0686
660,0.0703
661,0.0680
662,0.0683
663,0.0684
664,0.0687
665,0.0680
666,0.0675
667,0.0686
668,0.0691
669,0.0687
670,0.0678
671,0.0695
672,0.0667
673,0.0676
674,0.0666
675,0.0690
676,0.0672
677,0.0670
678,0.0667
679,0.0661
680,0.0673
681,0.0674
682,0.0663
683,0.0672
684,0.0665
685,0.0666
686,0.0671
687,0.0651
688,0.0669
689,0.0673
690,0.0667
691,0.0668
692,0.0660
693,0.0659
694,0.0663
695,0.0667
696,0.0656
697,0.0664
698,0.0657
699,0.0668
700,0.0661
701,0.0658
702,0.0638
703,0.0649
704,0.0628
705,0.0643
706,0.0634
707,0.0631
708,0.0636
709,0.0643
710,0.0623
711,0.0636
712,0.0631
713,0.0624
714,0.0621
715,0.0608
716,0.0607
717,0.0604
718,0.0590
719,0.0600
720,0.0586
721,0.0571
722,0.0562
723,0.0560
724,0.0551
725,0.0551
726,0.0544
727,0.0556
728,0.0530
729,0.0527
730,0.0528
731,0.0533
732,0.0533
733,0.0527
734,0.0531
735,0.0535
736,0.0521
737,0.0523
738,0.0522
739,0.0521
740,0.0517
741,0.0519
742,0.0509
743,0.0511
744,0.0503
745,0.0512
746,0.0512
747,0.0516
748,0.0507
749,0.0499
750,0.0508
751,0.0509
752,0.0500
753,0.0508
754,0.0503
755,0.0511
756,0.0512
757,0.0512
758,0.0494
759,0.0507
760,0.0516
761,0.0511
762,0.0497
763,0.0509
764,0.0500
765,0.0511
766,0.0491
767,0.0504
768,0.0501
769,0.0485
770,0.0478
771,0.0483
772,0.0479
773,0.0486
774,0.0492
775,0.0484
776,0.0491
777,0.0487
778,0.0493
779,0.0483
780,0.0483
781,0.0488
782,0.0479
783,0.0480
784,0.0471
785,0.0486
786,0.0474
787,0.0478
788,0.0484
789,0.0482
790,0.0478
791,0.0463
792,0.0484
793,0.0466
794,0.0464
795,0.0461
796,0.0467
797,0.0480
798,0.0469
799,0.0486
800,0.0484
801,0.0494
802,0.0473
803,0.0500
804,0.0509
805,0.0525
806,0.0507
807,0.0530
808,0.0528
809,0.0520
810,0.0537
811,0.0523
812,0.0526
813,0.0564
814,0.0544
815,0.0544
816,0.0553
817,0.0554
818,0.0550
819,0.0577
820,0.0574
821,0.0568
822,0.0567
823,0.0558
824,0.0554
825,0.0568
826,0.0559
827,0.0566
828,0.0556
829,0.0559
830,0.0546
831,0.0544
832,0.0537
833,0.0521
834,0.0536
835,0.0530
836,0.0528
837,0.0522
838,0.0512
839,0.0517
840,0.0508
841,0.0509
842,0.0511
843,0.0497
844,0.0505
845,0.0504
846,0.0487
847,0.0499
848,0.0512
849,0.0482
850,0.0479
851,0.0488
852,0.0491
853,0.0495
854,0.0496
855,0.0480
856,0.0486
857,0.0504
858,0.0501
859,0.0487
860,0.0478
861,0.0500
862,0.0498
863,0.0505
864,0.0489
865,0.0469
866,0.0505
867,0.0501
868,0.0484
869,0.0472
870,0.0470
871,0.0471
872,0.0471
873,0.0458
874,0.0471
875,0.0455
876,0.0451
877,0.0476
878,0.0459
879,0.0474
880,0.0468
881,0.0466
882,0.0488
883,0.0501
884,0.0503
885,0.0505
886,0.0524
887,0.0538
888,0.0511
889,0.0519
890,0.0535
891,0.0534
892,0.0552
893,0.0586
894,0.0578
895,0.0569
896,0.0579
897,0.0592
898,0.0576
899,0.0583
900,0.0616
901,0.0610
902,0.0612
903,0.0602
904,0.0631
905,0.0650
906,0.0621
907,0.0684
908,0.0651
909,0.0679
910,0.0680
911,0.0610
912,0.0634
913,0.0607
914,0.0589
915,0.0593
916,0.0605
917,0.0541
918,0.0556
919,0.0539
920,0.0544
921,0.0496
922,0.0512
923,0.0468
924,0.0485
925,0.0466
926,0.0473
927,0.0434
928,0.0446
929,0.0429
930,0.0412
931,0.0370
932,0.0362
933,0.0333
934,0.0347
935,0.0313
936,0.0274
937,0.0214
938,0.0210
939,0.0177
940,0.0154
941,0.0147
942,0.0140
943,0.0127
944,0.0140
945,0.0132
946,0.0132
947,0.0230
