382,NaN
383,0.0000
384,0.0000
385,1.0000
386,0.0000
387,0.0611
388,0.2973
389,0.0215
390,0.0621
391,0.0000
392,0.1629
393,0.0308
394,0.1163
395,0.0000
396,0.1886
397,0.1120
398,0.0132
399,0.1494
400,0.1375
401,0.3113
402,0.0000
403,0.1453
404,0.0163
405,0.1324
406,0.1253
407,0.1171
408,0.1236
409,0.0825
410,0.2477
411,0.1889
412,0.1969
413,0.1276
414,0.1392
415,0.1290
416,0.1589
417,0.1164
418,0.0936
419,0.1642
420,0.1168
421,0.1360
422,0.1424
423,0.1413
424,0.1235
425,0.1090
426,0.1552
427,0.1302
428,0.1632
429,0.1796
430,0.1834
431,0.1522
432,0.1572
433,0.1394
434,0.1621
435,0.1737
436,0.1762
437,0.1477
438,0.1706
439,0.1629
440,0.1749
441,0.1814
442,0.1838
443,0.1898
444,0.1759
445,0.1898
446,0.1702
447,0.1530
448,0.1833
449,0.1738
450,0.1788
451,0.1581
452,0.1605
453,0.1648
454,0.1736
455,0.1953
456,0.1755
457,0.1624
458,0.1721
459,0.1674
460,0.1632
461,0.1791
462,0.1712
463,0.1847
464,0.1660
465,0.1618
466,0.1715
467,0.1744
468,0.1891
469,0.1805
470,0.1605
471,0.1890
472,0.1870
473,0.1858
474,0.1884
475,0.1891
476,0.1970
477,0.2031
478,0.1996
479,0.2199
480,0.2245
481,0.1983
482,0.2179
483,0.2249
484,0.2061
485,0.2242
486,0.2167
487,0.2250
488,0.2187
489,0.2119
490,0.2141
491,0.2156
492,0.2143
493,0.2158
494,0.2128
495,0.2040
496,0.1996
497,0.1906
498,0.1908
499,0.1726
500,0.1853
501,0.1747
502,0.1708
503,0.1472
504,0.1506
505,0.1461
506,0.1428
507,0.1395
508,0.1354
509,0.1285
510,0.1217
511,0.1085
512,0.1104
513,0.1068
514,0.1052
515,0.1005
516,0.0964
517,0.0911
518,0.0861
519,0.0858
520,0.0830
521,0.0777
522,0.0785
523,0.0742
524,0.0735
525,0.0710
526,0.0706
527,0.0692
528,0.0666
529,0.0657
530,0.0636
531,0.0606
532,0.0615
533,0.0598
534,0.0609
535,0.0580
536,0.0580
537,0.0591
538,0.0562
539,0.0561
540,0.0556
541,0.0556
542,0.0551
543,0.0542
544,0.0545
545,0.0547
546,0.0571
547,0.0548
548,0.0548
549,0.0553
550,0.0549
551,0.0538
552,0.0545
553,0.0566
554,0.0555
555,0.0558
556,0.0558
557,0.0567
558,0.0559
559,0.0582
560,0.0579
561,0.0578
562,0.0592
563,0.0584
564,0.0599
565,0.0596
566,0.0580
567,0.0597
568,0.0620
569,0.0631
570,0.0633
571,0.0638
572,0.0644
573,0.0658
574,0.0660
575,0.0653
576,0.0655
577,0.0673
578,0.0671
579,0.0682
580,0.0695
581,0.0692
582,0.0681
583,0.0690
584,0.0691
585,0.0706
586,0.0719
587,0.0707
588,0.0715
589,0.0713
590,0.0740
591,0.0720
592,0.0729
593,0.0733
594,0.0731
595,0.0739
596,0.0760
597,0.0745
598,0.0763
599,0.0785
600,0.0775
601,0.0792
602,0.0802
603,0.0794
604,0.0800
605,0.0800
606,0.0815
607,0.0826
608,0.0831
609,0.0829
610,0.0838
611,0.0845
612,0.0865
613,0.0870
614,0.0851
615,0.0870
616,0.0875
617,0.0869
618,0.0878
619,0.0897
620,0.0886
621,0.0913
622,0.0914
623,0.0915
624,0.0922
625,0.0931
626,0.0917
627,0.0920
628,0.0941
629,0.0956
630,0.0947
631,0.0946
632,0.0941
633,0.0943
634,0.0933
635,0.0929
636,0.0933
637,0.0940
638,0.0932
639,0.0950
640,0.0951
641,0.0958
642,0.0939
643,0.0943
644,0.0947
645,0.0941
646,0.0938
647,0.0930
648,0.0936
649,0.0928
650,0.0922
651,0.0919
652,0.0913
653,0.0916
654,0.0902
655,0.0909
656,0.0897
657,0.0894
658,0.0894
659,0.0890
660,0.0885
661,0.0874
662,0.0871
663,0.0868
664,0.0867
665,0.0871
666,0.0872
667,0.0858
668,0.0856
669,0.0854
670,0.0856
671,0.0851
672,0.0834
673,0.0838
674,0.0820
675,0.0820
676,0.0821
677,0.0812
678,0.0816
679,0.0796
680,0.0809
681,0.0812
682,0.0807
683,0.0792
684,0.0782
685,0.0784
686,0.0786
687,0.0758
688,0.0775
689,0.0768
690,0.0775
691,0.0778
692,0.0754
693,0.0752
694,0.0752
695,0.0740
696,0.0747
697,0.0743
698,0.0733
699,0.0741
700,0.0728
701,0.0722
702,0.0706
703,0.0709
704,0.0698
705,0.0693
706,0.0689
707,0.0671
708,0.0681
709,0.0673
710,0.0667
711,0.0665
712,0.0647
713,0.0648
714,0.0630
715,0.0632
716,0.0626
717,0.0610
718,0.0599
719,0.0592
720,0.0585
721,0.0567
722,0.0550
723,0.0546
724,0.0525
725,0.0535
726,0.0535
727,0.0534
728,0.0515
729,0.0494
730,0.0496
731,0.0494
732,0.0490
733,0.0476
734,0.0485
735,0.0480
736,0.0476
737,0.0457
738,0.0449
739,0.0456
740,0.0439
741,0.0443
742,0.0437
743,0.0435
744,0.0431
745,0.0416
746,0.0420
747,0.0407
748,0.0404
749,0.0407
750,0.0392
751,0.0405
752,0.0397
753,0.0404
754,0.0389
755,0.0396
756,0.0386
757,0.0385
758,0.0379
759,0.0383
760,0.0374
761,0.0358
762,0.0370
763,0.0356
764,0.0362
765,0.0358
766,0.0343
767,0.0336
768,0.0339
769,0.0329
770,0.0329
771,0.0326
772,0.0322
773,0.0310
774,0.0327
775,0.0311
776,0.0318
777,0.0299
778,0.0305
779,0.0307
780,0.0294
781,0.0299
782,0.0301
783,0.0290
784,0.0283
785,0.0283
786,0.0281
787,0.0291
788,0.0291
789,0.0280
790,0.0279
791,0.0264
792,0.0275
793,0.0273
794,0.0268
795,0.0273
796,0.0263
797,0.0259
798,0.0272
799,0.0265
800,0.0277
801,0.0267
802,0.0259
803,0.0277
804,0.0273
805,0.0267
806,0.0269
807,0.0282
808,0.0275
809,0.0272
810,0.0295
811,0.0283
812,0.0275
813,0.0291
814,0.0287
815,0.0293
816,0.0284
817,0.0282
818,0.0280
819,0.0299
820,0.0306
821,0.0298
822,0.0286
823,0.0288
824,0.0286
825,0.0283
826,0.0288
827,0.0277
828,0.0280
829,0.0278
830,0.0283
831,0.0294
832,0.0266
833,0.0275
834,0.0280
835,0.0270
836,0.0279
837,0.0278
838,0.0271
839,0.0266
840,0.0257
841,0.0277
842,0.0268
843,0.0260
844,0.0286
845,0.0264
846,0.0276
847,0.0255
848,0.0266
849,0.0261
850,0.0263
851,0.0276
852,0.0265
853,0.0271
854,0.0283
855,0.0271
856,0.0273
857,0.0284
858,0.0274
859,0.0272
860,0.0280
861,0.0277
862,0.0294
863,0.0295
864,0.0273
865,0.0282
866,0.0294
867,0.0302
868,0.0290
869,0.0290
870,0.0289
871,0.0289
872,0.0296
873,0.0280
874,0.0289
875,0.0283
876,0.0290
877,0.0299
878,0.0297
879,0.0303
880,0.0320
881,0.0300
882,0.0323
883,0.0325
884,0.0319
885,0.0327
886,0.0344
887,0.0353
888,0.0345
889,0.0354
890,0.0383
891,0.0376
892,0.0380
893,0.0397
894,0.0424
895,0.0405
896,0.0432
897,0.0425
898,0.0445
899,0.0440
900,0.0487
901,0.0459
902,0.0454
903,0.0472
904,0.0505
905,0.0509
906,0.0509
907,0.0530
908,0.0531
909,0.0536
910,0.0525
911,0.0515
912,0.0522
913,0.0485
914,0.0497
915,0.0513
916,0.0502
917,0.0496
918,0.0461
919,0.0448
920,0.0478
921,0.0438
922,0.0442
923,0.0436
924,0.0411
925,0.0404
926,0.0393
927,0.0381
928,0.0372
929,0.0392
930,0.0376
931,0.0341
932,0.0345
933,0.0333
934,0.0322
935,0.0320
936,0.0270
937,0.0236
938,0.0224
939,0.0185
940,0.0162
941,0.0153
942,0.0150
943,0.0121
944,0.0142
945,0.0135
946,0.0150
947,0.0148
