382,NaN
383,1.0000
384,1.0000
385,0.3025
386,0.0000
387,0.3663
388,0.3200
389,0.2475
390,0.0000
391,0.1658
392,0.3252
393,0.2406
394,0.0981
395,0.1266
396,0.2253
397,0.0631
398,0.1898
399,0.0523
400,0.1318
401,0.3962
402,0.0444
403,0.2108
404,0.1535
405,0.2107
406,0.1439
407,0.0221
408,0.1302
409,0.1836
410,0.2181
411,0.1690
412,0.1678
413,0.0365
414,0.0829
415,0.1501
416,0.1280
417,0.1541
418,0.0777
419,0.0623
420,0.1457
421,0.0993
422,0.1170
423,0.1064
424,0.1194
425,0.1090
426,0.1685
427,0.0629
428,0.1150
429,0.1298
430,0.1693
431,0.1615
432,0.1207
433,0.1194
434,0.1380
435,0.1480
436,0.1495
437,0.1335
438,0.1679
439,0.1542
440,0.1660
441,0.1680
442,0.1534
443,0.1899
444,0.1444
445,0.1840
446,0.1665
447,0.1645
448,0.1632
449,0.1802
450,0.1853
451,0.1469
452,0.1458
453,0.1824
454,0.1790
455,0.1787
456,0.1781
457,0.1646
458,0.1748
459,0.1716
460,0.1704
461,0.1811
462,0.1851
463,0.1932
464,0.1877
465,0.1700
466,0.1861
467,0.1817
468,0.2008
469,0.2032
470,0.1870
471,0.1902
472,0.1943
473,0.1982
474,0.2007
475,0.2065
476,0.2089
477,0.2192
478,0.2232
479,0.2369
480,0.2349
481,0.2208
482,0.2343
483,0.2539
484,0.2374
485,0.2537
486,0.2510
487,0.2608
488,0.2578
489,0.2537
490,0.2580
491,0.2482
492,0.2602
493,0.2546
494,0.2484
495,0.2425
496,0.2433
497,0.2240
498,0.2333
499,0.2174
500,0.2235
501,0.2211
502,0.2146
503,0.1933
504,0.1919
505,0.1852
506,0.1826
507,0.1784
508,0.1712
509,0.1678
510,0.1584
511,0.1483
512,0.1443
513,0.1384
514,0.1385
515,0.1334
516,0.1285
517,0.1208
518,0.1138
519,0.1142
520,0.1115
521,0.1050
522,0.1038
523,0.0993
524,0.1025
525,0.0964
526,0.0946
527,0.0945
528,0.0881
529,0.0860
530,0.0848
531,0.0836
532,0.0844
533,0.0791
534,0.0785
535,0.0784
536,0.0780
537,0.0766
538,0.0744
539,0.0734
540,0.0732
541,0.0709
542,0.0701
543,0.0679
544,0.0666
545,0.0678
546,0.0689
547,0.0640
548,0.0653
549,0.0648
550,0.0635
551,0.0625
552,0.0611
553,0.0609
554,0.0597
555,0.0585
556,0.0590
557,0.0596
558,0.0581
559,0.0572
560,0.0561
561,0.0552
562,0.0554
563,0.0565
564,0.0541
565,0.0543
566,0.0511
567,0.0519
568,0.0540
569,0.0540
570,0.0527
571,0.0518
572,0.0510
573,0.0508
574,0.0510
575,0.0504
576,0.0498
577,0.0498
578,0.0473
579,0.0502
580,0.0485
581,0.0471
582,0.0460
583,0.0460
584,0.0460
585,0.0465
586,0.0459
587,0.0447
588,0.0445
589,0.0437
590,0.0443
591,0.0437
592,0.0436
593,0.0451
594,0.0449
595,0.0428
596,0.0434
597,0.0425
598,0.0433
599,0.0436
600,0.0423
601,0.0437
602,0.0441
603,0.0436
604,0.0437
605,0.0434
606,0.0432
607,0.0442
608,0.0438
609,0.0443
610,0.0440
611,0.0445
612,0.0461
613,0.0456
614,0.0455
615,0.0455
616,0.0461
617,0.0461
618,0.0466
619,0.0461
620,0.0473
621,0.0485
622,0.0484
623,0.0497
624,0.0501
625,0.0496
626,0.0508
627,0.0509
628,0.0511
629,0.0521
630,0.0510
631,0.0523
632,0.0503
633,0.0516
634,0.0516
635,0.0511
636,0.0533
637,0.0522
638,0.0517
639,0.0534
640,0.0548
641,0.0551
642,0.0548
643,0.0551
644,0.0558
645,0.0567
646,0.0560
647,0.0572
648,0.0569
649,0.0565
650,0.0575
651,0.0557
652,0.0573
653,0.0571
654,0.0565
655,0.0582
656,0.0577
657,0.0567
658,0.0588
659,0.0584
660,0.0583
661,0.0596
662,0.0589
663,0.0605
664,0.0603
665,0.0617
666,0.0599
667,0.0622
668,0.0629
669,0.0626
670,0.0636
671,0.0655
672,0.0622
673,0.0640
674,0.0635
675,0.0661
676,0.0656
677,0.0648
678,0.0659
679,0.0657
680,0.0665
681,0.0679
682,0.0677
683,0.0684
684,0.0687
685,0.0680
686,0.0689
687,0.0681
688,0.0693
689,0.0717
690,0.0718
691,0.0721
692,0.0722
693,0.0723
694,0.0720
695,0.0743
696,0.0738
697,0.0751
698,0.0754
699,0.0759
700,0.0767
701,0.0755
702,0.0759
703,0.0776
704,0.0761
705,0.0766
706,0.0774
707,0.0773
708,0.0780
709,0.0789
710,0.0786
711,0.0797
712,0.0794
713,0.0800
714,0.0783
715,0.0800
716,0.0791
717,0.0796
718,0.0785
719,0.0777
720,0.0782
721,0.0765
722,0.0763
723,0.0765
724,0.0753
725,0.0767
726,0.0763
727,0.0763
728,0.0754
729,0.0748
730,0.0755
731,0.0753
732,0.0772
733,0.0751
734,0.0775
735,0.0768
736,0.0776
737,0.0771
738,0.0773
739,0.0772
740,0.0768
741,0.0768
742,0.0770
743,0.0767
744,0.0777
745,0.0765
746,0.0765
747,0.0772
748,0.0783
749,0.0780
750,0.0784
751,0.0794
752,0.0777
753,0.0795
754,0.0816
755,0.0793
756,0.0806
757,0.0822
758,0.0809
759,0.0811
760,0.0810
761,0.0815
762,0.0796
763,0.0806
764,0.0796
765,0.0806
766,0.0795
767,0.0792
768,0.0802
769,0.0771
770,0.0779
771,0.0795
772,0.0792
773,0.0779
774,0.0786
775,0.0807
776,0.0797
777,0.0782
778,0.0773
779,0.0786
780,0.0778
781,0.0775
782,0.0790
783,0.0780
784,0.0772
785,0.0770
786,0.0786
787,0.0782
788,0.0778
789,0.0764
790,0.0771
791,0.0751
792,0.0768
793,0.0764
794,0.0753
795,0.0761
796,0.0761
797,0.0773
798,0.0760
799,0.0769
800,0.0782
801,0.0775
802,0.0787
803,0.0788
804,0.0799
805,0.0807
806,0.0795
807,0.0803
808,0.0822
809,0.0818
810,0.0842
811,0.0833
812,0.0831
813,0.0843
814,0.0817
815,0.0808
816,0.0834
817,0.0827
818,0.0829
819,0.0826
820,0.0853
821,0.0826
822,0.0845
823,0.0812
824,0.0800
825,0.0835
826,0.0824
827,0.0812
828,0.0791
829,0.0790
830,0.0773
831,0.0794
832,0.0779
833,0.0760
834,0.0751
835,0.0744
836,0.0746
837,0.0722
838,0.0712
839,0.0702
840,0.0680
841,0.0692
842,0.0691
843,0.0667
844,0.0669
845,0.0669
846,0.0646
847,0.0634
848,0.0649
849,0.0647
850,0.0642
851,0.0645
852,0.0631
853,0.0627
854,0.0621
855,0.0626
856,0.0630
857,0.0623
858,0.0609
859,0.0616
860,0.0607
861,0.0601
862,0.0599
863,0.0622
864,0.0605
865,0.0559
866,0.0590
867,0.0569
868,0.0574
869,0.0561
870,0.0563
871,0.0546
872,0.0562
873,0.0548
874,0.0556
875,0.0517
876,0.0541
877,0.0535
878,0.0532
879,0.0554
880,0.0549
881,0.0524
882,0.0537
883,0.0556
884,0.0555
885,0.0565
886,0.0558
887,0.0554
888,0.0567
889,0.0564
890,0.0583
891,0.0602
892,0.0571
893,0.0608
894,0.0625
895,0.0622
896,0.0643
897,0.0642
898,0.0611
899,0.0612
900,0.0662
901,0.0623
902,0.0623
903,0.0629
904,0.0646
905,0.0652
906,0.0642
907,0.0692
908,0.0668
909,0.0651
910,0.0657
911,0.0615
912,0.0637
913,0.0604
914,0.0586
915,0.0601
916,0.0596
917,0.0553
918,0.0542
919,0.0533
920,0.0516
921,0.0471
922,0.0463
923,0.0441
924,0.0453
925,0.0424
926,0.0430
927,0.0404
928,0.0426
929,0.0395
930,0.0389
931,0.0350
932,0.0351
933,0.0310
934,0.0306
935,0.0279
936,0.0241
937,0.0206
938,0.0199
939,0.0141
940,0.0155
941,0.0132
942,0.0107
943,0.0110
944,0.0105
945,0.0109
946,0.0127
947,0.0199
