382,NaN
383,1.0000
384,0.0696
385,0.0000
386,0.0429
387,0.2104
388,0.0641
389,0.1620
390,0.0000
391,0.1222
392,0.3489
393,0.2241
394,0.1093
395,0.0826
396,0.2546
397,0.1697
398,0.0592
399,0.1138
400,0.2845
401,0.3901
402,0.0337
403,0.1766
404,0.1580
405,0.1913
406,0.2300
407,0.1862
408,0.1651
409,0.1703
410,0.2567
411,0.1771
412,0.2571
413,0.1399
414,0.2543
415,0.1714
416,0.2082
417,0.2277
418,0.1835
419,0.2236
420,0.1673
421,0.1594
422,0.1616
423,0.1876
424,0.1916
425,0.1819
426,0.2270
427,0.1816
428,0.1882
429,0.2102
430,0.1867
431,0.2309
432,0.1894
433,0.1996
434,0.1576
435,0.2004
436,0.2063
437,0.2334
438,0.1963
439,0.2257
440,0.2373
441,0.2336
442,0.2201
443,0.2165
444,0.1923
445,0.1988
446,0.2099
447,0.1862
448,0.1844
449,0.1947
450,0.2182
451,0.1855
452,0.1819
453,0.2033
454,0.1892
455,0.1723
456,0.1899
457,0.1801
458,0.1659
459,0.1664
460,0.1733
461,0.1857
462,0.1785
463,0.1781
464,0.1894
465,0.1584
466,0.1798
467,0.1656
468,0.1874
469,0.1913
470,0.1691
471,0.1716
472,0.1764
473,0.1797
474,0.1772
475,0.1903
476,0.1800
477,0.1862
478,0.1780
479,0.1999
480,0.1856
481,0.1769
482,0.1861
483,0.1976
484,0.1852
485,0.1952
486,0.1848
487,0.1965
488,0.1886
489,0.1817
490,0.1892
491,0.1789
492,0.1782
493,0.1770
494,0.1777
495,0.1782
496,0.1625
497,0.1641
498,0.1576
499,0.1439
500,0.1416
501,0.1450
502,0.1439
503,0.1277
504,0.1176
505,0.1186
506,0.1189
507,0.1141
508,0.1111
509,0.1096
510,0.0990
511,0.0928
512,0.0980
513,0.0871
514,0.0869
515,0.0824
516,0.0802
517,0.0790
518,0.0725
519,0.0724
520,0.0704
521,0.0678
522,0.0648
523,0.0616
524,0.0622
525,0.0576
526,0.0588
527,0.0591
528,0.0594
529,0.0562
530,0.0585
531,0.0560
532,0.0548
533,0.0540
534,0.0535
535,0.0529
536,0.0537
537,0.0527
538,0.0526
539,0.0519
540,0.0510
541,0.0511
542,0.0498
543,0.0502
544,0.0503
545,0.0500
546,0.0512
547,0.0513
548,0.0499
549,0.0502
550,0.0506
551,0.0491
552,0.0502
553,0.0520
554,0.0512
555,0.0500
556,0.0512
557,0.0510
558,0.0524
559,0.0525
560,0.0518
561,0.0512
562,0.0523
563,0.0538
564,0.0548
565,0.0532
566,0.0515
567,0.0544
568,0.0552
569,0.0556
570,0.0570
571,0.0566
572,0.0573
573,0.0558
574,0.0561
575,0.0574
576,0.0581
577,0.0583
578,0.0583
579,0.0609
580,0.0580
581,0.0579
582,0.0596
583,0.0587
584,0.0604
585,0.0597
586,0.0609
587,0.0602
588,0.0599
589,0.0600
590,0.0605
591,0.0611
592,0.0618
593,0.0606
594,0.0620
595,0.0639
596,0.0628
597,0.0625
598,0.0626
599,0.0631
600,0.0645
601,0.0646
602,0.0650
603,0.0639
604,0.0649
605,0.0663
606,0.0662
607,0.0674
608,0.0678
609,0.0679
610,0.0680
611,0.0704
612,0.0706
613,0.0701
614,0.0713
615,0.0725
616,0.0720
617,0.0724
618,0.0729
619,0.0734
620,0.0736
621,0.0758
622,0.0760
623,0.0763
624,0.0760
625,0.0770
626,0.0771
627,0.0771
628,0.0780
629,0.0793
630,0.0797
631,0.0808
632,0.0788
633,0.0783
634,0.0785
635,0.0788
636,0.0798
637,0.0803
638,0.0804
639,0.0807
640,0.0817
641,0.0821
642,0.0822
643,0.0822
644,0.0831
645,0.0816
646,0.0842
647,0.0836
648,0.0846
649,0.0820
650,0.0819
651,0.0825
652,0.0834
653,0.0833
654,0.0835
655,0.0813
656,0.0828
657,0.0821
658,0.0823
659,0.0817
660,0.0827
661,0.0820
662,0.0824
663,0.0834
664,0.0824
665,0.0826
666,0.0833
667,0.0848
668,0.0841
669,0.0837
670,0.0831
671,0.0849
672,0.0844
673,0.0832
674,0.0843
675,0.0841
676,0.0840
677,0.0840
678,0.0856
679,0.0839
680,0.0849
681,0.0843
682,0.0841
683,0.0850
684,0.0861
685,0.0843
686,0.0854
687,0.0848
688,0.0873
689,0.0874
690,0.0868
691,0.0870
692,0.0875
693,0.0864
694,0.0875
695,0.0870
696,0.0876
697,0.0887
698,0.0879
699,0.0882
700,0.0878
701,0.0885
702,0.0884
703,0.0868
704,0.0857
705,0.0869
706,0.0869
707,0.0870
708,0.0877
709,0.0874
710,0.0865
711,0.0879
712,0.0858
713,0.0872
714,0.0851
715,0.0858
716,0.0863
717,0.0850
718,0.0841
719,0.0844
720,0.0825
721,0.0798
722,0.0795
723,0.0798
724,0.0795
725,0.0774
726,0.0793
727,0.0787
728,0.0777
729,0.0761
730,0.0767
731,0.0769
732,0.0775
733,0.0762
734,0.0774
735,0.0766
736,0.0764
737,0.0767
738,0.0751
739,0.0754
740,0.0750
741,0.0751
742,0.0745
743,0.0741
744,0.0747
745,0.0748
746,0.0740
747,0.0742
748,0.0744
749,0.0727
750,0.0723
751,0.0741
752,0.0736
753,0.0746
754,0.0739
755,0.0747
756,0.0739
757,0.0737
758,0.0738
759,0.0735
760,0.0724
761,0.0717
762,0.0721
763,0.0723
764,0.0726
765,0.0706
766,0.0712
767,0.0697
768,0.0702
769,0.0687
770,0.0694
771,0.0698
772,0.0678
773,0.0686
774,0.0690
775,0.0670
776,0.0669
777,0.0657
778,0.0679
779,0.0679
780,0.0658
781,0.0650
782,0.0669
783,0.0660
784,0.0649
785,0.0654
786,0.0645
787,0.0650
788,0.0647
789,0.0641
790,0.0626
791,0.0615
792,0.0620
793,0.0610
794,0.0632
795,0.0616
796,0.0611
797,0.0624
798,0.0598
799,0.0621
800,0.0618
801,0.0614
802,0.0610
803,0.0633
804,0.0618
805,0.0629
806,0.0624
807,0.0632
808,0.0641
809,0.0644
810,0.0659
811,0.0635
812,0.0633
813,0.0635
814,0.0639
815,0.0638
816,0.0643
817,0.0649
818,0.0641
819,0.0635
820,0.0647
821,0.0629
822,0.0615
823,0.0617
824,0.0608
825,0.0617
826,0.0600
827,0.0600
828,0.0583
829,0.0596
830,0.0573
831,0.0582
832,0.0561
833,0.0548
834,0.0565
835,0.0540
836,0.0546
837,0.0522
838,0.0500
839,0.0510
840,0.0491
841,0.0491
842,0.0495
843,0.0482
844,0.0477
845,0.0476
846,0.0463
847,0.0449
848,0.0449
849,0.0448
850,0.0450
851,0.0444
852,0.0453
853,0.0438
854,0.0443
855,0.0434
856,0.0421
857,0.0448
858,0.0420
859,0.0418
860,0.0400
861,0.0419
862,0.0405
863,0.0428
864,0.0413
865,0.0386
866,0.0401
867,0.0406
868,0.0385
869,0.0381
870,0.0387
871,0.0392
872,0.0372
873,0.0364
874,0.0371
875,0.0376
876,0.0357
877,0.0364
878,0.0348
879,0.0366
880,0.0343
881,0.0358
882,0.0360
883,0.0368
884,0.0352
885,0.0356
886,0.0378
887,0.0366
888,0.0353
889,0.0377
890,0.0394
891,0.0391
892,0.0387
893,0.0399
894,0.0390
895,0.0402
896,0.0405
897,0.0407
898,0.0405
899,0.0406
900,0.0404
901,0.0432
902,0.0402
903,0.0414
904,0.0415
905,0.0405
906,0.0419
907,0.0441
908,0.0415
909,0.0444
910,0.0411
911,0.0370
912,0.0381
913,0.0360
914,0.0388
915,0.0388
916,0.0376
917,0.0343
918,0.0323
919,0.0322
920,0.0345
921,0.0293
922,0.0305
923,0.0286
924,0.0281
925,0.0289
926,0.0256
927,0.0256
928,0.0241
929,0.0242
930,0.0229
931,0.0215
932,0.0204
933,0.0189
934,0.0177
935,0.0174
936,0.0155
937,0.0124
938,0.0124
939,0.0090
940,0.0090
941,0.0069
942,0.0056
943,0.0074
944,0.0073
945,0.0062
946,0.0052
947,0.0128
