382,NaN
383,1.0000
384,1.0000
385,1.0000
386,0.1485
387,0.1965
388,0.2801
389,0.0000
390,0.1227
391,0.0000
392,0.2244
393,0.2421
394,0.1928
395,0.1289
396,0.0919
397,0.0180
398,0.2401
399,0.0728
400,0.0316
401,0.3309
402,0.0081
403,0.1614
404,0.0672
405,0.1673
406,0.1022
407,0.1296
408,0.1083
409,0.0166
410,0.0852
411,0.1162
412,0.0471
413,0.0788
414,0.0349
415,0.0988
416,0.0549
417,0.0612
418,0.0178
419,0.0802
420,0.0553
421,0.0803
422,0.0325
423,0.0911
424,0.0369
425,0.0207
426,0.0924
427,0.0609
428,0.0655
429,0.0643
430,0.0753
431,0.1067
432,0.0879
433,0.0193
434,0.0724
435,0.0696
436,0.0509
437,0.0628
438,0.0879
439,0.0668
440,0.0656
441,0.0801
442,0.0781
443,0.0658
444,0.0529
445,0.0531
446,0.0717
447,0.0714
448,0.0303
449,0.0735
450,0.0513
451,0.0475
452,0.0431
453,0.0703
454,0.0699
455,0.0666
456,0.0657
457,0.0668
458,0.0627
459,0.0603
460,0.0585
461,0.0674
462,0.0458
463,0.0707
464,0.0528
465,0.0595
466,0.0645
467,0.0580
468,0.0601
469,0.0674
470,0.0525
471,0.0619
472,0.0755
473,0.0706
474,0.0691
475,0.0829
476,0.0756
477,0.0872
478,0.0841
479,0.1040
480,0.0866
481,0.0951
482,0.0932
483,0.1027
484,0.0947
485,0.0995
486,0.1000
487,0.1171
488,0.1020
489,0.0997
490,0.1165
491,0.1049
492,0.1098
493,0.1181
494,0.1123
495,0.1126
496,0.1146
497,0.1099
498,0.1147
499,0.1056
500,0.1111
501,0.1121
502,0.1121
503,0.1023
504,0.1038
505,0.0998
506,0.1002
507,0.1035
508,0.0972
509,0.0965
510,0.0962
511,0.0861
512,0.0881
513,0.0863
514,0.0906
515,0.0861
516,0.0838
517,0.0832
518,0.0770
519,0.0792
520,0.0790
521,0.0739
522,0.0752
523,0.0731
524,0.0753
525,0.0730
526,0.0741
527,0.0746
528,0.0715
529,0.0723
530,0.0738
531,0.0718
532,0.0732
533,0.0731
534,0.0742
535,0.0720
536,0.0715
537,0.0742
538,0.0731
539,0.0738
540,0.0730
541,0.0733
542,0.0715
543,0.0729
544,0.0733
545,0.0734
546,0.0752
547,0.0733
548,0.0740
549,0.0748
550,0.0748
551,0.0740
552,0.0759
553,0.0771
554,0.0770
555,0.0771
556,0.0767
557,0.0768
558,0.0790
559,0.0782
560,0.0790
561,0.0787
562,0.0797
563,0.0795
564,0.0796
565,0.0798
566,0.0778
567,0.0805
568,0.0809
569,0.0811
570,0.0827
571,0.0824
572,0.0825
573,0.0832
574,0.0833
575,0.0818
576,0.0847
577,0.0828
578,0.0825
579,0.0853
580,0.0837
581,0.0832
582,0.0846
583,0.0835
584,0.0825
585,0.0819
586,0.0833
587,0.0826
588,0.0824
589,0.0813
590,0.0837
591,0.0815
592,0.0830
593,0.0820
594,0.0824
595,0.0817
596,0.0823
597,0.0832
598,0.0828
599,0.0823
600,0.0826
601,0.0814
602,0.0825
603,0.0833
604,0.0838
605,0.0832
606,0.0837
607,0.0840
608,0.0844
609,0.0830
610,0.0839
611,0.0856
612,0.0859
613,0.0847
614,0.0848
615,0.0853
616,0.0847
617,0.0856
618,0.0867
619,0.0874
620,0.0854
621,0.0859
622,0.0879
623,0.0890
624,0.0880
625,0.0879
626,0.0871
627,0.0894
628,0.0907
629,0.0895
630,0.0893
631,0.0898
632,0.0897
633,0.0877
634,0.0879
635,0.0868
636,0.0888
637,0.0880
638,0.0880
639,0.0894
640,0.0891
641,0.0897
642,0.0895
643,0.0890
644,0.0898
645,0.0880
646,0.0879
647,0.0892
648,0.0901
649,0.0891
650,0.0868
651,0.0886
652,0.0884
653,0.0867
654,0.0877
655,0.0875
656,0.0868
657,0.0856
658,0.0855
659,0.0862
660,0.0853
661,0.0861
662,0.0863
663,0.0875
664,0.0857
665,0.0862
666,0.0859
667,0.0874
668,0.0855
669,0.0873
670,0.0880
671,0.0880
672,0.0855
673,0.0861
674,0.0868
675,0.0862
676,0.0868
677,0.0863
678,0.0867
679,0.0861
680,0.0869
681,0.0863
682,0.0872
683,0.0877
684,0.0865
685,0.0870
686,0.0875
687,0.0857
688,0.0885
689,0.0869
690,0.0891
691,0.0885
692,0.0877
693,0.0872
694,0.0885
695,0.0897
696,0.0890
697,0.0904
698,0.0893
699,0.0905
700,0.0898
701,0.0903
702,0.0902
703,0.0903
704,0.0891
705,0.0904
706,0.0895
707,0.0897
708,0.0895
709,0.0900
710,0.0897
711,0.0906
712,0.0895
713,0.0898
714,0.0888
715,0.0890
716,0.0878
717,0.0884
718,0.0883
719,0.0871
720,0.0869
721,0.0849
722,0.0826
723,0.0842
724,0.0832
725,0.0829
726,0.0833
727,0.0830
728,0.0825
729,0.0816
730,0.0813
731,0.0819
732,0.0828
733,0.0814
734,0.0811
735,0.0835
736,0.0826
737,0.0816
738,0.0819
739,0.0813
740,0.0814
741,0.0825
742,0.0811
743,0.0808
744,0.0825
745,0.0803
746,0.0809
747,0.0805
748,0.0815
749,0.0815
750,0.0827
751,0.0818
752,0.0833
753,0.0834
754,0.0837
755,0.0839
756,0.0840
757,0.0861
758,0.0840
759,0.0849
760,0.0842
761,0.0838
762,0.0826
763,0.0836
764,0.0851
765,0.0826
766,0.0808
767,0.0806
768,0.0808
769,0.0809
770,0.0800
771,0.0823
772,0.0821
773,0.0807
774,0.0810
775,0.0808
776,0.0818
777,0.0805
778,0.0811
779,0.0817
780,0.0794
781,0.0820
782,0.0801
783,0.0795
784,0.0799
785,0.0809
786,0.0809
787,0.0807
788,0.0809
789,0.0811
790,0.0796
791,0.0788
792,0.0782
793,0.0777
794,0.0783
795,0.0789
796,0.0792
797,0.0790
798,0.0781
799,0.0803
800,0.0811
801,0.0816
802,0.0817
803,0.0836
804,0.0850
805,0.0840
806,0.0838
807,0.0857
808,0.0868
809,0.0863
810,0.0894
811,0.0860
812,0.0867
813,0.0877
814,0.0864
815,0.0894
816,0.0899
817,0.0880
818,0.0889
819,0.0880
820,0.0909
821,0.0905
822,0.0900
823,0.0883
824,0.0894
825,0.0913
826,0.0891
827,0.0876
828,0.0880
829,0.0868
830,0.0874
831,0.0855
832,0.0846
833,0.0826
834,0.0827
835,0.0841
836,0.0837
837,0.0824
838,0.0816
839,0.0787
840,0.0766
841,0.0776
842,0.0780
843,0.0760
844,0.0760
845,0.0754
846,0.0755
847,0.0736
848,0.0750
849,0.0735
850,0.0728
851,0.0740
852,0.0728
853,0.0724
854,0.0738
855,0.0728
856,0.0725
857,0.0735
858,0.0729
859,0.0733
860,0.0720
861,0.0721
862,0.0738
863,0.0737
864,0.0715
865,0.0707
866,0.0712
867,0.0710
868,0.0700
869,0.0707
870,0.0681
871,0.0691
872,0.0695
873,0.0675
874,0.0673
875,0.0667
876,0.0671
877,0.0665
878,0.0671
879,0.0675
880,0.0696
881,0.0678
882,0.0694
883,0.0704
884,0.0703
885,0.0717
886,0.0709
887,0.0743
888,0.0759
889,0.0745
890,0.0777
891,0.0791
892,0.0807
893,0.0828
894,0.0810
895,0.0825
896,0.0838
897,0.0834
898,0.0822
899,0.0840
900,0.0881
901,0.0871
902,0.0886
903,0.0871
904,0.0910
905,0.0921
906,0.0899
907,0.0934
908,0.0953
909,0.0950
910,0.0897
911,0.0896
912,0.0903
913,0.0862
914,0.0878
915,0.0848
916,0.0846
917,0.0804
918,0.0762
919,0.0787
920,0.0768
921,0.0723
922,0.0685
923,0.0650
924,0.0659
925,0.0651
926,0.0634
927,0.0622
928,0.0598
929,0.0600
930,0.0580
931,0.0552
932,0.0519
933,0.0482
934,0.0487
935,0.0447
936,0.0382
937,0.0347
938,0.0299
939,0.0290
940,0.0224
941,0.0206
942,0.0197
943,0.0167
944,0.0182
945,0.0201
946,0.0199
947,0.0265
