382,NaN
383,0.5889
384,0.0000
385,1.0000
386,0.0000
387,0.1212
388,0.2471
389,0.1681
390,0.1900
391,0.1035
392,0.3705
393,0.1947
394,0.0051
395,0.1746
396,0.3138
397,0.0000
398,0.1091
399,0.1183
400,0.1262
401,0.2440
402,0.0000
403,0.1918
404,0.0673
405,0.1073
406,0.1096
407,0.0000
408,0.1424
409,0.0865
410,0.1162
411,0.1066
412,0.1291
413,0.1204
414,0.0924
415,0.1394
416,0.0728
417,0.0493
418,0.0594
419,0.0438
420,0.0812
421,0.0510
422,0.0434
423,0.0847
424,0.0436
425,0.0715
426,0.0717
427,0.0503
428,0.0605
429,0.0437
430,0.0624
431,0.0376
432,0.0768
433,0.0658
434,0.0578
435,0.0347
436,0.0783
437,0.0728
438,0.0700
439,0.0391
440,0.0777
441,0.0732
442,0.0672
443,0.0912
444,0.0481
445,0.0859
446,0.0713
447,0.0591
448,0.0412
449,0.0709
450,0.0664
451,0.0367
452,0.0461
453,0.0966
454,0.0827
455,0.0822
456,0.0648
457,0.0678
458,0.0638
459,0.0658
460,0.0602
461,0.0712
462,0.0716
463,0.0867
464,0.0686
465,0.0663
466,0.0746
467,0.0559
468,0.0843
469,0.0814
470,0.0656
471,0.0705
472,0.0799
473,0.0839
474,0.0846
475,0.0857
476,0.0928
477,0.0961
478,0.0940
479,0.1031
480,0.1019
481,0.1065
482,0.1037
483,0.1104
484,0.1037
485,0.1148
486,0.1068
487,0.1239
488,0.1148
489,0.1068
490,0.1155
491,0.1217
492,0.1219
493,0.1242
494,0.1220
495,0.1219
496,0.1158
497,0.1134
498,0.1278
499,0.1172
500,0.1171
501,0.1138
502,0.1194
503,0.1107
504,0.1109
505,0.1040
506,0.1080
507,0.1104
508,0.1042
509,0.1026
510,0.1001
511,0.0926
512,0.0946
513,0.0927
514,0.0925
515,0.0918
516,0.0874
517,0.0841
518,0.0845
519,0.0853
520,0.0845
521,0.0788
522,0.0818
523,0.0783
524,0.0814
525,0.0796
526,0.0806
527,0.0817
528,0.0801
529,0.0781
530,0.0763
531,0.0768
532,0.0772
533,0.0764
534,0.0807
535,0.0754
536,0.0776
537,0.0781
538,0.0770
539,0.0793
540,0.0791
541,0.0786
542,0.0770
543,0.0787
544,0.0772
545,0.0787
546,0.0814
547,0.0785
548,0.0791
549,0.0794
550,0.0794
551,0.0797
552,0.0799
553,0.0812
554,0.0807
555,0.0806
556,0.0827
557,0.0810
558,0.0828
559,0.0823
560,0.0837
561,0.0837
562,0.0857
563,0.0829
564,0.0854
565,0.0861
566,0.0859
567,0.0861
568,0.0875
569,0.0875
570,0.0857
571,0.0869
572,0.0868
573,0.0876
574,0.0877
575,0.0880
576,0.0894
577,0.0873
578,0.0878
579,0.0891
580,0.0883
581,0.0872
582,0.0863
583,0.0884
584,0.0883
585,0.0870
586,0.0873
587,0.0859
588,0.0859
589,0.0854
590,0.0868
591,0.0859
592,0.0866
593,0.0855
594,0.0883
595,0.0863
596,0.0855
597,0.0884
598,0.0859
599,0.0855
600,0.0863
601,0.0866
602,0.0874
603,0.0868
604,0.0866
605,0.0869
606,0.0867
607,0.0887
608,0.0867
609,0.0867
610,0.0874
611,0.0888
612,0.0884
613,0.0885
614,0.0894
615,0.0902
616,0.0898
617,0.0893
618,0.0898
619,0.0909
620,0.0898
621,0.0908
622,0.0923
623,0.0909
624,0.0927
625,0.0922
626,0.0915
627,0.0935
628,0.0916
629,0.0937
630,0.0929
631,0.0933
632,0.0920
633,0.0912
634,0.0896
635,0.0893
636,0.0913
637,0.0920
638,0.0911
639,0.0926
640,0.0936
641,0.0922
642,0.0920
643,0.0914
644,0.0925
645,0.0920
646,0.0923
647,0.0924
648,0.0916
649,0.0910
650,0.0910
651,0.0916
652,0.0912
653,0.0911
654,0.0898
655,0.0889
656,0.0893
657,0.0889
658,0.0891
659,0.0900
660,0.0882
661,0.0884
662,0.0890
663,0.0892
664,0.0886
665,0.0894
666,0.0878
667,0.0888
668,0.0891
669,0.0892
670,0.0897
671,0.0896
672,0.0888
673,0.0890
674,0.0891
675,0.0893
676,0.0893
677,0.0884
678,0.0877
679,0.0876
680,0.0894
681,0.0887
682,0.0890
683,0.0888
684,0.0900
685,0.0892
686,0.0892
687,0.0889
688,0.0906
689,0.0905
690,0.0898
691,0.0905
692,0.0912
693,0.0906
694,0.0903
695,0.0915
696,0.0908
697,0.0921
698,0.0923
699,0.0912
700,0.0930
701,0.0921
702,0.0928
703,0.0928
704,0.0915
705,0.0917
706,0.0918
707,0.0912
708,0.0912
709,0.0914
710,0.0901
711,0.0920
712,0.0924
713,0.0913
714,0.0919
715,0.0914
716,0.0897
717,0.0902
718,0.0892
719,0.0887
720,0.0887
721,0.0853
722,0.0845
723,0.0870
724,0.0844
725,0.0838
726,0.0852
727,0.0858
728,0.0830
729,0.0835
730,0.0836
731,0.0826
732,0.0838
733,0.0829
734,0.0835
735,0.0833
736,0.0839
737,0.0834
738,0.0832
739,0.0817
740,0.0831
741,0.0823
742,0.0820
743,0.0812
744,0.0817
745,0.0833
746,0.0826
747,0.0819
748,0.0837
749,0.0819
750,0.0835
751,0.0835
752,0.0833
753,0.0848
754,0.0841
755,0.0843
756,0.0853
757,0.0856
758,0.0848
759,0.0861
760,0.0839
761,0.0851
762,0.0831
763,0.0844
764,0.0838
765,0.0822
766,0.0824
767,0.0836
768,0.0829
769,0.0829
770,0.0820
771,0.0834
772,0.0819
773,0.0810
774,0.0833
775,0.0823
776,0.0826
777,0.0826
778,0.0822
779,0.0816
780,0.0823
781,0.0826
782,0.0810
783,0.0793
784,0.0817
785,0.0815
786,0.0811
787,0.0815
788,0.0811
789,0.0812
790,0.0810
791,0.0793
792,0.0805
793,0.0796
794,0.0803
795,0.0795
796,0.0801
797,0.0816
798,0.0795
799,0.0798
800,0.0827
801,0.0814
802,0.0832
803,0.0851
804,0.0838
805,0.0840
806,0.0840
807,0.0859
808,0.0878
809,0.0875
810,0.0903
811,0.0876
812,0.0879
813,0.0890
814,0.0876
815,0.0897
816,0.0901
817,0.0885
818,0.0900
819,0.0903
820,0.0929
821,0.0901
822,0.0904
823,0.0895
824,0.0887
825,0.0903
826,0.0881
827,0.0886
828,0.0878
829,0.0859
830,0.0869
831,0.0852
832,0.0862
833,0.0829
834,0.0834
835,0.0837
836,0.0817
837,0.0834
838,0.0793
839,0.0786
840,0.0784
841,0.0785
842,0.0782
843,0.0771
844,0.0760
845,0.0740
846,0.0753
847,0.0748
848,0.0740
849,0.0744
850,0.0741
851,0.0737
852,0.0734
853,0.0718
854,0.0740
855,0.0731
856,0.0721
857,0.0743
858,0.0714
859,0.0722
860,0.0731
861,0.0714
862,0.0731
863,0.0724
864,0.0734
865,0.0714
866,0.0712
867,0.0719
868,0.0718
869,0.0674
870,0.0694
871,0.0693
872,0.0683
873,0.0680
874,0.0674
875,0.0667
876,0.0665
877,0.0678
878,0.0673
879,0.0675
880,0.0694
881,0.0652
882,0.0682
883,0.0711
884,0.0696
885,0.0701
886,0.0735
887,0.0736
888,0.0756
889,0.0772
890,0.0793
891,0.0801
892,0.0791
893,0.0815
894,0.0822
895,0.0797
896,0.0825
897,0.0833
898,0.0849
899,0.0848
900,0.0867
901,0.0874
902,0.0857
903,0.0892
904,0.0897
905,0.0925
906,0.0932
907,0.0957
908,0.0936
909,0.0921
910,0.0906
911,0.0889
912,0.0871
913,0.0869
914,0.0868
915,0.0841
916,0.0821
917,0.0803
918,0.0751
919,0.0769
920,0.0771
921,0.0719
922,0.0712
923,0.0669
924,0.0668
925,0.0668
926,0.0643
927,0.0653
928,0.0595
929,0.0591
930,0.0577
931,0.0552
932,0.0527
933,0.0498
934,0.0491
935,0.0452
936,0.0398
937,0.0353
938,0.0302
939,0.0254
940,0.0217
941,0.0225
942,0.0207
943,0.0190
944,0.0191
945,0.0192
946,0.0188
947,0.0215
