382,NaN
383,0.8394
384,0.0000
385,0.8945
386,0.0000
387,0.1489
388,0.3192
389,0.0473
390,0.0000
391,0.1397
392,0.2573
393,0.2610
394,0.0970
395,0.0000
396,0.0840
397,0.0000
398,0.0832
399,0.0664
400,0.0808
401,0.2253
402,0.0421
403,0.1872
404,0.0172
405,0.0522
406,0.0484
407,0.0329
408,0.0814
409,0.0731
410,0.1231
411,0.1067
412,0.1027
413,0.1014
414,0.0226
415,0.0526
416,0.0739
417,0.0709
418,0.0427
419,0.0768
420,0.0844
421,0.0541
422,0.0068
423,0.0441
424,0.0150
425,0.0417
426,0.0560
427,0.0396
428,0.0417
429,0.0023
430,0.0832
431,0.0298
432,0.0553
433,0.0238
434,0.0289
435,0.0606
436,0.0465
437,0.0713
438,0.0785
439,0.0018
440,0.0577
441,0.0734
442,0.0627
443,0.0838
444,0.0694
445,0.0665
446,0.0257
447,0.0637
448,0.0312
449,0.0546
450,0.0390
451,0.0245
452,0.0370
453,0.0682
454,0.0728
455,0.0731
456,0.0472
457,0.0549
458,0.0447
459,0.0541
460,0.0537
461,0.0581
462,0.0502
463,0.0671
464,0.0576
465,0.0435
466,0.0665
467,0.0561
468,0.0660
469,0.0714
470,0.0726
471,0.0669
472,0.0693
473,0.0680
474,0.0896
475,0.0779
476,0.0801
477,0.0891
478,0.0798
479,0.0974
480,0.1025
481,0.0890
482,0.0969
483,0.1004
484,0.0909
485,0.1070
486,0.1022
487,0.1061
488,0.1149
489,0.1134
490,0.1195
491,0.1071
492,0.1079
493,0.1267
494,0.1211
495,0.1213
496,0.1215
497,0.1152
498,0.1212
499,0.1080
500,0.1139
501,0.1161
502,0.1184
503,0.1075
504,0.1068
505,0.1043
506,0.1067
507,0.1078
508,0.1064
509,0.0985
510,0.0960
511,0.0926
512,0.0919
513,0.0878
514,0.0933
515,0.0892
516,0.0886
517,0.0856
518,0.0844
519,0.0829
520,0.0824
521,0.0797
522,0.0810
523,0.0751
524,0.0806
525,0.0753
526,0.0781
527,0.0753
528,0.0751
529,0.0747
530,0.0744
531,0.0752
532,0.0770
533,0.0743
534,0.0770
535,0.0752
536,0.0752
537,0.0766
538,0.0742
539,0.0761
540,0.0759
541,0.0766
542,0.0776
543,0.0778
544,0.0788
545,0.0790
546,0.0779
547,0.0791
548,0.0790
549,0.0768
550,0.0777
551,0.0791
552,0.0803
553,0.0792
554,0.0790
555,0.0801
556,0.0799
557,0.0808
558,0.0816
559,0.0833
560,0.0827
561,0.0838
562,0.0837
563,0.0822
564,0.0848
565,0.0838
566,0.0820
567,0.0851
568,0.0850
569,0.0862
570,0.0856
571,0.0875
572,0.0861
573,0.0878
574,0.0858
575,0.0857
576,0.0877
577,0.0867
578,0.0858
579,0.0894
580,0.0871
581,0.0862
582,0.0874
583,0.0872
584,0.0878
585,0.0857
586,0.0870
587,0.0861
588,0.0864
589,0.0857
590,0.0876
591,0.0864
592,0.0862
593,0.0863
594,0.0861
595,0.0856
596,0.0860
597,0.0848
598,0.0853
599,0.0864
600,0.0853
601,0.0859
602,0.0874
603,0.0854
604,0.0873
605,0.0851
606,0.0869
607,0.0861
608,0.0869
609,0.0875
610,0.0881
611,0.0884
612,0.0878
613,0.0890
614,0.0884
615,0.0892
616,0.0886
617,0.0899
618,0.0892
619,0.0912
620,0.0890
621,0.0907
622,0.0915
623,0.0933
624,0.0929
625,0.0915
626,0.0916
627,0.0933
628,0.0937
629,0.0917
630,0.0933
631,0.0948
632,0.0917
633,0.0923
634,0.0911
635,0.0911
636,0.0919
637,0.0929
638,0.0906
639,0.0929
640,0.0940
641,0.0933
642,0.0914
643,0.0910
644,0.0916
645,0.0925
646,0.0921
647,0.0919
648,0.0927
649,0.0923
650,0.0917
651,0.0912
652,0.0917
653,0.0918
654,0.0901
655,0.0898
656,0.0906
657,0.0892
658,0.0898
659,0.0896
660,0.0894
661,0.0880
662,0.0898
663,0.0898
664,0.0887
665,0.0897
666,0.0888
667,0.0904
668,0.0899
669,0.0902
670,0.0902
671,0.0903
672,0.0893
673,0.0893
674,0.0889
675,0.0897
676,0.0910
677,0.0896
678,0.0910
679,0.0893
680,0.0901
681,0.0884
682,0.0900
683,0.0904
684,0.0901
685,0.0901
686,0.0903
687,0.0896
688,0.0907
689,0.0913
690,0.0914
691,0.0922
692,0.0904
693,0.0916
694,0.0924
695,0.0917
696,0.0921
697,0.0922
698,0.0932
699,0.0933
700,0.0927
701,0.0932
702,0.0932
703,0.0935
704,0.0918
705,0.0927
706,0.0913
707,0.0920
708,0.0926
709,0.0930
710,0.0928
711,0.0937
712,0.0923
713,0.0930
714,0.0915
715,0.0920
716,0.0915
717,0.0917
718,0.0906
719,0.0903
720,0.0893
721,0.0879
722,0.0875
723,0.0859
724,0.0873
725,0.0864
726,0.0848
727,0.0862
728,0.0855
729,0.0845
730,0.0840
731,0.0849
732,0.0850
733,0.0843
734,0.0842
735,0.0853
736,0.0835
737,0.0851
738,0.0843
739,0.0837
740,0.0828
741,0.0848
742,0.0855
743,0.0848
744,0.0857
745,0.0846
746,0.0839
747,0.0839
748,0.0847
749,0.0845
750,0.0828
751,0.0850
752,0.0855
753,0.0856
754,0.0874
755,0.0857
756,0.0871
757,0.0883
758,0.0867
759,0.0876
760,0.0866
761,0.0855
762,0.0839
763,0.0853
764,0.0863
765,0.0852
766,0.0844
767,0.0845
768,0.0852
769,0.0839
770,0.0844
771,0.0836
772,0.0832
773,0.0827
774,0.0839
775,0.0849
776,0.0838
777,0.0811
778,0.0843
779,0.0826
780,0.0825
781,0.0841
782,0.0830
783,0.0834
784,0.0821
785,0.0814
786,0.0821
787,0.0837
788,0.0841
789,0.0818
790,0.0825
791,0.0797
792,0.0812
793,0.0816
794,0.0805
795,0.0814
796,0.0812
797,0.0823
798,0.0813
799,0.0814
800,0.0837
801,0.0830
802,0.0843
803,0.0863
804,0.0874
805,0.0865
806,0.0875
807,0.0884
808,0.0879
809,0.0900
810,0.0916
811,0.0909
812,0.0878
813,0.0911
814,0.0901
815,0.0907
816,0.0906
817,0.0904
818,0.0911
819,0.0933
820,0.0955
821,0.0927
822,0.0938
823,0.0929
824,0.0944
825,0.0921
826,0.0922
827,0.0907
828,0.0905
829,0.0896
830,0.0889
831,0.0884
832,0.0875
833,0.0860
834,0.0859
835,0.0859
836,0.0847
837,0.0833
838,0.0821
839,0.0803
840,0.0793
841,0.0792
842,0.0796
843,0.0777
844,0.0776
845,0.0784
846,0.0780
847,0.0773
848,0.0768
849,0.0753
850,0.0733
851,0.0756
852,0.0734
853,0.0751
854,0.0751
855,0.0769
856,0.0745
857,0.0747
858,0.0739
859,0.0727
860,0.0742
861,0.0736
862,0.0749
863,0.0750
864,0.0725
865,0.0730
866,0.0720
867,0.0721
868,0.0718
869,0.0722
870,0.0729
871,0.0710
872,0.0721
873,0.0700
874,0.0700
875,0.0672
876,0.0682
877,0.0690
878,0.0682
879,0.0708
880,0.0697
881,0.0688
882,0.0712
883,0.0721
884,0.0723
885,0.0717
886,0.0735
887,0.0758
888,0.0747
889,0.0785
890,0.0783
891,0.0811
892,0.0816
893,0.0841
894,0.0842
895,0.0844
896,0.0834
897,0.0869
898,0.0850
899,0.0866
900,0.0945
901,0.0931
902,0.0880
903,0.0892
904,0.0906
905,0.0960
906,0.0931
907,0.0966
908,0.0962
909,0.0967
910,0.0962
911,0.0910
912,0.0885
913,0.0901
914,0.0881
915,0.0863
916,0.0862
917,0.0828
918,0.0807
919,0.0789
920,0.0779
921,0.0733
922,0.0721
923,0.0700
924,0.0716
925,0.0682
926,0.0633
927,0.0634
928,0.0608
929,0.0615
930,0.0580
931,0.0565
932,0.0545
933,0.0534
934,0.0451
935,0.0455
936,0.0400
937,0.0356
938,0.0312
939,0.0288
940,0.0233
941,0.0210
942,0.0214
943,0.0198
944,0.0190
945,0.0188
946,0.0195
947,0.0262
