382,NaN
383,1.0000
384,1.0000
385,1.0000
386,0.4753
387,0.3400
388,0.2737
389,0.4343
390,0.4086
391,0.3781
392,0.3206
393,0.4824
394,0.1673
395,0.2090
396,0.3116
397,0.1860
398,0.3586
399,0.3123
400,0.3562
401,0.3961
402,0.1530
403,0.2913
404,0.2708
405,0.2337
406,0.3596
407,0.3176
408,0.3212
409,0.3023
410,0.2790
411,0.3107
412,0.2443
413,0.3020
414,0.2834
415,0.2535
416,0.2026
417,0.2999
418,0.2085
419,0.2993
420,0.2506
421,0.1801
422,0.2416
423,0.2374
424,0.2229
425,0.2211
426,0.2784
427,0.2419
428,0.2613
429,0.2686
430,0.2752
431,0.2591
432,0.2356
433,0.2507
434,0.2854
435,0.2642
436,0.2652
437,0.2761
438,0.2562
439,0.2136
440,0.2842
441,0.2768
442,0.2614
443,0.2727
444,0.2487
445,0.2608
446,0.2297
447,0.2302
448,0.2321
449,0.2521
450,0.2405
451,0.2017
452,0.2313
453,0.2420
454,0.2379
455,0.2373
456,0.2581
457,0.2509
458,0.2406
459,0.2357
460,0.2289
461,0.2432
462,0.2559
463,0.2414
464,0.2433
465,0.2309
466,0.2340
467,0.2437
468,0.2539
469,0.2546
470,0.2311
471,0.2496
472,0.2564
473,0.2596
474,0.2568
475,0.2679
476,0.2750
477,0.2888
478,0.2799
479,0.3062
480,0.2941
481,0.2833
482,0.3052
483,0.3030
484,0.3193
485,0.3198
486,0.3211
487,0.3365
488,0.3267
489,0.3335
490,0.3184
491,0.3271
492,0.3230
493,0.3255
494,0.3267
495,0.3203
496,0.3175
497,0.3005
498,0.3106
499,0.2876
500,0.2924
501,0.2859
502,0.2884
503,0.2628
504,0.2626
505,0.2517
506,0.2521
507,0.2415
508,0.2434
509,0.2362
510,0.2278
511,0.2133
512,0.2080
513,0.2023
514,0.2007
515,0.1940
516,0.1922
517,0.1811
518,0.1728
519,0.1720
520,0.1696
521,0.1615
522,0.1605
523,0.1566
524,0.1539
525,0.1516
526,0.1510
527,0.1486
528,0.1480
529,0.1450
530,0.1437
531,0.1401
532,0.1402
533,0.1389
534,0.1408
535,0.1358
536,0.1356
537,0.1330
538,0.1359
539,0.1343
540,0.1328
541,0.1317
542,0.1291
543,0.1281
544,0.1304
545,0.1310
546,0.1281
547,0.1273
548,0.1267
549,0.1264
550,0.1264
551,0.1252
552,0.1272
553,0.1258
554,0.1262
555,0.1213
556,0.1225
557,0.1237
558,0.1244
559,0.1207
560,0.1227
561,0.1221
562,0.1238
563,0.1208
564,0.1224
565,0.1220
566,0.1177
567,0.1204
568,0.1219
569,0.1199
570,0.1197
571,0.1197
572,0.1197
573,0.1184
574,0.1175
575,0.1176
576,0.1170
577,0.1168
578,0.1132
579,0.1160
580,0.1151
581,0.1129
582,0.1116
583,0.1127
584,0.1107
585,0.1106
586,0.1103
587,0.1084
588,0.1069
589,0.1065
590,0.1086
591,0.1062
592,0.1052
593,0.1055
594,0.1065
595,0.1040
596,0.1045
597,0.1039
598,0.1021
599,0.1018
600,0.1005
601,0.1010
602,0.1016
603,0.0996
604,0.1003
605,0.1004
606,0.1007
607,0.0992
608,0.0996
609,0.0992
610,0.0980
611,0.0987
612,0.0999
613,0.0991
614,0.0974
615,0.0994
616,0.0989
617,0.0982
618,0.0984
619,0.0980
620,0.0970
621,0.0981
622,0.0984
623,0.0984
624,0.0970
625,0.0980
626,0.0956
627,0.0970
628,0.0962
629,0.0969
630,0.0972
631,0.0975
632,0.0944
633,0.0965
634,0.0934
635,0.0916
636,0.0916
637,0.0936
638,0.0920
639,0.0928
640,0.0926
641,0.0914
642,0.0915
643,0.0916
644,0.0906
645,0.0894
646,0.0900
647,0.0894
648,0.0890
649,0.0893
650,0.0875
651,0.0865
652,0.0864
653,0.0871
654,0.0866
655,0.0857
656,0.0848
657,0.0848
658,0.0841
659,0.0837
660,0.0841
661,0.0831
662,0.0825
663,0.0825
664,0.0808
665,0.0825
666,0.0804
667,0.0814
668,0.0815
669,0.0811
670,0.0815
671,0.0812
672,0.0789
673,0.0788
674,0.0780
675,0.0795
676,0.0794
677,0.0775
678,0.0784
679,0.0771
680,0.0782
681,0.0784
682,0.0769
683,0.0787
684,0.0768
685,0.0768
686,0.0772
687,0.0764
688,0.0779
689,0.0780
690,0.0772
691,0.0777
692,0.0772
693,0.0765
694,0.0763
695,0.0773
696,0.0775
697,0.0780
698,0.0768
699,0.0782
700,0.0785
701,0.0762
702,0.0770
703,0.0753
704,0.0757
705,0.0753
706,0.0753
707,0.0742
708,0.0748
709,0.0732
710,0.0750
711,0.0760
712,0.0744
713,0.0745
714,0.0735
715,0.0737
716,0.0723
717,0.0729
718,0.0715
719,0.0703
720,0.0690
721,0.0686
722,0.0672
723,0.0680
724,0.0654
725,0.0660
726,0.0655
727,0.0661
728,0.0639
729,0.0640
730,0.0634
731,0.0641
732,0.0650
733,0.0638
734,0.0648
735,0.0643
736,0.0627
737,0.0627
738,0.0631
739,0.0629
740,0.0622
741,0.0632
742,0.0628
743,0.0615
744,0.0637
745,0.0614
746,0.0613
747,0.0620
748,0.0623
749,0.0611
750,0.0609
751,0.0621
752,0.0629
753,0.0631
754,0.0624
755,0.0634
756,0.0630
757,0.0631
758,0.0618
759,0.0620
760,0.0615
761,0.0613
762,0.0608
763,0.0620
764,0.0612
765,0.0619
766,0.0615
767,0.0599
768,0.0584
769,0.0600
770,0.0589
771,0.0592
772,0.0595
773,0.0572
774,0.0594
775,0.0589
776,0.0589
777,0.0578
778,0.0576
779,0.0582
780,0.0565
781,0.0582
782,0.0582
783,0.0565
784,0.0577
785,0.0568
786,0.0566
787,0.0564
788,0.0589
789,0.0553
790,0.0554
791,0.0546
792,0.0561
793,0.0553
794,0.0543
795,0.0542
796,0.0540
797,0.0561
798,0.0549
799,0.0552
800,0.0559
801,0.0561
802,0.0562
803,0.0561
804,0.0568
805,0.0581
806,0.0571
807,0.0586
808,0.0580
809,0.0585
810,0.0597
811,0.0585
812,0.0589
813,0.0606
814,0.0596
815,0.0609
816,0.0595
817,0.0592
818,0.0615
819,0.0606
820,0.0604
821,0.0611
822,0.0616
823,0.0609
824,0.0584
825,0.0602
826,0.0583
827,0.0591
828,0.0568
829,0.0573
830,0.0566
831,0.0580
832,0.0563
833,0.0549
834,0.0549
835,0.0554
836,0.0528
837,0.0536
838,0.0530
839,0.0505
840,0.0500
841,0.0503
842,0.0520
843,0.0496
844,0.0494
845,0.0480
846,0.0490
847,0.0478
848,0.0483
849,0.0479
850,0.0476
851,0.0485
852,0.0470
853,0.0468
854,0.0478
855,0.0467
856,0.0467
857,0.0475
858,0.0465
859,0.0474
860,0.0466
861,0.0468
862,0.0459
863,0.0476
864,0.0455
865,0.0439
866,0.0460
867,0.0447
868,0.0441
869,0.0441
870,0.0434
871,0.0435
872,0.0438
873,0.0420
874,0.0421
875,0.0400
876,0.0411
877,0.0414
878,0.0414
879,0.0424
880,0.0435
881,0.0400
882,0.0415
883,0.0445
884,0.0432
885,0.0442
886,0.0430
887,0.0455
888,0.0468
889,0.0489
890,0.0469
891,0.0476
892,0.0472
893,0.0515
894,0.0506
895,0.0484
896,0.0506
897,0.0516
898,0.0497
899,0.0511
900,0.0510
901,0.0537
902,0.0510
903,0.0530
904,0.0570
905,0.0559
906,0.0526
907,0.0575
908,0.0561
909,0.0546
910,0.0549
911,0.0525
912,0.0537
913,0.0481
914,0.0538
915,0.0512
916,0.0499
917,0.0459
918,0.0453
919,0.0450
920,0.0457
921,0.0436
922,0.0402
923,0.0408
924,0.0402
925,0.0399
926,0.0369
927,0.0372
928,0.0361
929,0.0360
930,0.0325
931,0.0308
932,0.0303
933,0.0287
934,0.0278
935,0.0275
936,0.0218
937,0.0185
938,0.0204
939,0.0148
940,0.0150
941,0.0131
942,0.0124
943,0.0087
944,0.0124
945,0.0109
946,0.0106
947,0.0154
