382,NaN
383,0.5244
384,0.0000
385,0.9470
386,0.0000
387,0.2128
388,0.2517
389,0.1612
390,0.0000
391,0.2632
392,0.4508
393,0.2749
394,0.3074
395,0.0103
396,0.3088
397,0.0483
398,0.2976
399,0.0968
400,0.2178
401,0.3517
402,0.0524
403,0.2181
404,0.1118
405,0.1484
406,0.0868
407,0.2192
408,0.0607
409,0.1225
410,0.2219
411,0.1213
412,0.1810
413,0.1817
414,0.1127
415,0.1298
416,0.0937
417,0.1905
418,0.1423
419,0.0908
420,0.1178
421,0.1047
422,0.1173
423,0.1350
424,0.0884
425,0.0763
426,0.0902
427,0.0720
428,0.0739
429,0.0598
430,0.0614
431,0.0859
432,0.1056
433,0.0711
434,0.0764
435,0.0901
436,0.0703
437,0.1101
438,0.0789
439,0.0439
440,0.1083
441,0.1033
442,0.0638
443,0.1269
444,0.0950
445,0.0852
446,0.0661
447,0.0886
448,0.0601
449,0.0975
450,0.0744
451,0.0470
452,0.0579
453,0.0758
454,0.0767
455,0.0627
456,0.0633
457,0.0527
458,0.0653
459,0.0691
460,0.0582
461,0.0692
462,0.0511
463,0.0617
464,0.0481
465,0.0450
466,0.0539
467,0.0389
468,0.0617
469,0.0626
470,0.0440
471,0.0522
472,0.0539
473,0.0473
474,0.0549
475,0.0522
476,0.0487
477,0.0606
478,0.0476
479,0.0687
480,0.0545
481,0.0530
482,0.0521
483,0.0503
484,0.0433
485,0.0525
486,0.0454
487,0.0560
488,0.0525
489,0.0415
490,0.0498
491,0.0452
492,0.0465
493,0.0528
494,0.0434
495,0.0489
496,0.0482
497,0.0473
498,0.0439
499,0.0438
500,0.0429
501,0.0394
502,0.0450
503,0.0402
504,0.0382
505,0.0370
506,0.0367
507,0.0390
508,0.0351
509,0.0340
510,0.0376
511,0.0301
512,0.0297
513,0.0298
514,0.0274
515,0.0279
516,0.0267
517,0.0280
518,0.0227
519,0.0271
520,0.0264
521,0.0215
522,0.0248
523,0.0224
524,0.0262
525,0.0216
526,0.0241
527,0.0214
528,0.0215
529,0.0212
530,0.0218
531,0.0224
532,0.0204
533,0.0204
534,0.0229
535,0.0205
536,0.0204
537,0.0214
538,0.0193
539,0.0206
540,0.0199
541,0.0188
542,0.0172
543,0.0195
544,0.0186
545,0.0197
546,0.0206
547,0.0190
548,0.0194
549,0.0190
550,0.0191
551,0.0180
552,0.0180
553,0.0189
554,0.0186
555,0.0179
556,0.0178
557,0.0177
558,0.0184
559,0.0177
560,0.0171
561,0.0179
562,0.0174
563,0.0188
564,0.0176
565,0.0180
566,0.0165
567,0.0177
568,0.0176
569,0.0182
570,0.0196
571,0.0182
572,0.0185
573,0.0180
574,0.0176
575,0.0171
576,0.0172
577,0.0180
578,0.0176
579,0.0169
580,0.0165
581,0.0165
582,0.0165
583,0.0165
584,0.0170
585,0.0168
586,0.0172
587,0.0157
588,0.0162
589,0.0152
590,0.0162
591,0.0158
592,0.0158
593,0.0153
594,0.0161
595,0.0153
596,0.0156
597,0.0153
598,0.0156
599,0.0154
600,0.0155
601,0.0152
602,0.0157
603,0.0151
604,0.0152
605,0.0146
606,0.0141
607,0.0156
608,0.0154
609,0.0152
610,0.0146
611,0.0145
612,0.0154
613,0.0143
614,0.0150
615,0.0148
616,0.0149
617,0.0140
618,0.0141
619,0.0149
620,0.0142
621,0.0140
622,0.0157
623,0.0152
624,0.0153
625,0.0147
626,0.0149
627,0.0144
628,0.0148
629,0.0149
630,0.0147
631,0.0147
632,0.0143
633,0.0139
634,0.0137
635,0.0144
636,0.0150
637,0.0144
638,0.0142
639,0.0139
640,0.0141
641,0.0154
642,0.0145
643,0.0144
644,0.0146
645,0.0147
646,0.0147
647,0.0136
648,0.0140
649,0.0138
650,0.0137
651,0.0136
652,0.0139
653,0.0137
654,0.0130
655,0.0143
656,0.0129
657,0.0132
658,0.0138
659,0.0124
660,0.0127
661,0.0131
662,0.0135
663,0.0138
664,0.0129
665,0.0137
666,0.0132
667,0.0127
668,0.0131
669,0.0134
670,0.0125
671,0.0135
672,0.0133
673,0.0125
674,0.0131
675,0.0135
676,0.0130
677,0.0135
678,0.0130
679,0.0124
680,0.0127
681,0.0123
682,0.0136
683,0.0132
684,0.0137
685,0.0125
686,0.0131
687,0.0123
688,0.0126
689,0.0136
690,0.0133
691,0.0134
692,0.0138
693,0.0133
694,0.0131
695,0.0127
696,0.0131
697,0.0140
698,0.0135
699,0.0131
700,0.0133
701,0.0133
702,0.0141
703,0.0129
704,0.0130
705,0.0127
706,0.0134
707,0.0128
708,0.0131
709,0.0141
710,0.0133
711,0.0132
712,0.0129
713,0.0132
714,0.0129
715,0.0138
716,0.0136
717,0.0128
718,0.0126
719,0.0135
720,0.0129
721,0.0125
722,0.0121
723,0.0125
724,0.0125
725,0.0125
726,0.0126
727,0.0122
728,0.0119
729,0.0126
730,0.0115
731,0.0123
732,0.0126
733,0.0120
734,0.0117
735,0.0126
736,0.0126
737,0.0128
738,0.0116
739,0.0119
740,0.0122
741,0.0120
742,0.0123
743,0.0115
744,0.0129
745,0.0121
746,0.0124
747,0.0122
748,0.0131
749,0.0116
750,0.0123
751,0.0123
752,0.0123
753,0.0125
754,0.0128
755,0.0128
756,0.0126
757,0.0122
758,0.0130
759,0.0136
760,0.0131
761,0.0133
762,0.0136
763,0.0139
764,0.0137
765,0.0134
766,0.0125
767,0.0130
768,0.0127
769,0.0125
770,0.0128
771,0.0132
772,0.0122
773,0.0124
774,0.0128
775,0.0124
776,0.0136
777,0.0128
778,0.0131
779,0.0132
780,0.0130
781,0.0131
782,0.0132
783,0.0134
784,0.0128
785,0.0125
786,0.0134
787,0.0129
788,0.0135
789,0.0134
790,0.0142
791,0.0118
792,0.0147
793,0.0113
794,0.0136
795,0.0135
796,0.0143
797,0.0135
798,0.0138
799,0.0136
800,0.0133
801,0.0129
802,0.0132
803,0.0142
804,0.0134
805,0.0132
806,0.0138
807,0.0144
808,0.0146
809,0.0144
810,0.0157
811,0.0151
812,0.0135
813,0.0155
814,0.0138
815,0.0141
816,0.0146
817,0.0144
818,0.0151
819,0.0159
820,0.0164
821,0.0156
822,0.0155
823,0.0155
824,0.0144
825,0.0149
826,0.0140
827,0.0147
828,0.0146
829,0.0144
830,0.0148
831,0.0154
832,0.0134
833,0.0139
834,0.0142
835,0.0146
836,0.0137
837,0.0153
838,0.0141
839,0.0140
840,0.0145
841,0.0137
842,0.0139
843,0.0125
844,0.0133
845,0.0137
846,0.0138
847,0.0135
848,0.0135
849,0.0132
850,0.0133
851,0.0143
852,0.0139
853,0.0139
854,0.0140
855,0.0140
856,0.0136
857,0.0149
858,0.0146
859,0.0125
860,0.0131
861,0.0137
862,0.0136
863,0.0149
864,0.0127
865,0.0133
866,0.0146
867,0.0159
868,0.0134
869,0.0127
870,0.0140
871,0.0137
872,0.0139
873,0.0117
874,0.0132
875,0.0133
876,0.0148
877,0.0138
878,0.0139
879,0.0155
880,0.0130
881,0.0128
882,0.0153
883,0.0153
884,0.0143
885,0.0151
886,0.0155
887,0.0159
888,0.0144
889,0.0144
890,0.0186
891,0.0145
892,0.0168
893,0.0157
894,0.0172
895,0.0165
896,0.0161
897,0.0168
898,0.0170
899,0.0170
900,0.0178
901,0.0199
902,0.0175
903,0.0168
904,0.0202
905,0.0188
906,0.0168
907,0.0218
908,0.0191
909,0.0185
910,0.0183
911,0.0168
912,0.0192
913,0.0153
914,0.0192
915,0.0174
916,0.0192
917,0.0175
918,0.0156
919,0.0148
920,0.0183
921,0.0140
922,0.0153
923,0.0137
924,0.0154
925,0.0142
926,0.0134
927,0.0153
928,0.0128
929,0.0146
930,0.0131
931,0.0118
932,0.0109
933,0.0110
934,0.0105
935,0.0102
936,0.0086
937,0.0080
938,0.0071
939,0.0075
940,0.0052
941,0.0073
942,0.0061
943,0.0032
944,0.0039
945,0.0048
946,0.0049
947,0.0104
