382,NaN
383,1.0000
384,1.0000
385,1.0000
386,0.0054
387,0.1846
388,0.2892
389,0.1650
390,0.0000
391,0.0447
392,0.1820
393,0.2644
394,0.1200
395,0.0000
396,0.1482
397,0.0327
398,0.0000
399,0.0554
400,0.0000
401,0.2975
402,0.0000
403,0.1742
404,0.2041
405,0.1244
406,0.1123
407,0.0305
408,0.1348
409,0.0456
410,0.1000
411,0.1400
412,0.1220
413,0.1404
414,0.0942
415,0.0587
416,0.0911
417,0.0625
418,0.0835
419,0.0240
420,0.0262
421,0.0443
422,0.0275
423,0.0573
424,0.0257
425,0.0526
426,0.0688
427,0.0263
428,0.0432
429,0.0258
430,0.0536
431,0.0648
432,0.0488
433,0.0707
434,0.0328
435,0.0596
436,0.0657
437,0.0699
438,0.0647
439,0.0282
440,0.0696
441,0.0642
442,0.0428
443,0.0792
444,0.0548
445,0.0478
446,0.0626
447,0.0418
448,0.0529
449,0.0748
450,0.0472
451,0.0492
452,0.0328
453,0.0618
454,0.0501
455,0.0624
456,0.0524
457,0.0573
458,0.0538
459,0.0347
460,0.0492
461,0.0506
462,0.0445
463,0.0666
464,0.0358
465,0.0356
466,0.0496
467,0.0479
468,0.0547
469,0.0612
470,0.0492
471,0.0496
472,0.0557
473,0.0545
474,0.0585
475,0.0644
476,0.0660
477,0.0752
478,0.0612
479,0.0773
480,0.0694
481,0.0672
482,0.0725
483,0.0690
484,0.0702
485,0.0776
486,0.0792
487,0.0827
488,0.0766
489,0.0734
490,0.0799
491,0.0735
492,0.0679
493,0.0808
494,0.0796
495,0.0746
496,0.0791
497,0.0703
498,0.0748
499,0.0720
500,0.0714
501,0.0699
502,0.0690
503,0.0649
504,0.0665
505,0.0623
506,0.0652
507,0.0650
508,0.0621
509,0.0596
510,0.0613
511,0.0535
512,0.0551
513,0.0518
514,0.0527
515,0.0529
516,0.0495
517,0.0501
518,0.0436
519,0.0460
520,0.0474
521,0.0427
522,0.0422
523,0.0411
524,0.0439
525,0.0427
526,0.0440
527,0.0400
528,0.0415
529,0.0396
530,0.0419
531,0.0408
532,0.0377
533,0.0390
534,0.0401
535,0.0401
536,0.0384
537,0.0388
538,0.0389
539,0.0386
540,0.0407
541,0.0391
542,0.0386
543,0.0388
544,0.0385
545,0.0391
546,0.0400
547,0.0393
548,0.0389
549,0.0385
550,0.0388
551,0.0388
552,0.0394
553,0.0392
554,0.0403
555,0.0390
556,0.0387
557,0.0391
558,0.0392
559,0.0390
560,0.0393
561,0.0380
562,0.0388
563,0.0390
564,0.0379
565,0.0397
566,0.0373
567,0.0388
568,0.0399
569,0.0399
570,0.0394
571,0.0393
572,0.0400
573,0.0385
574,0.0401
575,0.0392
576,0.0405
577,0.0393
578,0.0381
579,0.0395
580,0.0388
581,0.0382
582,0.0383
583,0.0373
584,0.0377
585,0.0377
586,0.0386
587,0.0374
588,0.0376
589,0.0367
590,0.0379
591,0.0367
592,0.0367
593,0.0367
594,0.0370
595,0.0372
596,0.0351
597,0.0355
598,0.0357
599,0.0360
600,0.0362
601,0.0359
602,0.0365
603,0.0358
604,0.0368
605,0.0354
606,0.0349
607,0.0361
608,0.0360
609,0.0358
610,0.0361
611,0.0358
612,0.0370
613,0.0355
614,0.0357
615,0.0352
616,0.0355
617,0.0352
618,0.0355
619,0.0353
620,0.0362
621,0.0356
622,0.0361
623,0.0374
624,0.0358
625,0.0358
626,0.0360
627,0.0361
628,0.0367
629,0.0364
630,0.0369
631,0.0359
632,0.0356
633,0.0346
634,0.0350
635,0.0354
636,0.0342
637,0.0355
638,0.0346
639,0.0351
640,0.0356
641,0.0368
642,0.0348
643,0.0354
644,0.0348
645,0.0349
646,0.0350
647,0.0348
648,0.0342
649,0.0343
650,0.0337
651,0.0345
652,0.0334
653,0.0339
654,0.0329
655,0.0327
656,0.0337
657,0.0328
658,0.0334
659,0.0324
660,0.0331
661,0.0315
662,0.0322
663,0.0321
664,0.0326
665,0.0334
666,0.0309
667,0.0335
668,0.0329
669,0.0324
670,0.0327
671,0.0329
672,0.0313
673,0.0326
674,0.0325
675,0.0322
676,0.0321
677,0.0320
678,0.0322
679,0.0312
680,0.0318
681,0.0311
682,0.0317
683,0.0324
684,0.0318
685,0.0314
686,0.0324
687,0.0309
688,0.0312
689,0.0324
690,0.0326
691,0.0324
692,0.0317
693,0.0316
694,0.0322
695,0.0324
696,0.0317
697,0.0325
698,0.0317
699,0.0330
700,0.0325
701,0.0327
702,0.0319
703,0.0320
704,0.0309
705,0.0313
706,0.0325
707,0.0309
708,0.0312
709,0.0321
710,0.0308
711,0.0318
712,0.0307
713,0.0312
714,0.0305
715,0.0312
716,0.0304
717,0.0309
718,0.0306
719,0.0306
720,0.0293
721,0.0289
722,0.0284
723,0.0283
724,0.0273
725,0.0285
726,0.0282
727,0.0277
728,0.0268
729,0.0278
730,0.0278
731,0.0280
732,0.0281
733,0.0274
734,0.0280
735,0.0269
736,0.0274
737,0.0267
738,0.0278
739,0.0273
740,0.0263
741,0.0271
742,0.0267
743,0.0267
744,0.0273
745,0.0270
746,0.0271
747,0.0271
748,0.0283
749,0.0267
750,0.0267
751,0.0275
752,0.0266
753,0.0275
754,0.0274
755,0.0281
756,0.0269
757,0.0277
758,0.0275
759,0.0275
760,0.0273
761,0.0262
762,0.0269
763,0.0262
764,0.0271
765,0.0274
766,0.0269
767,0.0266
768,0.0268
769,0.0258
770,0.0263
771,0.0264
772,0.0267
773,0.0261
774,0.0275
775,0.0269
776,0.0270
777,0.0274
778,0.0267
779,0.0266
780,0.0264
781,0.0249
782,0.0261
783,0.0265
784,0.0260
785,0.0251
786,0.0263
787,0.0267
788,0.0264
789,0.0251
790,0.0267
791,0.0252
792,0.0248
793,0.0263
794,0.0263
795,0.0253
796,0.0256
797,0.0259
798,0.0247
799,0.0258
800,0.0262
801,0.0266
802,0.0263
803,0.0272
804,0.0267
805,0.0270
806,0.0256
807,0.0287
808,0.0272
809,0.0275
810,0.0297
811,0.0279
812,0.0273
813,0.0282
814,0.0287
815,0.0289
816,0.0282
817,0.0280
818,0.0286
819,0.0300
820,0.0300
821,0.0298
822,0.0292
823,0.0283
824,0.0287
825,0.0282
826,0.0299
827,0.0280
828,0.0273
829,0.0274
830,0.0269
831,0.0267
832,0.0268
833,0.0267
834,0.0259
835,0.0270
836,0.0260
837,0.0264
838,0.0246
839,0.0245
840,0.0230
841,0.0246
842,0.0249
843,0.0232
844,0.0240
845,0.0244
846,0.0233
847,0.0222
848,0.0229
849,0.0243
850,0.0230
851,0.0228
852,0.0230
853,0.0230
854,0.0229
855,0.0234
856,0.0229
857,0.0235
858,0.0224
859,0.0219
860,0.0229
861,0.0224
862,0.0225
863,0.0236
864,0.0218
865,0.0209
866,0.0228
867,0.0230
868,0.0213
869,0.0229
870,0.0210
871,0.0235
872,0.0227
873,0.0206
874,0.0204
875,0.0212
876,0.0200
877,0.0203
878,0.0222
879,0.0212
880,0.0225
881,0.0205
882,0.0212
883,0.0231
884,0.0208
885,0.0223
886,0.0230
887,0.0223
888,0.0215
889,0.0230
890,0.0247
891,0.0230
892,0.0252
893,0.0262
894,0.0272
895,0.0238
896,0.0268
897,0.0252
898,0.0248
899,0.0253
900,0.0275
901,0.0296
902,0.0247
903,0.0247
904,0.0270
905,0.0275
906,0.0284
907,0.0308
908,0.0313
909,0.0300
910,0.0292
911,0.0259
912,0.0288
913,0.0256
914,0.0289
915,0.0252
916,0.0265
917,0.0241
918,0.0224
919,0.0209
920,0.0247
921,0.0217
922,0.0208
923,0.0192
924,0.0223
925,0.0214
926,0.0186
927,0.0189
928,0.0164
929,0.0187
930,0.0170
931,0.0156
932,0.0161
933,0.0131
934,0.0138
935,0.0104
936,0.0089
937,0.0081
938,0.0096
939,0.0034
940,0.0069
941,0.0056
942,0.0043
943,0.0040
944,0.0055
945,0.0042
946,0.0036
947,0.0129
