382,NaN
383,1.0000
384,1.0000
385,1.0000
386,0.0000
387,0.1137
388,0.1810
389,0.1558
390,0.0000
391,0.1395
392,0.2040
393,0.1088
394,0.0000
395,0.0772
396,0.1276
397,0.0000
398,0.0214
399,0.0260
400,0.0507
401,0.2186
402,0.0000
403,0.1342
404,0.1291
405,0.0405
406,0.0341
407,0.0764
408,0.0862
409,0.1076
410,0.1354
411,0.0818
412,0.1307
413,0.0725
414,0.0439
415,0.0618
416,0.0182
417,0.0606
418,0.0000
419,0.0176
420,0.0531
421,0.0377
422,0.0011
423,0.0705
424,0.0465
425,0.0000
426,0.0838
427,0.0240
428,0.0500
429,0.0618
430,0.0369
431,0.0551
432,0.0510
433,0.0457
434,0.0751
435,0.0495
436,0.0469
437,0.0853
438,0.0656
439,0.0466
440,0.0689
441,0.0768
442,0.0600
443,0.1016
444,0.0631
445,0.0656
446,0.0663
447,0.0542
448,0.0230
449,0.0569
450,0.0603
451,0.0532
452,0.0445
453,0.0520
454,0.0599
455,0.0595
456,0.0649
457,0.0610
458,0.0600
459,0.0584
460,0.0606
461,0.0574
462,0.0453
463,0.0767
464,0.0593
465,0.0414
466,0.0569
467,0.0655
468,0.0699
469,0.0654
470,0.0646
471,0.0499
472,0.0645
473,0.0617
474,0.0633
475,0.0704
476,0.0674
477,0.0811
478,0.0695
479,0.0855
480,0.0761
481,0.0761
482,0.0677
483,0.0752
484,0.0709
485,0.0794
486,0.0759
487,0.0802
488,0.0750
489,0.0706
490,0.0817
491,0.0815
492,0.0770
493,0.0857
494,0.0808
495,0.0814
496,0.0808
497,0.0769
498,0.0846
499,0.0713
500,0.0812
501,0.0695
502,0.0732
503,0.0726
504,0.0689
505,0.0644
506,0.0675
507,0.0709
508,0.0630
509,0.0622
510,0.0623
511,0.0558
512,0.0586
513,0.0549
514,0.0545
515,0.0492
516,0.0530
517,0.0527
518,0.0503
519,0.0482
520,0.0482
521,0.0435
522,0.0436
523,0.0447
524,0.0429
525,0.0402
526,0.0439
527,0.0448
528,0.0434
529,0.0414
530,0.0408
531,0.0410
532,0.0424
533,0.0411
534,0.0408
535,0.0419
536,0.0430
537,0.0423
538,0.0401
539,0.0393
540,0.0399
541,0.0413
542,0.0394
543,0.0398
544,0.0396
545,0.0394
546,0.0399
547,0.0402
548,0.0403
549,0.0383
550,0.0385
551,0.0382
552,0.0409
553,0.0396
554,0.0390
555,0.0391
556,0.0398
557,0.0389
558,0.0391
559,0.0391
560,0.0398
561,0.0396
562,0.0404
563,0.0400
564,0.0413
565,0.0400
566,0.0391
567,0.0397
568,0.0401
569,0.0403
570,0.0401
571,0.0403
572,0.0400
573,0.0398
574,0.0409
575,0.0400
576,0.0400
577,0.0406
578,0.0385
579,0.0411
580,0.0404
581,0.0389
582,0.0389
583,0.0380
584,0.0380
585,0.0388
586,0.0385
587,0.0381
588,0.0389
589,0.0377
590,0.0386
591,0.0376
592,0.0376
593,0.0370
594,0.0379
595,0.0359
596,0.0373
597,0.0369
598,0.0362
599,0.0370
600,0.0356
601,0.0369
602,0.0364
603,0.0359
604,0.0356
605,0.0354
606,0.0363
607,0.0365
608,0.0370
609,0.0353
610,0.0355
611,0.0362
612,0.0365
613,0.0370
614,0.0356
615,0.0364
616,0.0360
617,0.0361
618,0.0356
619,0.0358
620,0.0360
621,0.0364
622,0.0375
623,0.0369
624,0.0364
625,0.0367
626,0.0361
627,0.0373
628,0.0374
629,0.0362
630,0.0354
631,0.0373
632,0.0362
633,0.0366
634,0.0360
635,0.0357
636,0.0355
637,0.0352
638,0.0352
639,0.0349
640,0.0356
641,0.0365
642,0.0352
643,0.0352
644,0.0355
645,0.0357
646,0.0356
647,0.0345
648,0.0362
649,0.0351
650,0.0352
651,0.0344
652,0.0349
653,0.0342
654,0.0336
655,0.0336
656,0.0336
657,0.0333
658,0.0341
659,0.0327
660,0.0326
661,0.0326
662,0.0337
663,0.0333
664,0.0333
665,0.0332
666,0.0324
667,0.0332
668,0.0325
669,0.0324
670,0.0324
671,0.0334
672,0.0320
673,0.0324
674,0.0322
675,0.0335
676,0.0329
677,0.0312
678,0.0332
679,0.0315
680,0.0316
681,0.0323
682,0.0322
683,0.0321
684,0.0329
685,0.0321
686,0.0322
687,0.0307
688,0.0320
689,0.0318
690,0.0324
691,0.0331
692,0.0319
693,0.0328
694,0.0322
695,0.0324
696,0.0328
697,0.0320
698,0.0322
699,0.0325
700,0.0336
701,0.0321
702,0.0326
703,0.0316
704,0.0314
705,0.0318
706,0.0315
707,0.0323
708,0.0329
709,0.0327
710,0.0318
711,0.0321
712,0.0324
713,0.0311
714,0.0311
715,0.0327
716,0.0319
717,0.0307
718,0.0303
719,0.0306
720,0.0298
721,0.0288
722,0.0288
723,0.0283
724,0.0282
725,0.0286
726,0.0293
727,0.0289
728,0.0282
729,0.0277
730,0.0282
731,0.0284
732,0.0281
733,0.0272
734,0.0277
735,0.0279
736,0.0279
737,0.0278
738,0.0281
739,0.0272
740,0.0268
741,0.0273
742,0.0270
743,0.0275
744,0.0274
745,0.0265
746,0.0270
747,0.0268
748,0.0277
749,0.0270
750,0.0259
751,0.0277
752,0.0270
753,0.0277
754,0.0277
755,0.0278
756,0.0276
757,0.0283
758,0.0267
759,0.0286
760,0.0273
761,0.0261
762,0.0279
763,0.0278
764,0.0275
765,0.0275
766,0.0276
767,0.0268
768,0.0271
769,0.0269
770,0.0260
771,0.0261
772,0.0264
773,0.0269
774,0.0277
775,0.0266
776,0.0273
777,0.0268
778,0.0272
779,0.0274
780,0.0261
781,0.0270
782,0.0263
783,0.0268
784,0.0274
785,0.0263
786,0.0269
787,0.0264
788,0.0259
789,0.0270
790,0.0254
791,0.0258
792,0.0254
793,0.0260
794,0.0268
795,0.0265
796,0.0248
797,0.0265
798,0.0260
799,0.0261
800,0.0270
801,0.0262
802,0.0258
803,0.0285
804,0.0268
805,0.0279
806,0.0270
807,0.0288
808,0.0281
809,0.0287
810,0.0296
811,0.0302
812,0.0283
813,0.0283
814,0.0283
815,0.0281
816,0.0287
817,0.0278
818,0.0287
819,0.0300
820,0.0302
821,0.0299
822,0.0285
823,0.0291
824,0.0270
825,0.0308
826,0.0281
827,0.0292
828,0.0275
829,0.0284
830,0.0281
831,0.0279
832,0.0279
833,0.0259
834,0.0273
835,0.0270
836,0.0263
837,0.0260
838,0.0253
839,0.0261
840,0.0249
841,0.0243
842,0.0238
843,0.0249
844,0.0239
845,0.0239
846,0.0240
847,0.0219
848,0.0241
849,0.0239
850,0.0236
851,0.0232
852,0.0237
853,0.0224
854,0.0251
855,0.0234
856,0.0214
857,0.0239
858,0.0223
859,0.0215
860,0.0236
861,0.0230
862,0.0232
863,0.0226
864,0.0230
865,0.0218
866,0.0231
867,0.0229
868,0.0218
869,0.0223
870,0.0226
871,0.0217
872,0.0221
873,0.0217
874,0.0200
875,0.0207
876,0.0209
877,0.0220
878,0.0200
879,0.0247
880,0.0205
881,0.0218
882,0.0239
883,0.0229
884,0.0214
885,0.0228
886,0.0230
887,0.0248
888,0.0219
889,0.0250
890,0.0260
891,0.0238
892,0.0256
893,0.0258
894,0.0257
895,0.0246
896,0.0253
897,0.0258
898,0.0281
899,0.0258
900,0.0285
901,0.0286
902,0.0260
903,0.0269
904,0.0302
905,0.0290
906,0.0296
907,0.0307
908,0.0317
909,0.0288
910,0.0275
911,0.0260
912,0.0295
913,0.0253
914,0.0266
915,0.0267
916,0.0290
917,0.0247
918,0.0221
919,0.0230
920,0.0241
921,0.0220
922,0.0203
923,0.0203
924,0.0226
925,0.0192
926,0.0212
927,0.0192
928,0.0181
929,0.0197
930,0.0166
931,0.0156
932,0.0155
933,0.0129
934,0.0162
935,0.0119
936,0.0107
937,0.0089
938,0.0085
939,0.0049
940,0.0059
941,0.0053
942,0.0056
943,0.0038
944,0.0046
945,0.0064
946,0.0040
947,0.0098
