382,NaN
383,1.0000
384,0.1600
385,1.0000
386,0.0000
387,0.3366
388,0.0727
389,0.0000
390,0.0000
391,0.2625
392,0.1732
393,0.0000
394,0.0348
395,0.0000
396,0.1260
397,0.0000
398,0.0003
399,0.1222
400,0.0000
401,0.2691
402,0.0000
403,0.1161
404,0.0724
405,0.1233
406,0.0648
407,0.0385
408,0.0778
409,0.0735
410,0.1101
411,0.1615
412,0.0985
413,0.0159
414,0.0166
415,0.0057
416,0.0537
417,0.0890
418,0.0128
419,0.0494
420,0.0627
421,0.0144
422,0.0444
423,0.0465
424,0.0750
425,0.0113
426,0.0764
427,0.0713
428,0.1026
429,0.0447
430,0.0248
431,0.0696
432,0.0770
433,0.0459
434,0.0696
435,0.0772
436,0.0665
437,0.0675
438,0.0640
439,0.0668
440,0.0866
441,0.1002
442,0.0848
443,0.0474
444,0.0516
445,0.0605
446,0.0556
447,0.0645
448,0.0323
449,0.0741
450,0.0499
451,0.0762
452,0.0529
453,0.0565
454,0.0636
455,0.0710
456,0.0644
457,0.0674
458,0.0589
459,0.0538
460,0.0585
461,0.0694
462,0.0605
463,0.0658
464,0.0520
465,0.0472
466,0.0626
467,0.0477
468,0.0771
469,0.0656
470,0.0701
471,0.0563
472,0.0673
473,0.0680
474,0.0650
475,0.0742
476,0.0698
477,0.0728
478,0.0701
479,0.0798
480,0.0767
481,0.0812
482,0.0792
483,0.0742
484,0.0727
485,0.0832
486,0.0752
487,0.0841
488,0.0813
489,0.0792
490,0.0771
491,0.0811
492,0.0788
493,0.0875
494,0.0812
495,0.0773
496,0.0834
497,0.0752
498,0.0853
499,0.0734
500,0.0758
501,0.0755
502,0.0750
503,0.0687
504,0.0684
505,0.0664
506,0.0638
507,0.0658
508,0.0641
509,0.0590
510,0.0625
511,0.0551
512,0.0562
513,0.0562
514,0.0591
515,0.0514
516,0.0523
517,0.0507
518,0.0465
519,0.0463
520,0.0478
521,0.0446
522,0.0457
523,0.0437
524,0.0451
525,0.0442
526,0.0435
527,0.0424
528,0.0428
529,0.0422
530,0.0426
531,0.0423
532,0.0405
533,0.0398
534,0.0420
535,0.0402
536,0.0413
537,0.0416
538,0.0402
539,0.0392
540,0.0400
541,0.0399
542,0.0395
543,0.0394
544,0.0396
545,0.0397
546,0.0412
547,0.0407
548,0.0404
549,0.0392
550,0.0394
551,0.0392
552,0.0402
553,0.0392
554,0.0401
555,0.0396
556,0.0395
557,0.0402
558,0.0405
559,0.0392
560,0.0398
561,0.0389
562,0.0404
563,0.0408
564,0.0396
565,0.0396
566,0.0381
567,0.0402
568,0.0398
569,0.0420
570,0.0394
571,0.0414
572,0.0397
573,0.0406
574,0.0399
575,0.0392
576,0.0409
577,0.0405
578,0.0398
579,0.0401
580,0.0394
581,0.0384
582,0.0385
583,0.0381
584,0.0388
585,0.0388
586,0.0381
587,0.0381
588,0.0386
589,0.0375
590,0.0378
591,0.0367
592,0.0380
593,0.0368
594,0.0376
595,0.0366
596,0.0358
597,0.0364
598,0.0375
599,0.0367
600,0.0367
601,0.0371
602,0.0364
603,0.0360
604,0.0369
605,0.0359
606,0.0355
607,0.0361
608,0.0367
609,0.0365
610,0.0363
611,0.0359
612,0.0371
613,0.0367
614,0.0367
615,0.0363
616,0.0363
617,0.0364
618,0.0358
619,0.0365
620,0.0356
621,0.0359
622,0.0375
623,0.0359
624,0.0366
625,0.0361
626,0.0361
627,0.0355
628,0.0365
629,0.0377
630,0.0372
631,0.0374
632,0.0353
633,0.0361
634,0.0358
635,0.0353
636,0.0349
637,0.0356
638,0.0347
639,0.0351
640,0.0358
641,0.0364
642,0.0356
643,0.0359
644,0.0351
645,0.0354
646,0.0352
647,0.0352
648,0.0358
649,0.0352
650,0.0346
651,0.0334
652,0.0341
653,0.0341
654,0.0344
655,0.0334
656,0.0331
657,0.0342
658,0.0333
659,0.0332
660,0.0330
661,0.0324
662,0.0326
663,0.0336
664,0.0325
665,0.0340
666,0.0326
667,0.0332
668,0.0333
669,0.0330
670,0.0332
671,0.0338
672,0.0320
673,0.0327
674,0.0325
675,0.0327
676,0.0327
677,0.0325
678,0.0328
679,0.0316
680,0.0318
681,0.0329
682,0.0321
683,0.0318
684,0.0321
685,0.0318
686,0.0326
687,0.0315
688,0.0323
689,0.0337
690,0.0327
691,0.0324
692,0.0326
693,0.0319
694,0.0331
695,0.0319
696,0.0326
697,0.0328
698,0.0325
699,0.0329
700,0.0331
701,0.0324
702,0.0322
703,0.0324
704,0.0316
705,0.0318
706,0.0321
707,0.0323
708,0.0325
709,0.0324
710,0.0312
711,0.0312
712,0.0312
713,0.0320
714,0.0320
715,0.0324
716,0.0314
717,0.0314
718,0.0303
719,0.0304
720,0.0304
721,0.0290
722,0.0286
723,0.0291
724,0.0285
725,0.0287
726,0.0291
727,0.0293
728,0.0284
729,0.0281
730,0.0282
731,0.0274
732,0.0280
733,0.0281
734,0.0284
735,0.0278
736,0.0281
737,0.0275
738,0.0278
739,0.0275
740,0.0263
741,0.0278
742,0.0269
743,0.0268
744,0.0279
745,0.0271
746,0.0268
747,0.0263
748,0.0270
749,0.0262
750,0.0272
751,0.0273
752,0.0271
753,0.0273
754,0.0275
755,0.0285
756,0.0273
757,0.0281
758,0.0273
759,0.0277
760,0.0280
761,0.0271
762,0.0271
763,0.0279
764,0.0283
765,0.0276
766,0.0270
767,0.0266
768,0.0265
769,0.0268
770,0.0270
771,0.0277
772,0.0268
773,0.0263
774,0.0274
775,0.0267
776,0.0278
777,0.0270
778,0.0271
779,0.0265
780,0.0260
781,0.0267
782,0.0274
783,0.0266
784,0.0259
785,0.0272
786,0.0262
787,0.0269
788,0.0267
789,0.0266
790,0.0262
791,0.0250
792,0.0263
793,0.0247
794,0.0266
795,0.0261
796,0.0267
797,0.0270
798,0.0261
799,0.0255
800,0.0271
801,0.0273
802,0.0272
803,0.0276
804,0.0279
805,0.0270
806,0.0270
807,0.0280
808,0.0291
809,0.0290
810,0.0291
811,0.0294
812,0.0278
813,0.0297
814,0.0279
815,0.0290
816,0.0295
817,0.0293
818,0.0290
819,0.0304
820,0.0312
821,0.0292
822,0.0289
823,0.0294
824,0.0283
825,0.0303
826,0.0298
827,0.0291
828,0.0274
829,0.0277
830,0.0277
831,0.0278
832,0.0275
833,0.0260
834,0.0276
835,0.0269
836,0.0252
837,0.0274
838,0.0263
839,0.0249
840,0.0251
841,0.0247
842,0.0260
843,0.0237
844,0.0246
845,0.0244
846,0.0228
847,0.0227
848,0.0233
849,0.0237
850,0.0238
851,0.0237
852,0.0225
853,0.0234
854,0.0233
855,0.0229
856,0.0227
857,0.0237
858,0.0242
859,0.0227
860,0.0231
861,0.0234
862,0.0232
863,0.0249
864,0.0209
865,0.0206
866,0.0234
867,0.0235
868,0.0229
869,0.0221
870,0.0221
871,0.0206
872,0.0220
873,0.0208
874,0.0217
875,0.0210
876,0.0194
877,0.0223
878,0.0213
879,0.0215
880,0.0214
881,0.0208
882,0.0219
883,0.0220
884,0.0205
885,0.0218
886,0.0226
887,0.0237
888,0.0228
889,0.0229
890,0.0265
891,0.0247
892,0.0234
893,0.0274
894,0.0247
895,0.0252
896,0.0267
897,0.0278
898,0.0279
899,0.0282
900,0.0282
901,0.0285
902,0.0264
903,0.0249
904,0.0305
905,0.0281
906,0.0275
907,0.0332
908,0.0306
909,0.0311
910,0.0312
911,0.0265
912,0.0278
913,0.0259
914,0.0284
915,0.0266
916,0.0280
917,0.0248
918,0.0250
919,0.0249
920,0.0258
921,0.0206
922,0.0213
923,0.0195
924,0.0232
925,0.0178
926,0.0200
927,0.0203
928,0.0187
929,0.0188
930,0.0182
931,0.0165
932,0.0150
933,0.0127
934,0.0139
935,0.0134
936,0.0106
937,0.0097
938,0.0097
939,0.0058
940,0.0070
941,0.0068
942,0.0060
943,0.0038
944,0.0034
945,0.0066
946,0.0055
947,0.0132
