382,NaN
383,0.2184
384,1.0000
385,1.0000
386,0.0000
387,0.3701
388,0.2254
389,0.1091
390,0.2256
391,0.2968
392,0.1695
393,0.1134
394,0.0185
395,0.0498
396,0.1544
397,0.0326
398,0.0456
399,0.0634
400,0.1431
401,0.1563
402,0.0000
403,0.0967
404,0.1306
405,0.0673
406,0.1191
407,0.0475
408,0.1219
409,0.0455
410,0.0967
411,0.0935
412,0.0766
413,0.1051
414,0.0255
415,0.0120
416,0.0644
417,0.0599
418,0.0444
419,0.0443
420,0.0480
421,0.0550
422,0.0229
423,0.0897
424,0.0699
425,0.0643
426,0.0595
427,0.0281
428,0.0000
429,0.0550
430,0.0636
431,0.0646
432,0.0622
433,0.0632
434,0.0597
435,0.0736
436,0.0640
437,0.0915
438,0.0722
439,0.0599
440,0.0659
441,0.0765
442,0.0733
443,0.0917
444,0.0582
445,0.0739
446,0.0499
447,0.0731
448,0.0415
449,0.0581
450,0.0617
451,0.0592
452,0.0416
453,0.0873
454,0.0553
455,0.0365
456,0.0700
457,0.0566
458,0.0567
459,0.0617
460,0.0681
461,0.0606
462,0.0510
463,0.0656
464,0.0561
465,0.0555
466,0.0565
467,0.0498
468,0.0656
469,0.0728
470,0.0526
471,0.0597
472,0.0677
473,0.0639
474,0.0658
475,0.0661
476,0.0664
477,0.0755
478,0.0735
479,0.0728
480,0.0728
481,0.0723
482,0.0676
483,0.0881
484,0.0697
485,0.0808
486,0.0784
487,0.0881
488,0.0872
489,0.0774
490,0.0820
491,0.0836
492,0.0744
493,0.0912
494,0.0752
495,0.0750
496,0.0815
497,0.0768
498,0.0818
499,0.0739
500,0.0781
501,0.0720
502,0.0718
503,0.0681
504,0.0698
505,0.0644
506,0.0645
507,0.0667
508,0.0636
509,0.0634
510,0.0630
511,0.0553
512,0.0571
513,0.0557
514,0.0577
515,0.0542
516,0.0536
517,0.0502
518,0.0492
519,0.0494
520,0.0486
521,0.0445
522,0.0440
523,0.0435
524,0.0437
525,0.0436
526,0.0455
527,0.0456
528,0.0427
529,0.0434
530,0.0418
531,0.0381
532,0.0420
533,0.0405
534,0.0424
535,0.0392
536,0.0419
537,0.0400
538,0.0414
539,0.0400
540,0.0397
541,0.0412
542,0.0415
543,0.0397
544,0.0412
545,0.0399
546,0.0404
547,0.0403
548,0.0394
549,0.0398
550,0.0410
551,0.0383
552,0.0398
553,0.0406
554,0.0409
555,0.0401
556,0.0386
557,0.0401
558,0.0398
559,0.0396
560,0.0385
561,0.0383
562,0.0407
563,0.0409
564,0.0383
565,0.0417
566,0.0386
567,0.0397
568,0.0404
569,0.0398
570,0.0407
571,0.0410
572,0.0412
573,0.0399
574,0.0401
575,0.0392
576,0.0411
577,0.0402
578,0.0387
579,0.0407
580,0.0399
581,0.0380
582,0.0392
583,0.0374
584,0.0384
585,0.0388
586,0.0392
587,0.0381
588,0.0381
589,0.0379
590,0.0380
591,0.0377
592,0.0379
593,0.0382
594,0.0381
595,0.0368
596,0.0366
597,0.0366
598,0.0368
599,0.0366
600,0.0360
601,0.0370
602,0.0374
603,0.0358
604,0.0364
605,0.0365
606,0.0357
607,0.0357
608,0.0363
609,0.0368
610,0.0366
611,0.0360
612,0.0361
613,0.0366
614,0.0359
615,0.0362
616,0.0363
617,0.0358
618,0.0366
619,0.0365
620,0.0362
621,0.0365
622,0.0364
623,0.0363
624,0.0372
625,0.0363
626,0.0369
627,0.0364
628,0.0376
629,0.0367
630,0.0363
631,0.0365
632,0.0351
633,0.0364
634,0.0352
635,0.0361
636,0.0351
637,0.0355
638,0.0356
639,0.0354
640,0.0364
641,0.0362
642,0.0355
643,0.0351
644,0.0359
645,0.0352
646,0.0351
647,0.0364
648,0.0349
649,0.0347
650,0.0348
651,0.0345
652,0.0352
653,0.0342
654,0.0344
655,0.0347
656,0.0329
657,0.0334
658,0.0331
659,0.0332
660,0.0327
661,0.0327
662,0.0334
663,0.0327
664,0.0333
665,0.0333
666,0.0330
667,0.0328
668,0.0320
669,0.0327
670,0.0334
671,0.0327
672,0.0326
673,0.0314
674,0.0321
675,0.0328
676,0.0330
677,0.0314
678,0.0321
679,0.0309
680,0.0318
681,0.0322
682,0.0320
683,0.0320
684,0.0330
685,0.0319
686,0.0329
687,0.0326
688,0.0314
689,0.0325
690,0.0323
691,0.0329
692,0.0321
693,0.0324
694,0.0325
695,0.0330
696,0.0319
697,0.0317
698,0.0331
699,0.0328
700,0.0335
701,0.0322
702,0.0329
703,0.0322
704,0.0321
705,0.0316
706,0.0313
707,0.0317
708,0.0324
709,0.0324
710,0.0309
711,0.0332
712,0.0312
713,0.0315
714,0.0302
715,0.0321
716,0.0325
717,0.0313
718,0.0310
719,0.0310
720,0.0306
721,0.0297
722,0.0292
723,0.0293
724,0.0292
725,0.0280
726,0.0285
727,0.0284
728,0.0275
729,0.0280
730,0.0283
731,0.0283
732,0.0282
733,0.0276
734,0.0279
735,0.0279
736,0.0272
737,0.0281
738,0.0280
739,0.0272
740,0.0265
741,0.0275
742,0.0270
743,0.0268
744,0.0270
745,0.0264
746,0.0273
747,0.0268
748,0.0283
749,0.0265
750,0.0267
751,0.0278
752,0.0275
753,0.0279
754,0.0275
755,0.0277
756,0.0273
757,0.0272
758,0.0281
759,0.0285
760,0.0286
761,0.0282
762,0.0271
763,0.0282
764,0.0272
765,0.0272
766,0.0279
767,0.0273
768,0.0264
769,0.0268
770,0.0268
771,0.0281
772,0.0274
773,0.0258
774,0.0271
775,0.0270
776,0.0266
777,0.0264
778,0.0262
779,0.0269
780,0.0262
781,0.0269
782,0.0263
783,0.0266
784,0.0272
785,0.0270
786,0.0259
787,0.0265
788,0.0268
789,0.0262
790,0.0253
791,0.0254
792,0.0262
793,0.0256
794,0.0260
795,0.0261
796,0.0253
797,0.0272
798,0.0276
799,0.0272
800,0.0272
801,0.0268
802,0.0265
803,0.0276
804,0.0275
805,0.0270
806,0.0268
807,0.0280
808,0.0297
809,0.0290
810,0.0298
811,0.0284
812,0.0286
813,0.0299
814,0.0292
815,0.0301
816,0.0293
817,0.0285
818,0.0291
819,0.0301
820,0.0311
821,0.0300
822,0.0297
823,0.0299
824,0.0288
825,0.0292
826,0.0282
827,0.0278
828,0.0283
829,0.0284
830,0.0274
831,0.0287
832,0.0278
833,0.0262
834,0.0267
835,0.0257
836,0.0257
837,0.0263
838,0.0255
839,0.0253
840,0.0237
841,0.0237
842,0.0252
843,0.0242
844,0.0247
845,0.0241
846,0.0234
847,0.0240
848,0.0234
849,0.0237
850,0.0242
851,0.0247
852,0.0236
853,0.0230
854,0.0240
855,0.0243
856,0.0234
857,0.0244
858,0.0233
859,0.0220
860,0.0218
861,0.0230
862,0.0225
863,0.0222
864,0.0228
865,0.0224
866,0.0239
867,0.0227
868,0.0228
869,0.0221
870,0.0216
871,0.0230
872,0.0232
873,0.0199
874,0.0228
875,0.0214
876,0.0224
877,0.0205
878,0.0221
879,0.0217
880,0.0216
881,0.0205
882,0.0231
883,0.0231
884,0.0224
885,0.0232
886,0.0227
887,0.0237
888,0.0211
889,0.0241
890,0.0257
891,0.0258
892,0.0261
893,0.0260
894,0.0257
895,0.0268
896,0.0268
897,0.0274
898,0.0266
899,0.0272
900,0.0287
901,0.0297
902,0.0262
903,0.0272
904,0.0285
905,0.0293
906,0.0283
907,0.0321
908,0.0310
909,0.0309
910,0.0322
911,0.0264
912,0.0300
913,0.0278
914,0.0272
915,0.0274
916,0.0271
917,0.0267
918,0.0242
919,0.0237
920,0.0256
921,0.0210
922,0.0231
923,0.0217
924,0.0220
925,0.0220
926,0.0197
927,0.0206
928,0.0178
929,0.0181
930,0.0165
931,0.0134
932,0.0151
933,0.0122
934,0.0157
935,0.0123
936,0.0102
937,0.0086
938,0.0081
939,0.0070
940,0.0065
941,0.0068
942,0.0043
943,0.0041
944,0.0070
945,0.0072
946,0.0051
947,0.0101
