382,NaN
383,1.0000
384,0.0000
385,1.0000
386,0.0000
387,0.1839
388,0.2450
389,0.0416
390,0.0000
391,0.1577
392,0.2862
393,0.2281
394,0.0523
395,0.0000
396,0.1909
397,0.0000
398,0.0000
399,0.0689
400,0.2292
401,0.3749
402,0.0000
403,0.0937
404,0.0585
405,0.0727
406,0.0299
407,0.0930
408,0.0567
409,0.0592
410,0.0786
411,0.0979
412,0.1233
413,0.1124
414,0.0350
415,0.0870
416,0.0652
417,0.0572
418,0.0733
419,0.0387
420,0.1295
421,0.0194
422,0.0128
423,0.0540
424,0.0335
425,0.0765
426,0.0752
427,0.0275
428,0.0381
429,0.0489
430,0.0785
431,0.0671
432,0.0611
433,0.0206
434,0.0661
435,0.0484
436,0.0657
437,0.0675
438,0.0469
439,0.0537
440,0.0784
441,0.0846
442,0.0671
443,0.0727
444,0.0845
445,0.0733
446,0.0407
447,0.0614
448,0.0521
449,0.0722
450,0.0731
451,0.0548
452,0.0583
453,0.0731
454,0.0733
455,0.0605
456,0.0673
457,0.0481
458,0.0695
459,0.0662
460,0.0582
461,0.0535
462,0.0626
463,0.0597
464,0.0469
465,0.0428
466,0.0451
467,0.0487
468,0.0593
469,0.0679
470,0.0618
471,0.0563
472,0.0669
473,0.0713
474,0.0595
475,0.0717
476,0.0713
477,0.0770
478,0.0698
479,0.0849
480,0.0766
481,0.0686
482,0.0716
483,0.0740
484,0.0784
485,0.0807
486,0.0781
487,0.0815
488,0.0859
489,0.0772
490,0.0831
491,0.0845
492,0.0791
493,0.0845
494,0.0856
495,0.0744
496,0.0795
497,0.0721
498,0.0847
499,0.0782
500,0.0755
501,0.0790
502,0.0756
503,0.0728
504,0.0684
505,0.0656
506,0.0636
507,0.0713
508,0.0610
509,0.0628
510,0.0619
511,0.0550
512,0.0579
513,0.0554
514,0.0524
515,0.0525
516,0.0511
517,0.0506
518,0.0477
519,0.0464
520,0.0486
521,0.0445
522,0.0475
523,0.0439
524,0.0434
525,0.0428
526,0.0445
527,0.0436
528,0.0431
529,0.0433
530,0.0402
531,0.0406
532,0.0422
533,0.0409
534,0.0418
535,0.0394
536,0.0403
537,0.0402
538,0.0409
539,0.0402
540,0.0407
541,0.0413
542,0.0410
543,0.0416
544,0.0406
545,0.0409
546,0.0408
547,0.0397
548,0.0415
549,0.0413
550,0.0408
551,0.0380
552,0.0408
553,0.0412
554,0.0387
555,0.0401
556,0.0405
557,0.0399
558,0.0403
559,0.0397
560,0.0393
561,0.0408
562,0.0409
563,0.0413
564,0.0409
565,0.0405
566,0.0392
567,0.0391
568,0.0411
569,0.0411
570,0.0409
571,0.0413
572,0.0398
573,0.0398
574,0.0398
575,0.0388
576,0.0398
577,0.0399
578,0.0402
579,0.0411
580,0.0405
581,0.0381
582,0.0396
583,0.0380
584,0.0385
585,0.0386
586,0.0382
587,0.0377
588,0.0388
589,0.0376
590,0.0376
591,0.0366
592,0.0379
593,0.0374
594,0.0376
595,0.0365
596,0.0362
597,0.0365
598,0.0368
599,0.0373
600,0.0375
601,0.0365
602,0.0377
603,0.0361
604,0.0367
605,0.0358
606,0.0362
607,0.0363
608,0.0367
609,0.0364
610,0.0362
611,0.0359
612,0.0366
613,0.0378
614,0.0365
615,0.0366
616,0.0365
617,0.0345
618,0.0363
619,0.0368
620,0.0356
621,0.0366
622,0.0372
623,0.0375
624,0.0370
625,0.0362
626,0.0373
627,0.0369
628,0.0370
629,0.0366
630,0.0367
631,0.0373
632,0.0359
633,0.0365
634,0.0361
635,0.0364
636,0.0349
637,0.0364
638,0.0365
639,0.0359
640,0.0366
641,0.0362
642,0.0355
643,0.0355
644,0.0355
645,0.0356
646,0.0354
647,0.0359
648,0.0349
649,0.0355
650,0.0353
651,0.0346
652,0.0344
653,0.0343
654,0.0339
655,0.0349
656,0.0334
657,0.0346
658,0.0339
659,0.0337
660,0.0329
661,0.0325
662,0.0329
663,0.0336
664,0.0328
665,0.0330
666,0.0325
667,0.0327
668,0.0324
669,0.0328
670,0.0333
671,0.0337
672,0.0326
673,0.0330
674,0.0320
675,0.0322
676,0.0328
677,0.0325
678,0.0320
679,0.0313
680,0.0321
681,0.0324
682,0.0318
683,0.0322
684,0.0325
685,0.0323
686,0.0328
687,0.0314
688,0.0323
689,0.0327
690,0.0327
691,0.0327
692,0.0322
693,0.0322
694,0.0324
695,0.0318
696,0.0331
697,0.0326
698,0.0326
699,0.0322
700,0.0328
701,0.0320
702,0.0315
703,0.0332
704,0.0309
705,0.0322
706,0.0316
707,0.0328
708,0.0318
709,0.0332
710,0.0326
711,0.0318
712,0.0324
713,0.0315
714,0.0317
715,0.0315
716,0.0314
717,0.0316
718,0.0302
719,0.0307
720,0.0293
721,0.0288
722,0.0293
723,0.0302
724,0.0292
725,0.0289
726,0.0288
727,0.0283
728,0.0284
729,0.0286
730,0.0292
731,0.0286
732,0.0282
733,0.0275
734,0.0270
735,0.0280
736,0.0272
737,0.0286
738,0.0289
739,0.0273
740,0.0271
741,0.0271
742,0.0273
743,0.0272
744,0.0272
745,0.0274
746,0.0279
747,0.0269
748,0.0282
749,0.0266
750,0.0266
751,0.0271
752,0.0272
753,0.0276
754,0.0278
755,0.0279
756,0.0275
757,0.0271
758,0.0271
759,0.0279
760,0.0272
761,0.0271
762,0.0269
763,0.0277
764,0.0282
765,0.0276
766,0.0271
767,0.0269
768,0.0275
769,0.0255
770,0.0261
771,0.0280
772,0.0270
773,0.0268
774,0.0281
775,0.0273
776,0.0271
777,0.0265
778,0.0264
779,0.0277
780,0.0269
781,0.0273
782,0.0272
783,0.0267
784,0.0263
785,0.0260
786,0.0264
787,0.0265
788,0.0275
789,0.0258
790,0.0265
791,0.0257
792,0.0267
793,0.0255
794,0.0265
795,0.0272
796,0.0257
797,0.0271
798,0.0258
799,0.0267
800,0.0269
801,0.0272
802,0.0260
803,0.0275
804,0.0273
805,0.0261
806,0.0265
807,0.0274
808,0.0288
809,0.0290
810,0.0293
811,0.0300
812,0.0290
813,0.0290
814,0.0276
815,0.0292
816,0.0290
817,0.0283
818,0.0289
819,0.0308
820,0.0306
821,0.0303
822,0.0292
823,0.0294
824,0.0289
825,0.0290
826,0.0298
827,0.0283
828,0.0274
829,0.0281
830,0.0285
831,0.0283
832,0.0269
833,0.0265
834,0.0275
835,0.0262
836,0.0273
837,0.0258
838,0.0256
839,0.0235
840,0.0240
841,0.0246
842,0.0242
843,0.0236
844,0.0246
845,0.0252
846,0.0245
847,0.0241
848,0.0239
849,0.0240
850,0.0235
851,0.0238
852,0.0234
853,0.0234
854,0.0244
855,0.0233
856,0.0226
857,0.0240
858,0.0226
859,0.0224
860,0.0234
861,0.0234
862,0.0243
863,0.0235
864,0.0211
865,0.0206
866,0.0233
867,0.0229
868,0.0209
869,0.0217
870,0.0215
871,0.0195
872,0.0215
873,0.0197
874,0.0201
875,0.0206
876,0.0215
877,0.0222
878,0.0212
879,0.0220
880,0.0212
881,0.0209
882,0.0229
883,0.0215
884,0.0224
885,0.0245
886,0.0230
887,0.0248
888,0.0238
889,0.0240
890,0.0258
891,0.0240
892,0.0255
893,0.0262
894,0.0280
895,0.0248
896,0.0254
897,0.0251
898,0.0259
899,0.0264
900,0.0274
901,0.0276
902,0.0254
903,0.0275
904,0.0302
905,0.0292
906,0.0288
907,0.0330
908,0.0319
909,0.0299
910,0.0296
911,0.0253
912,0.0298
913,0.0281
914,0.0287
915,0.0271
916,0.0279
917,0.0232
918,0.0254
919,0.0235
920,0.0255
921,0.0212
922,0.0212
923,0.0209
924,0.0209
925,0.0203
926,0.0199
927,0.0188
928,0.0184
929,0.0184
930,0.0179
931,0.0150
932,0.0157
933,0.0133
934,0.0158
935,0.0125
936,0.0088
937,0.0073
938,0.0105
939,0.0067
940,0.0069
941,0.0060
942,0.0060
943,0.0045
944,0.0054
945,0.0053
946,0.0023
947,0.0069
