382,NaN
383,1.0000
384,0.4957
385,1.0000
386,0.0000
387,0.2991
388,0.1016
389,0.0990
390,0.0000
391,0.0390
392,0.1305
393,0.0494
394,0.0000
395,0.0000
396,0.3525
397,0.0000
398,0.1110
399,0.0463
400,0.2128
401,0.2266
402,0.0979
403,0.1405
404,0.0902
405,0.0902
406,0.1148
407,0.0915
408,0.0343
409,0.0478
410,0.1745
411,0.0989
412,0.1587
413,0.1354
414,0.0564
415,0.1221
416,0.0485
417,0.0897
418,0.0308
419,0.0385
420,0.0900
421,0.0566
422,0.0348
423,0.0688
424,0.0228
425,0.0190
426,0.1141
427,0.0320
428,0.0396
429,0.0851
430,0.0631
431,0.0627
432,0.0515
433,0.0397
434,0.0300
435,0.0787
436,0.0691
437,0.0831
438,0.0594
439,0.0230
440,0.0519
441,0.0938
442,0.0605
443,0.0569
444,0.0712
445,0.0580
446,0.0494
447,0.0632
448,0.0461
449,0.0684
450,0.0769
451,0.0364
452,0.0402
453,0.0439
454,0.0574
455,0.0608
456,0.0555
457,0.0549
458,0.0673
459,0.0512
460,0.0582
461,0.0632
462,0.0400
463,0.0748
464,0.0486
465,0.0420
466,0.0661
467,0.0542
468,0.0660
469,0.0771
470,0.0534
471,0.0544
472,0.0586
473,0.0676
474,0.0709
475,0.0666
476,0.0686
477,0.0821
478,0.0694
479,0.0767
480,0.0680
481,0.0737
482,0.0783
483,0.0781
484,0.0746
485,0.0798
486,0.0714
487,0.0862
488,0.0804
489,0.0764
490,0.0813
491,0.0756
492,0.0732
493,0.0876
494,0.0829
495,0.0805
496,0.0753
497,0.0728
498,0.0783
499,0.0726
500,0.0761
501,0.0732
502,0.0692
503,0.0643
504,0.0676
505,0.0658
506,0.0669
507,0.0667
508,0.0634
509,0.0638
510,0.0612
511,0.0538
512,0.0556
513,0.0554
514,0.0536
515,0.0540
516,0.0496
517,0.0521
518,0.0458
519,0.0459
520,0.0489
521,0.0447
522,0.0463
523,0.0434
524,0.0434
525,0.0433
526,0.0436
527,0.0422
528,0.0414
529,0.0416
530,0.0403
531,0.0414
532,0.0424
533,0.0402
534,0.0428
535,0.0400
536,0.0403
537,0.0408
538,0.0410
539,0.0401
540,0.0402
541,0.0398
542,0.0396
543,0.0393
544,0.0392
545,0.0403
546,0.0405
547,0.0400
548,0.0397
549,0.0398
550,0.0397
551,0.0392
552,0.0410
553,0.0396
554,0.0391
555,0.0372
556,0.0385
557,0.0402
558,0.0395
559,0.0405
560,0.0376
561,0.0388
562,0.0393
563,0.0393
564,0.0391
565,0.0400
566,0.0390
567,0.0401
568,0.0406
569,0.0406
570,0.0411
571,0.0399
572,0.0409
573,0.0402
574,0.0398
575,0.0390
576,0.0403
577,0.0400
578,0.0407
579,0.0408
580,0.0404
581,0.0376
582,0.0389
583,0.0376
584,0.0386
585,0.0382
586,0.0390
587,0.0383
588,0.0382
589,0.0382
590,0.0381
591,0.0368
592,0.0383
593,0.0380
594,0.0379
595,0.0372
596,0.0354
597,0.0362
598,0.0365
599,0.0375
600,0.0374
601,0.0368
602,0.0363
603,0.0364
604,0.0364
605,0.0361
606,0.0353
607,0.0370
608,0.0369
609,0.0367
610,0.0363
611,0.0363
612,0.0370
613,0.0374
614,0.0359
615,0.0362
616,0.0365
617,0.0356
618,0.0366
619,0.0377
620,0.0365
621,0.0362
622,0.0368
623,0.0362
624,0.0368
625,0.0359
626,0.0362
627,0.0369
628,0.0368
629,0.0366
630,0.0370
631,0.0363
632,0.0358
633,0.0357
634,0.0359
635,0.0354
636,0.0360
637,0.0365
638,0.0356
639,0.0358
640,0.0355
641,0.0363
642,0.0355
643,0.0353
644,0.0354
645,0.0353
646,0.0348
647,0.0345
648,0.0348
649,0.0343
650,0.0349
651,0.0353
652,0.0344
653,0.0348
654,0.0336
655,0.0340
656,0.0337
657,0.0329
658,0.0332
659,0.0334
660,0.0325
661,0.0320
662,0.0327
663,0.0340
664,0.0332
665,0.0332
666,0.0321
667,0.0336
668,0.0333
669,0.0328
670,0.0325
671,0.0330
672,0.0320
673,0.0326
674,0.0320
675,0.0327
676,0.0331
677,0.0323
678,0.0322
679,0.0318
680,0.0319
681,0.0321
682,0.0323
683,0.0316
684,0.0328
685,0.0308
686,0.0327
687,0.0316
688,0.0324
689,0.0324
690,0.0327
691,0.0324
692,0.0320
693,0.0322
694,0.0320
695,0.0321
696,0.0327
697,0.0330
698,0.0317
699,0.0327
700,0.0328
701,0.0325
702,0.0325
703,0.0320
704,0.0314
705,0.0313
706,0.0308
707,0.0316
708,0.0323
709,0.0326
710,0.0318
711,0.0325
712,0.0319
713,0.0319
714,0.0317
715,0.0321
716,0.0306
717,0.0317
718,0.0303
719,0.0309
720,0.0310
721,0.0286
722,0.0291
723,0.0300
724,0.0285
725,0.0286
726,0.0283
727,0.0286
728,0.0283
729,0.0273
730,0.0282
731,0.0282
732,0.0289
733,0.0274
734,0.0281
735,0.0281
736,0.0274
737,0.0280
738,0.0284
739,0.0270
740,0.0265
741,0.0275
742,0.0269
743,0.0268
744,0.0266
745,0.0274
746,0.0269
747,0.0274
748,0.0274
749,0.0265
750,0.0268
751,0.0277
752,0.0278
753,0.0273
754,0.0271
755,0.0283
756,0.0277
757,0.0284
758,0.0269
759,0.0285
760,0.0269
761,0.0271
762,0.0271
763,0.0282
764,0.0269
765,0.0271
766,0.0279
767,0.0268
768,0.0269
769,0.0274
770,0.0257
771,0.0277
772,0.0273
773,0.0269
774,0.0283
775,0.0270
776,0.0273
777,0.0263
778,0.0269
779,0.0267
780,0.0262
781,0.0268
782,0.0267
783,0.0266
784,0.0268
785,0.0266
786,0.0270
787,0.0273
788,0.0266
789,0.0266
790,0.0262
791,0.0241
792,0.0262
793,0.0264
794,0.0269
795,0.0263
796,0.0261
797,0.0269
798,0.0269
799,0.0256
800,0.0267
801,0.0269
802,0.0262
803,0.0267
804,0.0281
805,0.0277
806,0.0277
807,0.0295
808,0.0272
809,0.0294
810,0.0289
811,0.0285
812,0.0281
813,0.0287
814,0.0281
815,0.0286
816,0.0287
817,0.0294
818,0.0288
819,0.0298
820,0.0312
821,0.0307
822,0.0293
823,0.0284
824,0.0293
825,0.0295
826,0.0281
827,0.0293
828,0.0271
829,0.0279
830,0.0263
831,0.0273
832,0.0273
833,0.0267
834,0.0263
835,0.0267
836,0.0265
837,0.0261
838,0.0263
839,0.0250
840,0.0240
841,0.0251
842,0.0250
843,0.0232
844,0.0244
845,0.0241
846,0.0239
847,0.0236
848,0.0235
849,0.0237
850,0.0242
851,0.0241
852,0.0235
853,0.0233
854,0.0246
855,0.0236
856,0.0236
857,0.0230
858,0.0220
859,0.0222
860,0.0233
861,0.0235
862,0.0234
863,0.0240
864,0.0230
865,0.0227
866,0.0234
867,0.0212
868,0.0233
869,0.0219
870,0.0221
871,0.0215
872,0.0219
873,0.0211
874,0.0200
875,0.0212
876,0.0223
877,0.0207
878,0.0198
879,0.0220
880,0.0226
881,0.0207
882,0.0219
883,0.0226
884,0.0221
885,0.0225
886,0.0236
887,0.0232
888,0.0221
889,0.0241
890,0.0269
891,0.0236
892,0.0242
893,0.0261
894,0.0268
895,0.0259
896,0.0272
897,0.0250
898,0.0274
899,0.0275
900,0.0299
901,0.0281
902,0.0264
903,0.0278
904,0.0289
905,0.0276
906,0.0287
907,0.0301
908,0.0303
909,0.0301
910,0.0298
911,0.0266
912,0.0289
913,0.0275
914,0.0279
915,0.0283
916,0.0271
917,0.0245
918,0.0222
919,0.0229
920,0.0239
921,0.0196
922,0.0223
923,0.0193
924,0.0227
925,0.0209
926,0.0185
927,0.0189
928,0.0168
929,0.0187
930,0.0185
931,0.0172
932,0.0153
933,0.0140
934,0.0154
935,0.0118
936,0.0087
937,0.0062
938,0.0078
939,0.0068
940,0.0055
941,0.0058
942,0.0050
943,0.0038
944,0.0056
945,0.0058
946,0.0054
947,0.0104
