382,NaN
383,1.0000
384,1.0000
385,1.0000
386,0.0000
387,0.1650
388,0.1961
389,0.0000
390,0.1641
391,0.1460
392,0.0579
393,0.2302
394,0.0000
395,0.0542
396,0.1369
397,0.0000
398,0.0000
399,0.0713
400,0.0936
401,0.2099
402,0.0000
403,0.0712
404,0.1096
405,0.0000
406,0.1223
407,0.1093
408,0.0867
409,0.0549
410,0.0839
411,0.1312
412,0.1087
413,0.0928
414,0.0518
415,0.0475
416,0.0597
417,0.0469
418,0.0404
419,0.0729
420,0.1042
421,0.0466
422,0.0045
423,0.0209
424,0.0406
425,0.0721
426,0.0545
427,0.0135
428,0.0494
429,0.0775
430,0.0649
431,0.0681
432,0.0618
433,0.0366
434,0.0576
435,0.0841
436,0.1010
437,0.0762
438,0.0686
439,0.0520
440,0.0842
441,0.0912
442,0.0714
443,0.0742
444,0.0420
445,0.0746
446,0.0617
447,0.0409
448,0.0534
449,0.0647
450,0.0699
451,0.0412
452,0.0527
453,0.0707
454,0.0462
455,0.0403
456,0.0603
457,0.0528
458,0.0622
459,0.0624
460,0.0502
461,0.0663
462,0.0644
463,0.0695
464,0.0576
465,0.0544
466,0.0467
467,0.0597
468,0.0659
469,0.0674
470,0.0534
471,0.0536
472,0.0758
473,0.0681
474,0.0613
475,0.0660
476,0.0714
477,0.0804
478,0.0640
479,0.0781
480,0.0808
481,0.0673
482,0.0669
483,0.0781
484,0.0736
485,0.0833
486,0.0756
487,0.0832
488,0.0820
489,0.0721
490,0.0846
491,0.0792
492,0.0716
493,0.0869
494,0.0773
495,0.0830
496,0.0809
497,0.0749
498,0.0800
499,0.0757
500,0.0754
501,0.0703
502,0.0733
503,0.0701
504,0.0724
505,0.0628
506,0.0686
507,0.0632
508,0.0634
509,0.0616
510,0.0643
511,0.0565
512,0.0532
513,0.0559
514,0.0548
515,0.0553
516,0.0518
517,0.0549
518,0.0464
519,0.0470
520,0.0479
521,0.0452
522,0.0460
523,0.0443
524,0.0440
525,0.0421
526,0.0443
527,0.0442
528,0.0436
529,0.0422
530,0.0418
531,0.0420
532,0.0427
533,0.0397
534,0.0426
535,0.0419
536,0.0408
537,0.0391
538,0.0407
539,0.0397
540,0.0421
541,0.0397
542,0.0392
543,0.0394
544,0.0396
545,0.0397
546,0.0405
547,0.0405
548,0.0398
549,0.0383
550,0.0396
551,0.0391
552,0.0394
553,0.0396
554,0.0410
555,0.0394
556,0.0404
557,0.0398
558,0.0387
559,0.0395
560,0.0385
561,0.0389
562,0.0401
563,0.0397
564,0.0407
565,0.0413
566,0.0390
567,0.0404
568,0.0404
569,0.0403
570,0.0409
571,0.0411
572,0.0407
573,0.0398
574,0.0401
575,0.0394
576,0.0404
577,0.0405
578,0.0390
579,0.0399
580,0.0395
581,0.0384
582,0.0382
583,0.0387
584,0.0393
585,0.0382
586,0.0383
587,0.0385
588,0.0382
589,0.0369
590,0.0376
591,0.0380
592,0.0373
593,0.0377
594,0.0381
595,0.0371
596,0.0369
597,0.0374
598,0.0359
599,0.0373
600,0.0370
601,0.0365
602,0.0373
603,0.0357
604,0.0360
605,0.0360
606,0.0357
607,0.0360
608,0.0365
609,0.0366
610,0.0357
611,0.0360
612,0.0368
613,0.0370
614,0.0360
615,0.0370
616,0.0364
617,0.0353
618,0.0367
619,0.0368
620,0.0363
621,0.0362
622,0.0367
623,0.0371
624,0.0363
625,0.0370
626,0.0350
627,0.0364
628,0.0379
629,0.0371
630,0.0369
631,0.0372
632,0.0368
633,0.0359
634,0.0353
635,0.0360
636,0.0358
637,0.0359
638,0.0352
639,0.0359
640,0.0364
641,0.0368
642,0.0356
643,0.0351
644,0.0351
645,0.0361
646,0.0358
647,0.0356
648,0.0344
649,0.0349
650,0.0340
651,0.0349
652,0.0339
653,0.0345
654,0.0338
655,0.0340
656,0.0327
657,0.0336
658,0.0338
659,0.0332
660,0.0336
661,0.0331
662,0.0330
663,0.0338
664,0.0337
665,0.0333
666,0.0333
667,0.0328
668,0.0326
669,0.0331
670,0.0332
671,0.0338
672,0.0333
673,0.0320
674,0.0319
675,0.0325
676,0.0336
677,0.0314
678,0.0328
679,0.0322
680,0.0323
681,0.0324
682,0.0318
683,0.0320
684,0.0322
685,0.0326
686,0.0332
687,0.0315
688,0.0325
689,0.0334
690,0.0319
691,0.0328
692,0.0321
693,0.0325
694,0.0327
695,0.0319
696,0.0323
697,0.0329
698,0.0324
699,0.0327
700,0.0323
701,0.0327
702,0.0323
703,0.0320
704,0.0321
705,0.0318
706,0.0316
707,0.0318
708,0.0323
709,0.0324
710,0.0320
711,0.0328
712,0.0319
713,0.0318
714,0.0303
715,0.0323
716,0.0310
717,0.0317
718,0.0304
719,0.0315
720,0.0300
721,0.0292
722,0.0288
723,0.0290
724,0.0291
725,0.0288
726,0.0296
727,0.0292
728,0.0277
729,0.0277
730,0.0281
731,0.0284
732,0.0285
733,0.0274
734,0.0272
735,0.0279
736,0.0278
737,0.0279
738,0.0283
739,0.0277
740,0.0270
741,0.0276
742,0.0271
743,0.0267
744,0.0269
745,0.0272
746,0.0269
747,0.0265
748,0.0278
749,0.0262
750,0.0264
751,0.0271
752,0.0275
753,0.0282
754,0.0284
755,0.0280
756,0.0279
757,0.0278
758,0.0273
759,0.0282
760,0.0281
761,0.0272
762,0.0268
763,0.0283
764,0.0286
765,0.0275
766,0.0266
767,0.0280
768,0.0280
769,0.0264
770,0.0267
771,0.0264
772,0.0268
773,0.0271
774,0.0279
775,0.0269
776,0.0277
777,0.0269
778,0.0266
779,0.0274
780,0.0265
781,0.0263
782,0.0272
783,0.0264
784,0.0260
785,0.0272
786,0.0267
787,0.0268
788,0.0266
789,0.0265
790,0.0262
791,0.0252
792,0.0265
793,0.0258
794,0.0258
795,0.0257
796,0.0258
797,0.0277
798,0.0259
799,0.0262
800,0.0265
801,0.0275
802,0.0269
803,0.0266
804,0.0272
805,0.0268
806,0.0270
807,0.0287
808,0.0283
809,0.0289
810,0.0297
811,0.0294
812,0.0274
813,0.0292
814,0.0282
815,0.0278
816,0.0291
817,0.0295
818,0.0288
819,0.0302
820,0.0306
821,0.0299
822,0.0293
823,0.0301
824,0.0280
825,0.0297
826,0.0286
827,0.0282
828,0.0281
829,0.0267
830,0.0278
831,0.0288
832,0.0262
833,0.0255
834,0.0278
835,0.0266
836,0.0270
837,0.0260
838,0.0252
839,0.0246
840,0.0235
841,0.0242
842,0.0240
843,0.0227
844,0.0247
845,0.0239
846,0.0227
847,0.0228
848,0.0240
849,0.0234
850,0.0239
851,0.0245
852,0.0248
853,0.0234
854,0.0248
855,0.0235
856,0.0232
857,0.0234
858,0.0232
859,0.0230
860,0.0224
861,0.0221
862,0.0231
863,0.0231
864,0.0219
865,0.0220
866,0.0232
867,0.0215
868,0.0222
869,0.0215
870,0.0222
871,0.0212
872,0.0226
873,0.0217
874,0.0203
875,0.0216
876,0.0215
877,0.0213
878,0.0206
879,0.0213
880,0.0218
881,0.0210
882,0.0225
883,0.0225
884,0.0204
885,0.0238
886,0.0250
887,0.0236
888,0.0223
889,0.0232
890,0.0250
891,0.0231
892,0.0267
893,0.0268
894,0.0276
895,0.0268
896,0.0274
897,0.0272
898,0.0248
899,0.0260
900,0.0291
901,0.0300
902,0.0276
903,0.0287
904,0.0272
905,0.0285
906,0.0290
907,0.0311
908,0.0287
909,0.0307
910,0.0302
911,0.0253
912,0.0295
913,0.0247
914,0.0271
915,0.0274
916,0.0267
917,0.0257
918,0.0261
919,0.0232
920,0.0243
921,0.0204
922,0.0199
923,0.0217
924,0.0224
925,0.0205
926,0.0182
927,0.0193
928,0.0184
929,0.0176
930,0.0168
931,0.0178
932,0.0160
933,0.0129
934,0.0140
935,0.0109
936,0.0095
937,0.0079
938,0.0087
939,0.0071
940,0.0053
941,0.0063
942,0.0058
943,0.0017
944,0.0043
945,0.0048
946,0.0040
947,0.0042
