399.985280,0.256757
400.329500,0.243243
400.673680,0.265823
401.017820,0.367647
401.361920,0.242424
401.705980,0.280488
402.050000,0.285714
402.393980,0.329412
402.737920,0.303371
403.081820,0.298969
403.425680,0.325581
403.769500,0.302083
404.113280,0.344828
404.457020,0.370787
404.800720,0.336957
405.144380,0.282828
405.488000,0.311828
405.831580,0.288660
406.175120,0.319149
406.518620,0.350000
406.862080,0.309278
407.205500,0.322917
407.548880,0.326531
407.892220,0.284314
408.235520,0.361702
408.578780,0.380952
408.922000,0.336538
409.265180,0.343434
409.608320,0.313131
409.951420,0.443299
410.294480,0.382353
410.637500,0.326087
410.980480,0.343137
411.323420,0.357143
411.666320,0.348624
412.009180,0.372727
412.352000,0.297030
412.694780,0.321101
413.037520,0.275229
413.380220,0.315315
413.722880,0.375000
414.065500,0.387387
414.408080,0.318584
414.750620,0.300885
415.093120,0.305785
415.435580,0.319328
415.778000,0.371212
416.120380,0.361345
416.462720,0.365079
416.805020,0.383459
417.147280,0.373134
417.489500,0.400000
417.831680,0.349315
418.173820,0.354610
418.515920,0.363636
418.857980,0.348101
419.200000,0.346154
419.541980,0.349112
419.883920,0.359551
420.225820,0.341040
420.567680,0.363128
420.909500,0.371585
421.251280,0.348958
421.593020,0.346939
421.934720,0.353535
422.276380,0.348718
422.618000,0.357843
422.959580,0.392157
423.301120,0.356164
423.642620,0.343478
423.984080,0.348837
424.325500,0.363229
424.666880,0.383621
425.008220,0.340336
425.349520,0.334746
425.690780,0.342308
426.032000,0.329412
426.373180,0.352697
426.714320,0.335937
427.055420,0.347490
427.396480,0.344569
427.737500,0.343874
428.078480,0.355731
428.419420,0.345382
428.760320,0.352490
429.101180,0.389764
429.442000,0.344828
429.782780,0.365385
430.123520,0.372549
430.464220,0.369004
430.804880,0.379310
431.145500,0.316364
431.486080,0.382022
431.826620,0.379845
432.167120,0.363971
432.507580,0.376812
432.848000,0.345324
433.188380,0.368231
433.528720,0.396226
433.869020,0.367857
434.209280,0.354386
434.549500,0.386760
434.889680,0.377104
435.229820,0.382253
435.569920,0.373702
435.909980,0.355987
436.250000,0.383051
436.589980,0.349845
436.929920,0.380952
437.269820,0.357367
437.609680,0.378698
437.949500,0.391566
438.289280,0.393768
438.629020,0.392442
438.968720,0.386628
439.308380,0.357724
439.648000,0.386301
439.987580,0.391534
440.327120,0.373333
440.666620,0.379221
441.006080,0.381074
441.345500,0.375921
441.684880,0.366029
442.024220,0.364764
442.363520,0.369048
442.702780,0.379545
443.042000,0.370044
443.381180,0.387931
443.720320,0.406048
444.059420,0.401261
444.398480,0.359833
444.737500,0.383197
445.076480,0.375000
445.415420,0.367265
445.754320,0.382536
446.093180,0.388991
446.432000,0.374060
446.770780,0.383302
447.109520,0.386029
447.448220,0.384615
447.786880,0.407871
448.125500,0.389655
448.464080,0.371429
448.802620,0.363475
449.141120,0.384083
449.479580,0.395105
449.818000,0.399312
450.156380,0.384615
450.494720,0.385124
450.833020,0.375874
451.171280,0.386986
451.509500,0.405923
451.847680,0.392917
452.185820,0.394148
452.523920,0.405498
452.861980,0.392917
453.200000,0.397010
453.537980,0.394958
453.875920,0.406723
454.213820,0.393836
454.551680,0.403974
454.889500,0.406408
455.227280,0.386121
455.565020,0.402010
455.902720,0.396007
456.240380,0.367720
456.578000,0.405923
456.915580,0.402418
457.253120,0.404605
457.590620,0.412151
457.928080,0.393939
458.265500,0.407095
458.602880,0.391234
458.940220,0.414552
459.277520,0.393600
459.614780,0.412439
459.952000,0.403727
460.289180,0.409810
460.626320,0.400000
460.963420,0.408724
461.300480,0.406728
461.637500,0.405239
461.974480,0.422018
462.311420,0.412817
462.648320,0.405564
462.985180,0.400287
463.322000,0.401786
463.658780,0.397790
463.995520,0.407153
464.332220,0.422438
464.668880,0.408602
465.005500,0.422252
465.342080,0.408451
465.678620,0.412054
466.015120,0.415265
466.351580,0.422250
466.688000,0.426309
467.024380,0.411908
467.360720,0.411364
467.697020,0.432802
468.033280,0.416667
468.369500,0.428256
468.705680,0.416009
469.041820,0.417708
469.377920,0.424078
469.713980,0.426365
470.050000,0.422222
470.385980,0.414873
470.721920,0.417238
471.057820,0.428850
471.393680,0.410664
471.729500,0.422614
472.065280,0.433810
472.401020,0.416667
472.736720,0.427574
473.072380,0.421903
473.408000,0.417755
473.743580,0.422145
474.079120,0.416021
474.414620,0.434266
474.750080,0.430431
475.085500,0.421875
475.420880,0.421316
475.756220,0.424366
476.091520,0.445013
476.426780,0.429612
476.762000,0.423974
477.097180,0.424800
477.432320,0.424879
477.767420,0.436275
478.102480,0.421260
478.437500,0.439245
478.772480,0.416864
479.107420,0.427990
479.442320,0.434852
479.777180,0.446301
480.112000,0.437596
480.446780,0.427903
480.781520,0.432367
481.116220,0.432498
481.450880,0.429352
481.785500,0.436709
482.120080,0.440439
482.454620,0.452214
482.789120,0.440287
483.123580,0.438474
483.458000,0.424842
483.792380,0.452875
484.126720,0.431660
484.461020,0.440281
484.795280,0.445644
485.129500,0.453624
485.463680,0.441085
485.797820,0.457232
486.131920,0.440704
486.465980,0.442471
486.800000,0.454198
487.133980,0.449396
487.467920,0.439939
487.801820,0.454615
488.135680,0.457165
488.469500,0.448563
488.803280,0.447994
489.137020,0.443956
489.470720,0.460682
489.804380,0.458055
490.138000,0.461424
490.471580,0.450995
490.805120,0.441744
491.138620,0.447761
491.472080,0.455124
491.805500,0.454672
492.138880,0.451008
492.472220,0.449135
492.805520,0.459497
493.138780,0.463129
493.472000,0.449498
493.805180,0.463847
494.138320,0.464310
494.471420,0.457682
494.804480,0.446960
495.137500,0.458280
495.470480,0.460166
495.803420,0.460327
496.136320,0.468045
496.469180,0.467158
496.802000,0.465159
497.134780,0.465130
497.467520,0.471560
497.800220,0.456368
498.132880,0.469724
498.465500,0.462920
498.798080,0.468607
499.130620,0.465469
499.463120,0.469961
499.795580,0.470297
500.128000,0.468665
500.460380,0.473628
500.792720,0.475080
501.125020,0.471361
501.457280,0.472063
501.789500,0.473140
502.121680,0.483670
502.453820,0.465069
502.785920,0.469235
503.117980,0.478901
503.450000,0.479156
503.781980,0.480817
504.113920,0.465624
504.445820,0.477394
504.777680,0.470588
505.109500,0.478365
505.441280,0.477533
505.773020,0.486613
506.104720,0.471974
506.436380,0.480360
506.768000,0.483630
507.099580,0.469108
507.431120,0.484309
507.762620,0.476034
508.094080,0.483136
508.425500,0.483660
508.756880,0.481481
509.088220,0.473321
509.419520,0.476257
509.750780,0.483130
510.082000,0.473414
510.413180,0.482727
510.744320,0.489646
511.075420,0.484876
511.406480,0.481429
511.737500,0.484722
512.068480,0.491071
512.399420,0.476526
512.730320,0.474365
513.061180,0.492388
513.392000,0.480833
513.722780,0.492315
514.053520,0.492573
514.384220,0.484776
514.714880,0.482049
515.045500,0.477969
515.376080,0.489104
515.706620,0.489040
516.037120,0.490196
516.367580,0.505175
516.698000,0.482353
517.028380,0.494042
517.358720,0.496790
517.689020,0.490109
518.019280,0.495735
518.349500,0.499240
518.679680,0.501767
519.009820,0.489372
519.339920,0.490481
519.669980,0.496233
520.000000,0.497198
520.329980,0.503370
520.659920,0.494888
520.989820,0.493808
521.319680,0.502058
521.649500,0.494602
521.979280,0.509395
522.309020,0.507261
522.638720,0.495136
522.968380,0.503619
523.298000,0.507307
523.627580,0.493533
523.957120,0.502338
524.286620,0.505993
524.616080,0.508273
524.945500,0.510594
525.274880,0.507440
525.604220,0.511387
525.933520,0.514151
526.262780,0.493664
526.592000,0.518011
526.921180,0.510411
527.250320,0.502790
527.579420,0.516928
527.908480,0.511078
528.237500,0.518868
528.566480,0.504990
528.895420,0.508625
529.224320,0.511639
529.553180,0.514699
529.882000,0.515815
530.210780,0.522201
530.539520,0.513423
530.868220,0.512685
531.196880,0.516961
531.525500,0.538015
531.854080,0.516886
532.182620,0.515180
532.511120,0.503016
532.839580,0.522232
533.168000,0.512762
533.496380,0.523288
533.824720,0.518170
534.153020,0.521623
534.481280,0.521145
534.809500,0.520668
535.137680,0.516059
535.465820,0.522337
535.793920,0.527919
536.121980,0.527067
536.450000,0.528118
536.777980,0.527021
537.105920,0.524699
537.433820,0.532733
537.761680,0.533878
538.089500,0.530150
538.417280,0.527656
538.745020,0.529715
539.072720,0.537681
539.400380,0.532246
539.728000,0.533078
540.055580,0.525468
540.383120,0.533507
540.710620,0.533854
541.038080,0.533751
541.365500,0.535662
541.692880,0.538881
542.020220,0.532206
542.347520,0.544508
542.674780,0.541284
543.002000,0.531840
543.329180,0.539460
543.656320,0.533755
543.983420,0.536068
544.310480,0.531091
544.637500,0.547253
544.964480,0.532301
545.291420,0.536058
545.618320,0.540837
545.945180,0.535597
546.272000,0.538336
546.598780,0.532284
546.925520,0.539400
547.252220,0.541103
547.578880,0.531443
547.905500,0.537582
548.232080,0.539961
548.558620,0.543768
548.885120,0.539745
549.211580,0.539376
549.538000,0.541829
549.864380,0.538907
550.190720,0.544721
550.517020,0.542373
550.843280,0.546254
551.169500,0.537532
551.495680,0.541393
551.821820,0.547681
552.147920,0.548146
552.473980,0.556141
552.800000,0.540549
553.125980,0.555992
553.451920,0.553417
553.777820,0.556296
554.103680,0.546343
554.429500,0.549046
554.755280,0.546061
555.081020,0.539104
555.406720,0.543515
555.732380,0.541172
556.058000,0.565852
556.383580,0.541938
556.709120,0.551344
557.034620,0.549087
557.360080,0.552332
557.685500,0.551521
558.010880,0.550433
558.336220,0.545870
558.661520,0.559731
558.986780,0.558115
559.312000,0.550570
559.637180,0.556194
559.962320,0.553934
560.287420,0.559591
560.612480,0.552565
560.937500,0.554699
561.262480,0.554619
561.587420,0.556765
561.912320,0.558217
562.237180,0.559956
562.562000,0.557052
562.886780,0.560758
563.211520,0.553651
563.536220,0.559184
563.860880,0.559789
564.185500,0.563977
564.510080,0.563958
564.834620,0.561221
565.159120,0.557519
565.483580,0.556062
565.808000,0.556565
566.132380,0.552033
566.456720,0.560091
566.781020,0.563766
567.105280,0.557656
567.429500,0.565250
567.753680,0.572305
568.077820,0.567453
568.401920,0.570283
568.725980,0.567742
569.050000,0.571863
569.373980,0.564903
569.697920,0.556693
570.021820,0.570787
570.345680,0.562572
570.669500,0.565815
570.993280,0.563677
571.317020,0.566679
571.640720,0.574657
571.964380,0.570156
572.288000,0.568620
572.611580,0.574317
572.935120,0.572765
573.258620,0.571803
573.582080,0.565946
573.905500,0.567759
574.228880,0.577580
574.552220,0.575669
574.875520,0.569248
575.198780,0.569570
575.522000,0.572214
575.845180,0.564828
576.168320,0.571685
576.491420,0.584302
576.814480,0.583363
577.137500,0.570346
577.460480,0.573759
577.783420,0.574848
578.106320,0.584758
578.429180,0.576529
578.752000,0.577978
579.074780,0.577546
579.397520,0.581020
579.720220,0.579151
580.042880,0.581764
580.365500,0.582396
580.688080,0.584803
581.010620,0.585555
581.333120,0.587174
581.655580,0.580087
581.978000,0.584968
582.300380,0.581305
582.622720,0.591958
582.945020,0.587776
583.267280,0.583198
583.589500,0.582022
583.911680,0.588123
584.233820,0.571923
584.555920,0.583360
584.877980,0.586055
585.200000,0.577348
585.521980,0.586036
585.843920,0.589994
586.165820,0.589884
586.487680,0.587421
586.809500,0.586859
587.131280,0.582372
587.453020,0.589583
587.774720,0.591366
588.096380,0.587223
588.418000,0.589991
588.739580,0.595861
589.061120,0.587407
589.382620,0.589971
589.704080,0.587938
590.025500,0.601598
590.346880,0.593592
590.668220,0.589751
590.989520,0.584304
591.310780,0.592930
591.632000,0.597541
591.953180,0.593136
592.274320,0.591319
592.595420,0.592672
592.916480,0.590329
593.237500,0.592563
593.558480,0.591875
593.879420,0.590504
594.200320,0.595232
594.521180,0.598672
594.842000,0.602633
595.162780,0.603900
595.483520,0.597447
595.804220,0.596939
596.124880,0.599787
596.445500,0.586586
596.766080,0.603926
597.086620,0.601380
597.407120,0.592154
597.727580,0.601167
598.048000,0.590849
598.368380,0.593372
598.688720,0.603145
599.009020,0.600849
599.329280,0.597126
599.649500,0.598785
599.969680,0.599893
600.289820,0.606303
600.609920,0.604061
600.929980,0.599679
601.250000,0.593243
601.569980,0.597353
601.889920,0.589682
602.209820,0.599567
602.529680,0.614941
602.849500,0.598472
603.169280,0.599614
603.489020,0.610850
603.808720,0.598190
604.128380,0.604029
604.448000,0.597514
604.767580,0.607542
605.087120,0.596122
605.406620,0.605094
605.726080,0.607642
606.045500,0.591530
606.364880,0.602495
606.684220,0.609937
607.003520,0.604931
607.322780,0.604036
607.642000,0.597358
607.961180,0.607112
608.280320,0.597738
608.599420,0.602839
608.918480,0.606158
609.237500,0.603580
609.556480,0.604025
609.875420,0.610159
610.194320,0.604370
610.513180,0.608464
610.832000,0.606313
611.150780,0.608291
611.469520,0.604525
611.788220,0.610641
612.106880,0.600422
612.425500,0.609622
612.744080,0.609418
613.062620,0.606728
613.381120,0.605728
613.699580,0.611588
614.018000,0.604115
614.336380,0.599938
614.654720,0.604961
614.973020,0.605369
615.291280,0.607995
615.609500,0.624406
615.927680,0.605068
616.245820,0.603896
616.563920,0.609574
616.881980,0.612410
617.200000,0.604044
617.517980,0.605476
617.835920,0.602050
618.153820,0.603357
618.471680,0.600000
618.789500,0.612020
619.107280,0.608451
619.425020,0.615604
619.742720,0.611111
620.060380,0.607647
620.378000,0.612649
620.695580,0.622286
621.013120,0.608189
621.330620,0.617822
621.648080,0.605047
621.965500,0.605395
622.282880,0.608449
622.600220,0.607075
622.917520,0.609326
623.234780,0.619736
623.552000,0.618078
623.869180,0.612669
624.186320,0.614454
624.503420,0.615987
624.820480,0.614829
625.137500,0.615725
625.454480,0.613629
625.771420,0.617907
626.088320,0.615700
626.405180,0.616055
626.722000,0.615747
627.038780,0.613095
627.355520,0.613437
627.672220,0.613686
627.988880,0.603733
628.305500,0.616391
628.622080,0.622367
628.938620,0.616820
629.255120,0.619477
629.571580,0.612933
629.888000,0.615833
630.204380,0.613685
630.520720,0.619439
630.837020,0.623805
631.153280,0.616007
631.469500,0.613099
631.785680,0.619650
632.101820,0.620326
632.417920,0.611028
632.733980,0.614646
633.050000,0.621286
633.365980,0.615886
633.681920,0.618735
633.997820,0.615362
634.313680,0.619581
634.629500,0.621646
634.945280,0.617889
635.261020,0.628999
635.576720,0.622431
635.892380,0.625617
636.208000,0.625508
636.523580,0.626425
636.839120,0.618992
637.154620,0.625797
637.470080,0.625538
637.785500,0.628077
638.100880,0.623516
638.416220,0.628991
638.731520,0.619484
639.046780,0.623653
639.362000,0.616686
639.677180,0.626214
639.992320,0.626445
640.307420,0.624052
640.622480,0.619994
640.937500,0.621359
641.252480,0.625803
641.567420,0.628303
641.882320,0.626114
642.197180,0.631387
642.512000,0.633081
642.826780,0.619972
643.141520,0.624896
643.456220,0.619812
643.770880,0.637922
644.085500,0.626048
644.400080,0.632022
644.714620,0.626533
645.029120,0.632563
645.343580,0.633022
645.658000,0.628920
645.972380,0.637435
646.286720,0.626056
646.601020,0.624689
646.915280,0.622978
647.229500,0.626923
647.543680,0.625794
647.857820,0.622351
648.171920,0.618557
648.485980,0.622088
648.800000,0.625517
649.113980,0.625831
649.427920,0.628017
649.741820,0.622699
650.055680,0.625617
650.369500,0.632848
650.683280,0.622364
650.997020,0.629538
651.310720,0.626307
651.624380,0.624725
651.938000,0.628532
652.251580,0.624826
652.565120,0.626328
652.878620,0.625000
653.192080,0.628371
653.505500,0.620757
653.818880,0.627239
654.132220,0.625178
654.445520,0.629041
654.758780,0.624363
655.072000,0.616619
655.385180,0.622254
655.698320,0.621606
656.011420,0.623101
656.324480,0.627805
656.637500,0.627752
656.950480,0.625661
657.263420,0.632575
657.576320,0.627038
657.889180,0.629903
658.202000,0.631643
658.514780,0.631140
658.827520,0.624550
659.140220,0.628409
659.452880,0.624887
659.765500,0.628537
660.078080,0.622028
660.390620,0.621448
660.703120,0.625420
661.015580,0.629448
661.328000,0.631297
661.640380,0.629699
661.952720,0.635005
662.265020,0.629175
662.577280,0.629453
662.889500,0.627878
663.201680,0.622527
663.513820,0.627855
663.825920,0.628882
664.137980,0.637039
664.450000,0.619885
664.761980,0.619640
665.073920,0.625446
665.385820,0.629581
665.697680,0.629421
666.009500,0.638178
666.321280,0.623923
666.633020,0.626995
666.944720,0.630940
667.256380,0.628197
667.568000,0.623641
667.879580,0.623810
668.191120,0.634272
668.502620,0.628552
668.814080,0.636842
669.125500,0.626411
669.436880,0.631397
669.748220,0.627553
670.059520,0.623950
670.370780,0.623869
670.682000,0.639646
670.993180,0.635659
671.304320,0.627286
671.615420,0.627486
671.926480,0.624911
672.237500,0.627724
672.548480,0.624556
672.859420,0.626876
673.170320,0.624955
673.481180,0.629978
673.792000,0.626037
674.102780,0.625135
674.413520,0.629603
674.724220,0.626497
675.034880,0.634763
675.345500,0.637126
675.656080,0.623230
675.966620,0.632957
676.277120,0.634566
676.587580,0.637703
676.898000,0.637551
677.208380,0.630684
677.518720,0.620715
677.829020,0.628973
678.139280,0.640104
678.449500,0.623468
678.759680,0.633945
679.069820,0.626766
679.379920,0.636364
679.689980,0.626068
680.000000,0.631402
680.309980,0.633630
680.619920,0.627035
680.929820,0.628219
681.239680,0.621861
681.549500,0.624444
681.859280,0.624720
682.169020,0.626632
682.478720,0.632760
682.788380,0.631598
683.098000,0.630142
683.407580,0.631520
683.717120,0.628003
684.026620,0.632154
684.336080,0.621826
684.645500,0.620651
684.954880,0.625614
685.264220,0.622877
685.573520,0.641797
685.882780,0.641350
686.192000,0.629421
686.501180,0.632993
686.810320,0.636434
687.119420,0.629038
687.428480,0.630080
687.737500,0.628933
688.046480,0.626917
688.355420,0.628442
688.664320,0.627391
688.973180,0.639740
689.282000,0.629630
689.590780,0.630368
689.899520,0.622484
690.208220,0.638761
690.516880,0.632302
690.825500,0.637736
691.134080,0.628322
691.442620,0.626143
691.751120,0.629503
692.059580,0.633932
692.368000,0.621356
692.676380,0.632061
692.984720,0.625573
693.293020,0.630319
693.601280,0.636398
693.909500,0.625804
694.217680,0.635948
694.525820,0.628713
694.833920,0.629149
695.141980,0.630544
695.450000,0.619084
695.757980,0.628724
696.065920,0.634175
696.373820,0.628176
696.681680,0.626007
696.989500,0.627943
697.297280,0.641774
697.605020,0.645635
697.912720,0.624135
698.220380,0.628493
698.528000,0.635285
698.835580,0.627420
699.143120,0.623928
699.450620,0.636038
699.758080,0.626667
700.065500,0.631684
700.372880,0.636000
700.680220,0.627842
700.987520,0.630556
701.294780,0.637064
701.602000,0.628368
701.909180,0.638315
702.216320,0.624560
702.523420,0.634175
702.830480,0.632079
703.137500,0.624708
703.444480,0.629586
703.751420,0.637870
704.058320,0.631579
704.365180,0.626577
704.672000,0.632079
704.978780,0.631291
705.285520,0.621283
705.592220,0.627843
705.898880,0.639480
706.205500,0.629108
706.512080,0.633886
706.818620,0.633901
707.125120,0.626538
707.431580,0.632278
707.738000,0.635547
708.044380,0.620610
708.350720,0.630493
708.657020,0.630324
708.963280,0.635870
709.269500,0.625440
709.575680,0.633006
709.881820,0.630503
710.187920,0.630739
710.493980,0.633825
710.800000,0.631960
711.105980,0.619352
711.411920,0.632243
711.717820,0.628850
712.023680,0.619899
712.329500,0.641956
712.635280,0.633333
712.941020,0.630073
713.246720,0.633597
713.552380,0.634223
713.858000,0.622783
714.163580,0.629834
714.469120,0.623290
714.774620,0.634820
715.080080,0.622693
715.385500,0.635092
715.690880,0.628402
715.996220,0.628368
716.301520,0.624506
716.606780,0.626965
716.912000,0.630048
717.217180,0.633280
717.522320,0.633400
717.827420,0.640765
718.132480,0.632678
718.437500,0.635548
718.742480,0.618952
719.047420,0.624191
719.352320,0.638024
719.657180,0.636549
719.962000,0.622002
720.266780,0.635231
720.571520,0.627175
720.876220,0.625614
721.180880,0.628763
721.485500,0.629336
721.790080,0.621656
722.094620,0.638079
722.399120,0.627747
722.703580,0.632233
723.008000,0.626994
723.312380,0.621610
723.616720,0.616235
723.921020,0.625379
724.225280,0.624346
724.529500,0.624781
724.833680,0.631673
725.137820,0.628634
725.441920,0.629514
725.745980,0.627740
726.050000,0.629680
726.353980,0.617846
726.657920,0.621233
726.961820,0.632877
727.265680,0.628756
727.569500,0.622486
727.873280,0.619861
728.177020,0.625058
728.480720,0.631481
728.784380,0.633631
729.088000,0.622704
729.391580,0.630981
729.695120,0.629559
729.998620,0.625717
730.302080,0.619894
730.605500,0.623484
730.908880,0.634493
731.212220,0.626347
731.515520,0.628474
731.818780,0.621845
732.122000,0.621555
732.425180,0.612124
732.728320,0.620724
733.031420,0.608521
733.334480,0.617347
733.637500,0.621976
733.940480,0.622313
734.243420,0.624873
734.546320,0.624481
734.849180,0.609504
735.152000,0.612033
735.454780,0.609504
735.757520,0.621707
736.060220,0.630332
736.362880,0.621324
736.665500,0.621932
736.968080,0.623858
737.270620,0.630376
737.573120,0.627729
737.875580,0.625069
738.178000,0.627654
738.480380,0.616216
738.782720,0.618321
739.085020,0.618943
739.387280,0.610310
739.689500,0.629105
739.991680,0.626053
740.293820,0.624102
740.595920,0.621035
740.897980,0.619424
741.200000,0.613573
741.501980,0.625788
741.803920,0.615991
742.105820,0.619853
742.407680,0.630169
742.709500,0.613068
743.011280,0.628957
743.313020,0.619130
743.614720,0.620429
743.916380,0.625000
744.218000,0.621718
744.519580,0.631039
744.821120,0.619760
745.122620,0.615339
745.424080,0.611178
745.725500,0.625830
746.026880,0.625000
746.328220,0.616523
746.629520,0.617700
746.930780,0.615196
747.232000,0.613734
747.533180,0.621110
747.834320,0.620816
748.135420,0.620883
748.436480,0.616344
748.737500,0.608400
749.038480,0.610263
749.339420,0.624144
749.640320,0.620365
749.941180,0.625234
750.242000,0.609296
750.542780,0.606079
750.843520,0.618834
751.144220,0.623718
751.444880,0.614458
751.745500,0.620779
752.046080,0.626684
752.346620,0.604381
752.647120,0.617244
752.947580,0.601552
753.248000,0.615732
753.548380,0.613533
753.848720,0.614939
754.149020,0.604771
754.449280,0.609324
754.749500,0.625747
755.049680,0.612000
755.349820,0.621748
755.649920,0.617978
755.949980,0.614466
756.250000,0.614070
756.549980,0.604620
756.849920,0.624065
757.149820,0.593480
757.449680,0.615182
757.749500,0.625767
758.049280,0.610922
758.349020,0.601530
758.648720,0.622498
758.948380,0.613746
759.248000,0.619272
759.547580,0.617350
759.847120,0.607857
760.146620,0.617727
760.446080,0.614247
760.745500,0.620280
761.044880,0.626420
761.344220,0.620813
761.643520,0.605226
761.942780,0.612316
762.242000,0.618812
762.541180,0.612676
762.840320,0.604635
763.139420,0.595640
763.438480,0.599453
763.737500,0.618884
764.036480,0.612858
764.335420,0.608327
764.634320,0.606376
764.933180,0.600685
765.232000,0.609299
765.530780,0.596491
765.829520,0.618182
766.128220,0.612387
766.426880,0.610519
766.725500,0.616861
767.024080,0.601509
767.322620,0.603043
767.621120,0.598238
767.919580,0.603413
768.218000,0.610807
768.516380,0.605815
768.814720,0.603567
769.113020,0.608546
769.411280,0.631906
769.709500,0.617050
770.007680,0.608725
770.305820,0.618661
770.603920,0.599730
770.901980,0.613388
771.200000,0.614810
771.497980,0.601206
771.795920,0.606689
772.093820,0.602273
772.391680,0.600527
772.689500,0.596622
772.987280,0.612795
773.285020,0.613807
773.582720,0.612162
773.880380,0.609472
774.178000,0.616224
774.475580,0.613530
774.773120,0.603079
775.070620,0.613928
775.368080,0.607882
775.665500,0.598388
775.962880,0.613742
776.260220,0.613728
776.557520,0.611074
776.854780,0.609195
777.152000,0.591512
777.449180,0.606878
777.746320,0.605511
778.043420,0.600955
778.340480,0.612314
778.637500,0.609872
778.934480,0.599866
779.231420,0.603799
779.528320,0.589178
779.825180,0.598155
780.122000,0.600930
780.418780,0.616963
780.715520,0.612341
781.012220,0.617123
781.308880,0.607843
781.605500,0.589041
781.902080,0.618070
782.198620,0.602187
782.495120,0.605624
782.791580,0.602476
783.088000,0.605245
783.384380,0.606602
783.680720,0.603967
783.977020,0.600138
784.273280,0.615385
784.569500,0.612159
784.865680,0.608484
785.161820,0.607639
785.457920,0.604297
785.753980,0.603629
786.050000,0.596685
786.345980,0.600694
786.641920,0.605135
786.937820,0.615385
787.233680,0.605428
787.529500,0.593620
787.825280,0.597734
788.121020,0.597734
788.416720,0.609739
788.712380,0.605783
789.008000,0.612606
789.303580,0.587986
789.599120,0.625455
789.894620,0.595668
790.190080,0.611313
790.485500,0.602592
790.780880,0.602151
791.076220,0.604618
791.371520,0.610748
791.666780,0.594909
791.962000,0.602498
792.257180,0.598829
792.552320,0.605511
792.847420,0.605531
793.142480,0.609524
793.437500,0.591172
793.732480,0.589612
794.027420,0.599407
794.322320,0.607755
794.617180,0.606984
794.912000,0.595097
795.206780,0.594333
795.501520,0.606084
795.796220,0.587407
796.090880,0.611907
796.385500,0.592954
796.680080,0.605834
796.974620,0.607036
797.269120,0.601060
797.563580,0.600763
797.858000,0.608200
798.152380,0.595514
798.446720,0.599231
798.741020,0.605547
799.035280,0.603261
799.329500,0.596613
799.623680,0.594574
