399.985280,0.229730
400.329500,0.256757
400.673680,0.341772
401.017820,0.338235
401.361920,0.287879
401.705980,0.280488
402.050000,0.337662
402.393980,0.364706
402.737920,0.382022
403.081820,0.360825
403.425680,0.337209
403.769500,0.239583
404.113280,0.344828
404.457020,0.314607
404.800720,0.326087
405.144380,0.343434
405.488000,0.344086
405.831580,0.340206
406.175120,0.276596
406.518620,0.320000
406.862080,0.350515
407.205500,0.333333
407.548880,0.336735
407.892220,0.372549
408.235520,0.404255
408.578780,0.352381
408.922000,0.326923
409.265180,0.353535
409.608320,0.292929
409.951420,0.381443
410.294480,0.392157
410.637500,0.347826
410.980480,0.343137
411.323420,0.336735
411.666320,0.449541
412.009180,0.372727
412.352000,0.376238
412.694780,0.357798
413.037520,0.376147
413.380220,0.369369
413.722880,0.392857
414.065500,0.378378
414.408080,0.362832
414.750620,0.380531
415.093120,0.330579
415.435580,0.319328
415.778000,0.340909
416.120380,0.361345
416.462720,0.380952
416.805020,0.383459
417.147280,0.395522
417.489500,0.414286
417.831680,0.363014
418.173820,0.354610
418.515920,0.356643
418.857980,0.335443
419.200000,0.378205
419.541980,0.396450
419.883920,0.353933
420.225820,0.404624
420.567680,0.357542
420.909500,0.344262
421.251280,0.385417
421.593020,0.372449
421.934720,0.378788
422.276380,0.394872
422.618000,0.397059
422.959580,0.387255
423.301120,0.388128
423.642620,0.352174
423.984080,0.362791
424.325500,0.363229
424.666880,0.366379
425.008220,0.352941
425.349520,0.372881
425.690780,0.353846
426.032000,0.349020
426.373180,0.385892
426.714320,0.363281
427.055420,0.343629
427.396480,0.348315
427.737500,0.371542
428.078480,0.371542
428.419420,0.381526
428.760320,0.363985
429.101180,0.377953
429.442000,0.379310
429.782780,0.361538
430.123520,0.392157
430.464220,0.365314
430.804880,0.383142
431.145500,0.374545
431.486080,0.397004
431.826620,0.383721
432.167120,0.375000
432.507580,0.373188
432.848000,0.366906
433.188380,0.379061
433.528720,0.381132
433.869020,0.385714
434.209280,0.396491
434.549500,0.425087
434.889680,0.367003
435.229820,0.378840
435.569920,0.391003
435.909980,0.394822
436.250000,0.389831
436.589980,0.383901
436.929920,0.403175
437.269820,0.385580
437.609680,0.381657
437.949500,0.382530
438.289280,0.405099
438.629020,0.392442
438.968720,0.375000
439.308380,0.382114
439.648000,0.389041
439.987580,0.367725
440.327120,0.400000
440.666620,0.381818
441.006080,0.401535
441.345500,0.385749
441.684880,0.401914
442.024220,0.377171
442.363520,0.397619
442.702780,0.395455
443.042000,0.385463
443.381180,0.381466
443.720320,0.427646
444.059420,0.390756
444.398480,0.416318
444.737500,0.397541
445.076480,0.414683
445.415420,0.385230
445.754320,0.409563
446.093180,0.394495
446.432000,0.417293
446.770780,0.411765
447.109520,0.417279
447.448220,0.397138
447.786880,0.411449
448.125500,0.408621
448.464080,0.410714
448.802620,0.398936
449.141120,0.404844
449.479580,0.405594
449.818000,0.397590
450.156380,0.406355
450.494720,0.393388
450.833020,0.403846
451.171280,0.397260
451.509500,0.412892
451.847680,0.408094
452.185820,0.383821
452.523920,0.400344
452.861980,0.409781
453.200000,0.400332
453.537980,0.400000
453.875920,0.406723
454.213820,0.386986
454.551680,0.410596
454.889500,0.399663
455.227280,0.405694
455.565020,0.403685
455.902720,0.404326
456.240380,0.405990
456.578000,0.411150
456.915580,0.414508
457.253120,0.409539
457.590620,0.395731
457.928080,0.429293
458.265500,0.432432
458.602880,0.404221
458.940220,0.421320
459.277520,0.416000
459.614780,0.441899
459.952000,0.409938
460.289180,0.417722
460.626320,0.415748
460.963420,0.426494
461.300480,0.437309
461.637500,0.422188
461.974480,0.437309
462.311420,0.420268
462.648320,0.405564
462.985180,0.416069
463.322000,0.428571
463.658780,0.406077
463.995520,0.416781
464.332220,0.425208
464.668880,0.446237
465.005500,0.424933
465.342080,0.430218
465.678620,0.428044
466.015120,0.435964
466.351580,0.431100
466.688000,0.437272
467.024380,0.415553
467.360720,0.414773
467.697020,0.429385
468.033280,0.435556
468.369500,0.433775
468.705680,0.440812
469.041820,0.415625
469.377920,0.419740
469.713980,0.423275
470.050000,0.429952
470.385980,0.435421
470.721920,0.440744
471.057820,0.438596
471.393680,0.432180
471.729500,0.442076
472.065280,0.434705
472.401020,0.441489
472.736720,0.443281
473.072380,0.432675
473.408000,0.434291
473.743580,0.442907
474.079120,0.442722
474.414620,0.432570
474.750080,0.433686
475.085500,0.438322
475.420880,0.435470
475.756220,0.439084
476.091520,0.446718
476.426780,0.436893
476.762000,0.428801
477.097180,0.444800
477.432320,0.446688
477.767420,0.438725
478.102480,0.433071
478.437500,0.443350
478.772480,0.436564
479.107420,0.441823
479.442320,0.445244
479.777180,0.444710
480.112000,0.436826
480.446780,0.442712
480.781520,0.452496
481.116220,0.448666
481.450880,0.437939
481.785500,0.440665
482.120080,0.454545
482.454620,0.445998
482.789120,0.455414
483.123580,0.446262
483.458000,0.448576
483.792380,0.445687
484.126720,0.454826
484.461020,0.455113
484.795280,0.449499
485.129500,0.468433
485.463680,0.454264
485.797820,0.465008
486.131920,0.453711
486.465980,0.465637
486.800000,0.466412
487.133980,0.444864
487.467920,0.461362
487.801820,0.475973
488.135680,0.457923
488.469500,0.455371
488.803280,0.463596
489.137020,0.460073
489.470720,0.456231
489.804380,0.466964
490.138000,0.473294
490.471580,0.471629
490.805120,0.458184
491.138620,0.457711
491.472080,0.470671
491.805500,0.466527
492.138880,0.468381
492.472220,0.476817
492.805520,0.485335
493.138780,0.478980
493.472000,0.456856
493.805180,0.475443
494.138320,0.468979
494.471420,0.461589
494.804480,0.465071
495.137500,0.469191
495.470480,0.479286
495.803420,0.476071
496.136320,0.486216
496.469180,0.472683
496.802000,0.463936
497.134780,0.477865
497.467520,0.481346
497.800220,0.479953
498.132880,0.469136
498.465500,0.480881
498.798080,0.480023
499.130620,0.484559
499.463120,0.482875
499.795580,0.470297
500.128000,0.479564
500.460380,0.488159
500.792720,0.469247
501.125020,0.477667
501.457280,0.484073
501.789500,0.492252
502.121680,0.484707
502.453820,0.486996
502.785920,0.477739
503.117980,0.487242
503.450000,0.492717
503.781980,0.484803
504.113920,0.478900
504.445820,0.481283
504.777680,0.479529
505.109500,0.483654
505.441280,0.484704
505.773020,0.486144
506.104720,0.489873
506.436380,0.487459
506.768000,0.500468
507.099580,0.483295
507.431120,0.482436
507.762620,0.489192
508.094080,0.488149
508.425500,0.496732
508.756880,0.494742
509.088220,0.487580
509.419520,0.508380
509.750780,0.496720
510.082000,0.490672
510.413180,0.498848
510.744320,0.493787
511.075420,0.500458
511.406480,0.496944
511.737500,0.492130
512.068480,0.496711
512.399420,0.490610
512.730320,0.496074
513.061180,0.500951
513.392000,0.496451
513.722780,0.499520
514.053520,0.496885
514.384220,0.492864
514.714880,0.504069
515.045500,0.501437
515.376080,0.499758
515.706620,0.505602
516.037120,0.504902
516.367580,0.503696
516.698000,0.496569
517.028380,0.498510
517.358720,0.504691
517.689020,0.513353
518.019280,0.503261
518.349500,0.512418
518.679680,0.507824
519.009820,0.506579
519.339920,0.510020
519.669980,0.506278
520.000000,0.509934
520.329980,0.505443
520.659920,0.507157
520.989820,0.504644
521.319680,0.514403
521.649500,0.500771
521.979280,0.514092
522.309020,0.507261
522.638720,0.508449
522.968380,0.523785
523.298000,0.512004
523.627580,0.510605
523.957120,0.502857
524.286620,0.512767
524.616080,0.519131
524.945500,0.508527
525.274880,0.521293
525.604220,0.517598
525.933520,0.511006
526.262780,0.508870
526.592000,0.519533
526.921180,0.513459
527.250320,0.529173
527.579420,0.522991
527.908480,0.518464
528.237500,0.517875
528.566480,0.517964
528.895420,0.519961
529.224320,0.527984
529.553180,0.520964
529.882000,0.526034
530.210780,0.522201
530.539520,0.526846
530.868220,0.519866
531.196880,0.514095
531.525500,0.529782
531.854080,0.520638
532.182620,0.515180
532.511120,0.527146
532.839580,0.529492
533.168000,0.524613
533.496380,0.526941
533.824720,0.531629
534.153020,0.526527
534.481280,0.529956
534.809500,0.538698
535.137680,0.530816
535.465820,0.523625
535.793920,0.526650
536.121980,0.530843
536.450000,0.538689
536.777980,0.544198
537.105920,0.532586
537.433820,0.526187
537.761680,0.541633
538.089500,0.529340
538.417280,0.536411
538.745020,0.539620
539.072720,0.531824
539.400380,0.543901
539.728000,0.533461
540.055580,0.528464
540.383120,0.541698
540.710620,0.533482
541.038080,0.536333
541.365500,0.542279
541.692880,0.535247
542.020220,0.544440
542.347520,0.543073
542.674780,0.534227
543.002000,0.544437
543.329180,0.546826
543.656320,0.556962
543.983420,0.544957
544.310480,0.551138
544.637500,0.549301
544.964480,0.541386
545.291420,0.548355
545.618320,0.542165
545.945180,0.543177
546.272000,0.537680
546.598780,0.542445
546.925520,0.548302
547.252220,0.551007
547.578880,0.545780
547.905500,0.547386
548.232080,0.551332
548.558620,0.548975
548.885120,0.552502
549.211580,0.551270
549.538000,0.551556
549.864380,0.543408
550.190720,0.549241
550.517020,0.550847
550.843280,0.549186
551.169500,0.541985
551.495680,0.557162
551.821820,0.554866
552.147920,0.549122
552.473980,0.550214
552.800000,0.554284
553.125980,0.558939
553.451920,0.555408
553.777820,0.558961
554.103680,0.555106
554.429500,0.558420
554.755280,0.552737
555.081020,0.548463
555.406720,0.559092
555.732380,0.546594
556.058000,0.555329
556.383580,0.549812
556.709120,0.560303
557.034620,0.554943
557.360080,0.557168
557.685500,0.556708
558.010880,0.558752
558.336220,0.550088
558.661520,0.566111
558.986780,0.558115
559.312000,0.561610
559.637180,0.563016
559.962320,0.558206
560.287420,0.558533
560.612480,0.561895
560.937500,0.566814
561.262480,0.553886
561.587420,0.554588
561.912320,0.562638
562.237180,0.557735
562.562000,0.564534
562.886780,0.562988
563.211520,0.557377
563.536220,0.566605
563.860880,0.574123
564.185500,0.565854
564.510080,0.567720
564.834620,0.562337
565.159120,0.560150
565.483580,0.558723
565.808000,0.559970
566.132380,0.559866
566.456720,0.563114
566.781020,0.568267
567.105280,0.563705
567.429500,0.566388
567.753680,0.570004
568.077820,0.567453
568.401920,0.574866
568.725980,0.576471
569.050000,0.575285
569.373980,0.568329
569.697920,0.563519
570.021820,0.570787
570.345680,0.569843
570.669500,0.568485
570.993280,0.566630
571.317020,0.572159
571.640720,0.570952
571.964380,0.570156
572.288000,0.576780
572.611580,0.580681
572.935120,0.576132
573.258620,0.575916
573.582080,0.572280
573.905500,0.577439
574.228880,0.580549
574.552220,0.580066
574.875520,0.576322
575.198780,0.577159
575.522000,0.575880
575.845180,0.575573
576.168320,0.568092
576.491420,0.579942
576.814480,0.583725
577.137500,0.574675
577.460480,0.580645
577.783420,0.576635
578.106320,0.578348
578.429180,0.587133
578.752000,0.577284
579.074780,0.580243
579.397520,0.585216
579.720220,0.581725
580.042880,0.583746
580.365500,0.586036
580.688080,0.585821
581.010620,0.585893
581.333120,0.583500
581.655580,0.587080
581.978000,0.598271
582.300380,0.579033
582.622720,0.585695
582.945020,0.589402
583.267280,0.585151
583.589500,0.589085
583.911680,0.582725
584.233820,0.588291
584.555920,0.593445
584.877980,0.592651
585.200000,0.573358
585.521980,0.590979
585.843920,0.587248
586.165820,0.591712
586.487680,0.590430
586.809500,0.587159
587.131280,0.586809
587.453020,0.596726
587.774720,0.594027
588.096380,0.590432
588.418000,0.597600
588.739580,0.594424
589.061120,0.597757
589.382620,0.589112
589.704080,0.588499
590.025500,0.594463
590.346880,0.587971
590.668220,0.589471
590.989520,0.589850
591.310780,0.595416
591.632000,0.587705
591.953180,0.597288
592.274320,0.588589
592.595420,0.593211
592.916480,0.594404
593.237500,0.593910
593.558480,0.591606
593.879420,0.590235
594.200320,0.598982
594.521180,0.596282
594.842000,0.603708
595.162780,0.597756
595.483520,0.602765
595.804220,0.599624
596.124880,0.599787
596.445500,0.588420
596.766080,0.610110
597.086620,0.603769
597.407120,0.598999
597.727580,0.604084
598.048000,0.599048
598.368380,0.591268
598.688720,0.600786
599.009020,0.606423
599.329280,0.606440
599.649500,0.595087
599.969680,0.598558
600.289820,0.602564
600.609920,0.601656
600.929980,0.598076
601.250000,0.598378
601.569980,0.598434
601.889920,0.592088
602.209820,0.599838
602.529680,0.602582
602.849500,0.599836
603.169280,0.604574
603.489020,0.605314
603.808720,0.605869
604.128380,0.600993
604.448000,0.598895
604.767580,0.605866
605.087120,0.599723
605.406620,0.602015
605.726080,0.606501
606.045500,0.594037
606.364880,0.603062
606.684220,0.605083
607.003520,0.598624
607.322780,0.601478
607.642000,0.601666
607.961180,0.602486
608.280320,0.601798
608.599420,0.599652
608.918480,0.606745
609.237500,0.605340
609.556480,0.610832
609.875420,0.605139
610.194320,0.599941
610.513180,0.603729
610.832000,0.601549
611.150780,0.612496
611.469520,0.615988
611.788220,0.614268
612.106880,0.605549
612.425500,0.607491
612.744080,0.614651
613.062620,0.605810
613.381120,0.605424
613.699580,0.603617
614.018000,0.609337
614.336380,0.607650
614.654720,0.605581
614.973020,0.603209
615.291280,0.609235
615.609500,0.617750
615.927680,0.601669
616.245820,0.600804
616.563920,0.609574
616.881980,0.607733
617.200000,0.606532
617.517980,0.598320
617.835920,0.598944
618.153820,0.606466
618.471680,0.606202
618.789500,0.606986
619.107280,0.611894
619.425020,0.613701
619.742720,0.612053
620.060380,0.607020
620.378000,0.607930
620.695580,0.609834
621.013120,0.604094
621.330620,0.615940
621.648080,0.600631
621.965500,0.607277
622.282880,0.604981
622.600220,0.605496
622.917520,0.612161
623.234780,0.614915
623.552000,0.619669
623.869180,0.602584
624.186320,0.613181
624.503420,0.618809
624.820480,0.610430
625.137500,0.613514
625.454480,0.615192
625.771420,0.616330
626.088320,0.613808
626.405180,0.614499
626.722000,0.620765
627.038780,0.611842
627.355520,0.611875
627.672220,0.615552
627.988880,0.612442
628.305500,0.612029
628.622080,0.618030
628.938620,0.618043
629.255120,0.623211
629.571580,0.607723
629.888000,0.609696
630.204380,0.614606
630.520720,0.617307
630.837020,0.614863
631.153280,0.612710
631.469500,0.620982
631.785680,0.616938
632.101820,0.622135
632.417920,0.610432
632.733980,0.613745
633.050000,0.627350
633.365980,0.615293
633.681920,0.615155
633.997820,0.623730
634.313680,0.619876
634.629500,0.614568
634.945280,0.617889
635.261020,0.624009
635.576720,0.621844
635.892380,0.619227
636.208000,0.616212
636.523580,0.620286
636.839120,0.619861
637.154620,0.610725
637.470080,0.612339
637.785500,0.622802
638.100880,0.620620
638.416220,0.625539
638.731520,0.613754
639.046780,0.622488
639.362000,0.613245
639.677180,0.622501
639.992320,0.623344
640.307420,0.617870
640.622480,0.616354
640.937500,0.619972
641.252480,0.622452
641.567420,0.627735
641.882320,0.614143
642.197180,0.625211
642.512000,0.627764
642.826780,0.623024
643.141520,0.624062
643.456220,0.625623
643.770880,0.624378
644.085500,0.628004
644.400080,0.632584
644.714620,0.632386
645.029120,0.623487
645.343580,0.627811
645.658000,0.629475
645.972380,0.617978
646.286720,0.623876
646.601020,0.625519
646.915280,0.623526
647.229500,0.628571
647.543680,0.625242
647.857820,0.620149
648.171920,0.620998
648.485980,0.626473
648.800000,0.620832
649.113980,0.621674
649.427920,0.632178
649.741820,0.626271
650.055680,0.629457
650.369500,0.624159
650.683280,0.624306
650.997020,0.623487
651.310720,0.619703
651.624380,0.616484
651.938000,0.629640
652.251580,0.629836
652.565120,0.624651
652.878620,0.631475
653.192080,0.628090
653.505500,0.623843
653.818880,0.630935
654.132220,0.624324
654.445520,0.624504
654.758780,0.626629
655.072000,0.616332
655.385180,0.620257
655.698320,0.616462
656.011420,0.622241
656.324480,0.620227
656.637500,0.619061
656.950480,0.628890
657.263420,0.625480
657.576320,0.620219
657.889180,0.617517
658.202000,0.628019
658.514780,0.619530
658.827520,0.630552
659.140220,0.619419
659.452880,0.629417
659.765500,0.625828
660.078080,0.619922
660.390620,0.617171
660.703120,0.632753
661.015580,0.630675
661.328000,0.629093
661.640380,0.631252
661.952720,0.631268
662.265020,0.626654
662.577280,0.621501
662.889500,0.625039
663.201680,0.625080
663.513820,0.624317
663.825920,0.621198
664.137980,0.630575
664.450000,0.622123
664.761980,0.619967
665.073920,0.620578
665.385820,0.618128
665.697680,0.622810
666.009500,0.627203
666.321280,0.621272
666.633020,0.628657
666.944720,0.627907
667.256380,0.623822
667.568000,0.626359
667.879580,0.631973
668.191120,0.635989
668.502620,0.622390
668.814080,0.632632
669.125500,0.626411
669.436880,0.623098
669.748220,0.617515
670.059520,0.628151
670.370780,0.623869
670.682000,0.621947
670.993180,0.632488
671.304320,0.623418
671.615420,0.621094
671.926480,0.624556
672.237500,0.615934
672.548480,0.622782
672.859420,0.626876
673.170320,0.623504
673.481180,0.624547
673.792000,0.620627
674.102780,0.615081
674.413520,0.618301
674.724220,0.625045
675.034880,0.630363
675.345500,0.633115
675.656080,0.625408
675.966620,0.625682
676.277120,0.627243
676.587580,0.624080
676.898000,0.631579
677.208380,0.620333
677.518720,0.617433
677.829020,0.627494
678.139280,0.625278
678.449500,0.626439
678.759680,0.629449
679.069820,0.619703
679.379920,0.629574
679.689980,0.620498
680.000000,0.618318
680.309980,0.617669
680.619920,0.631958
680.929820,0.621874
681.239680,0.621492
681.549500,0.621111
681.859280,0.629574
682.169020,0.619918
682.478720,0.633134
682.788380,0.624585
683.098000,0.622663
683.407580,0.625141
683.717120,0.630631
684.026620,0.620482
684.336080,0.624858
684.645500,0.619529
684.954880,0.626747
685.264220,0.616082
685.573520,0.632661
685.882780,0.638282
686.192000,0.618134
686.501180,0.622399
686.810320,0.634896
687.119420,0.624857
687.428480,0.626662
687.737500,0.623177
688.046480,0.631518
688.355420,0.626556
688.664320,0.624331
688.973180,0.622894
689.282000,0.631173
689.590780,0.631902
689.899520,0.613749
690.208220,0.633792
690.516880,0.630011
690.825500,0.621132
691.134080,0.618071
691.442620,0.624619
691.751120,0.620402
692.059580,0.628964
692.368000,0.617190
692.676380,0.632061
692.984720,0.616794
693.293020,0.626140
693.601280,0.619992
693.909500,0.625426
694.217680,0.622239
694.525820,0.632902
694.833920,0.618848
695.141980,0.624373
695.450000,0.622137
695.757980,0.625668
696.065920,0.620583
696.373820,0.622787
696.681680,0.622555
696.989500,0.625241
697.297280,0.625438
697.605020,0.633333
697.912720,0.616449
698.220380,0.625344
698.528000,0.627769
698.835580,0.619123
699.143120,0.617303
699.450620,0.635640
699.758080,0.612941
700.065500,0.620112
700.372880,0.630400
700.680220,0.622657
700.987520,0.618651
701.294780,0.633820
701.602000,0.620048
701.909180,0.634738
702.216320,0.615565
702.523420,0.629045
702.830480,0.629703
703.137500,0.606391
703.444480,0.618935
703.751420,0.625247
704.058320,0.620894
704.365180,0.629338
704.672000,0.620594
704.978780,0.626609
705.285520,0.618153
705.592220,0.617647
705.898880,0.620173
706.205500,0.622457
706.512080,0.624408
706.818620,0.628096
707.125120,0.614615
707.431580,0.620946
707.738000,0.623047
708.044380,0.624083
708.350720,0.624761
708.657020,0.621336
708.963280,0.620730
709.269500,0.612916
709.575680,0.629470
709.881820,0.617138
710.187920,0.632685
710.493980,0.623739
710.800000,0.620137
711.105980,0.616340
711.411920,0.623177
711.717820,0.624172
712.023680,0.616401
712.329500,0.625000
712.635280,0.630620
712.941020,0.626595
713.246720,0.630435
713.552380,0.622449
713.858000,0.627119
714.163580,0.614838
714.469120,0.615084
714.774620,0.624556
715.080080,0.624264
715.385500,0.623102
715.690880,0.625641
715.996220,0.626387
716.301520,0.629249
716.606780,0.621855
716.912000,0.625606
717.217180,0.626496
717.522320,0.619483
717.827420,0.627339
718.132480,0.624247
718.437500,0.627803
718.742480,0.621774
719.047420,0.621359
719.352320,0.625571
719.657180,0.626329
719.962000,0.625724
720.266780,0.621936
720.571520,0.616404
720.876220,0.619885
721.180880,0.614130
721.485500,0.621396
721.790080,0.620807
722.094620,0.630360
722.399120,0.626023
722.703580,0.613802
723.008000,0.620095
723.312380,0.620749
723.616720,0.615385
723.921020,0.621914
724.225280,0.616056
724.529500,0.614273
724.833680,0.627669
725.137820,0.623348
725.441920,0.613018
725.745980,0.623714
726.050000,0.624267
726.353980,0.607481
726.657920,0.605488
726.961820,0.631507
727.265680,0.618123
727.569500,0.614717
727.873280,0.606467
728.177020,0.621373
728.480720,0.621296
728.784380,0.621419
729.088000,0.620820
729.391580,0.626717
729.695120,0.630518
729.998620,0.619981
730.302080,0.616050
730.605500,0.627365
730.908880,0.610975
731.212220,0.628306
731.515520,0.612384
731.818780,0.611165
732.122000,0.622047
732.425180,0.607689
732.728320,0.621220
733.031420,0.606516
733.334480,0.608163
733.637500,0.612399
733.940480,0.627943
734.243420,0.618247
734.546320,0.620332
734.849180,0.613636
735.152000,0.606846
735.454780,0.612087
735.757520,0.612750
736.060220,0.602422
736.362880,0.614496
736.665500,0.611488
736.968080,0.615261
737.270620,0.623843
737.573120,0.609170
737.875580,0.615173
738.178000,0.616222
738.480380,0.612973
738.782720,0.614504
739.085020,0.615639
739.387280,0.610310
739.689500,0.616648
739.991680,0.615385
740.293820,0.608624
740.595920,0.619922
740.897980,0.613213
741.200000,0.616938
741.501980,0.623496
741.803920,0.604167
742.105820,0.608573
742.407680,0.622598
742.709500,0.605114
743.011280,0.610199
743.313020,0.609855
743.614720,0.602438
743.916380,0.611047
744.218000,0.622315
744.519580,0.616546
744.821120,0.621557
745.122620,0.614140
745.424080,0.603966
745.725500,0.610139
746.026880,0.607759
746.328220,0.615906
746.629520,0.592414
746.930780,0.609069
747.232000,0.603924
747.533180,0.605857
747.834320,0.614729
748.135420,0.600994
748.436480,0.607611
748.737500,0.600988
749.038480,0.599878
749.339420,0.611077
749.640320,0.607794
749.941180,0.607121
750.242000,0.619975
750.542780,0.609801
750.843520,0.604100
751.144220,0.603205
751.444880,0.601776
751.745500,0.606494
752.046080,0.629250
752.346620,0.601160
752.647120,0.613978
752.947580,0.611255
753.248000,0.607350
753.548380,0.598569
753.848720,0.596909
754.149020,0.607350
754.449280,0.609980
754.749500,0.598540
755.049680,0.602667
755.349820,0.599066
755.649920,0.602776
755.949980,0.610484
756.250000,0.609467
756.549980,0.585479
756.849920,0.612508
757.149820,0.596806
757.449680,0.605281
757.749500,0.608044
758.049280,0.615700
758.349020,0.593880
758.648720,0.610766
758.948380,0.609622
759.248000,0.607817
759.547580,0.615333
759.847120,0.598208
760.146620,0.600812
760.446080,0.604167
760.745500,0.602797
761.044880,0.609375
761.344220,0.601568
761.643520,0.608051
761.942780,0.609517
762.242000,0.600424
762.541180,0.602113
762.840320,0.603933
763.139420,0.601266
763.438480,0.604921
763.737500,0.611303
764.036480,0.598183
764.335420,0.595625
764.634320,0.593209
764.933180,0.586986
765.232000,0.602359
765.530780,0.616842
765.829520,0.610490
766.128220,0.599861
766.426880,0.609097
766.725500,0.605209
767.024080,0.599451
767.322620,0.605118
767.621120,0.596883
767.919580,0.593174
768.218000,0.601231
768.516380,0.611900
768.814720,0.598765
769.113020,0.608546
769.411280,0.605663
769.709500,0.607578
770.007680,0.605317
770.305820,0.607167
770.603920,0.611860
770.901980,0.608607
771.200000,0.601902
771.497980,0.593164
771.795920,0.595987
772.093820,0.588235
772.391680,0.599868
772.689500,0.592568
772.987280,0.603367
773.285020,0.592618
773.582720,0.600676
773.880380,0.612903
774.178000,0.612815
774.475580,0.601474
774.773120,0.598394
775.070620,0.611224
775.368080,0.597862
775.665500,0.587643
775.962880,0.595063
776.260220,0.602961
776.557520,0.598399
776.854780,0.610548
777.152000,0.584218
777.449180,0.608227
777.746320,0.589382
778.043420,0.600955
778.340480,0.610284
778.637500,0.608519
778.934480,0.600538
779.231420,0.593623
779.528320,0.583166
779.825180,0.585639
780.122000,0.590305
780.418780,0.595075
780.715520,0.598927
781.012220,0.600685
781.308880,0.595673
781.605500,0.592466
781.902080,0.603012
782.198620,0.593301
782.495120,0.593964
782.791580,0.595598
783.088000,0.601104
783.384380,0.602476
783.680720,0.590971
783.977020,0.587749
784.273280,0.593706
784.569500,0.584906
784.865680,0.605702
785.161820,0.604167
785.457920,0.583507
785.753980,0.588276
786.050000,0.582873
786.345980,0.594444
786.641920,0.594726
786.937820,0.613960
787.233680,0.585943
787.529500,0.589459
787.825280,0.609773
788.121020,0.584278
788.416720,0.591390
788.712380,0.583921
789.008000,0.591360
789.303580,0.594346
789.599120,0.602182
789.894620,0.600000
790.190080,0.595359
790.485500,0.593952
790.780880,0.596416
791.076220,0.583694
791.371520,0.578794
791.666780,0.596364
791.962000,0.598090
792.257180,0.584919
792.552320,0.609862
792.847420,0.589520
793.142480,0.590476
793.437500,0.580318
793.732480,0.598391
794.027420,0.593472
794.322320,0.589113
794.617180,0.578009
794.912000,0.593611
795.206780,0.574198
795.501520,0.600000
795.796220,0.591852
796.090880,0.603617
796.385500,0.583208
796.680080,0.584892
796.974620,0.583832
797.269120,0.588948
797.563580,0.594656
797.858000,0.601367
798.152380,0.590874
798.446720,0.593077
798.741020,0.596302
799.035280,0.576863
799.329500,0.579677
799.623680,0.586822
