399.985280,0.351351
400.329500,0.405405
400.673680,0.354430
401.017820,0.382353
401.361920,0.378788
401.705980,0.304878
402.050000,0.311688
402.393980,0.435294
402.737920,0.449438
403.081820,0.381443
403.425680,0.383721
403.769500,0.354167
404.113280,0.333333
404.457020,0.415730
404.800720,0.380435
405.144380,0.434343
405.488000,0.354839
405.831580,0.381443
406.175120,0.393617
406.518620,0.380000
406.862080,0.391753
407.205500,0.364583
407.548880,0.489796
407.892220,0.352941
408.235520,0.393617
408.578780,0.400000
408.922000,0.336538
409.265180,0.393939
409.608320,0.373737
409.951420,0.381443
410.294480,0.421569
410.637500,0.358696
410.980480,0.392157
411.323420,0.357143
411.666320,0.422018
412.009180,0.363636
412.352000,0.376238
412.694780,0.403670
413.037520,0.376147
413.380220,0.378378
413.722880,0.401786
414.065500,0.405405
414.408080,0.398230
414.750620,0.442478
415.093120,0.355372
415.435580,0.394958
415.778000,0.378788
416.120380,0.386555
416.462720,0.388889
416.805020,0.428571
417.147280,0.395522
417.489500,0.435714
417.831680,0.417808
418.173820,0.411348
418.515920,0.433566
418.857980,0.436709
419.200000,0.455128
419.541980,0.426036
419.883920,0.432584
420.225820,0.393064
420.567680,0.402235
420.909500,0.387978
421.251280,0.406250
421.593020,0.392857
421.934720,0.388889
422.276380,0.425641
422.618000,0.431373
422.959580,0.421569
423.301120,0.415525
423.642620,0.373913
423.984080,0.386047
424.325500,0.412556
424.666880,0.422414
425.008220,0.399160
425.349520,0.406780
425.690780,0.369231
426.032000,0.368627
426.373180,0.423237
426.714320,0.406250
427.055420,0.382239
427.396480,0.404494
427.737500,0.399209
428.078480,0.415020
428.419420,0.405622
428.760320,0.409962
429.101180,0.405512
429.442000,0.425287
429.782780,0.396154
430.123520,0.411765
430.464220,0.420664
430.804880,0.440613
431.145500,0.378182
431.486080,0.438202
431.826620,0.449612
432.167120,0.411765
432.507580,0.427536
432.848000,0.438849
433.188380,0.418773
433.528720,0.426415
433.869020,0.414286
434.209280,0.396491
434.549500,0.407666
434.889680,0.447811
435.229820,0.443686
435.569920,0.429066
435.909980,0.411003
436.250000,0.457627
436.589980,0.421053
436.929920,0.444444
437.269820,0.420063
437.609680,0.431953
437.949500,0.436747
438.289280,0.422096
438.629020,0.433140
438.968720,0.444767
439.308380,0.428184
439.648000,0.435616
439.987580,0.417989
440.327120,0.434667
440.666620,0.423377
441.006080,0.439898
441.345500,0.405405
441.684880,0.423445
442.024220,0.421836
442.363520,0.426190
442.702780,0.427273
443.042000,0.431718
443.381180,0.400862
443.720320,0.425486
444.059420,0.424370
444.398480,0.422594
444.737500,0.401639
445.076480,0.424603
445.415420,0.417166
445.754320,0.426195
446.093180,0.416514
446.432000,0.456767
446.770780,0.436433
447.109520,0.455882
447.448220,0.445438
447.786880,0.449016
448.125500,0.444828
448.464080,0.416071
448.802620,0.427305
449.141120,0.432526
449.479580,0.426573
449.818000,0.454389
450.156380,0.423077
450.494720,0.444628
450.833020,0.444056
451.171280,0.419521
451.509500,0.454704
451.847680,0.458685
452.185820,0.435456
452.523920,0.432990
452.861980,0.428331
453.200000,0.430233
453.537980,0.435294
453.875920,0.443697
454.213820,0.452055
454.551680,0.427152
454.889500,0.428331
455.227280,0.437722
455.565020,0.445561
455.902720,0.449251
456.240380,0.430948
456.578000,0.447735
456.915580,0.431779
457.253120,0.450658
457.590620,0.438424
457.928080,0.456229
458.265500,0.451014
458.602880,0.430195
458.940220,0.451777
459.277520,0.448000
459.614780,0.466448
459.952000,0.439441
460.289180,0.457278
460.626320,0.459843
460.963420,0.442649
461.300480,0.467890
461.637500,0.440678
461.974480,0.463303
462.311420,0.467958
462.648320,0.449488
462.985180,0.443329
463.322000,0.446429
463.658780,0.439227
463.995520,0.444292
464.332220,0.455679
464.668880,0.455645
465.005500,0.473190
465.342080,0.460948
465.678620,0.439114
466.015120,0.460543
466.351580,0.471555
466.688000,0.485993
467.024380,0.461725
467.360720,0.455682
467.697020,0.460137
468.033280,0.452222
468.369500,0.471302
468.705680,0.472379
469.041820,0.453125
469.377920,0.456616
469.713980,0.453141
470.050000,0.479227
470.385980,0.469667
470.721920,0.459354
471.057820,0.464912
471.393680,0.466791
471.729500,0.471733
472.065280,0.470483
472.401020,0.466312
472.736720,0.473822
473.072380,0.457810
473.408000,0.453438
473.743580,0.472318
474.079120,0.468562
474.414620,0.462256
474.750080,0.458910
475.085500,0.476151
475.420880,0.471274
475.756220,0.472608
476.091520,0.468883
476.426780,0.461165
476.762000,0.457763
477.097180,0.455200
477.432320,0.478191
477.767420,0.475490
478.102480,0.455906
478.437500,0.468801
478.772480,0.464933
479.107420,0.467860
479.442320,0.464428
479.777180,0.484487
480.112000,0.467643
480.446780,0.465316
480.781520,0.474235
481.116220,0.474535
481.450880,0.471507
481.785500,0.483386
482.120080,0.488245
482.454620,0.479409
482.789120,0.480096
483.123580,0.473520
483.458000,0.470728
483.792380,0.491214
484.126720,0.467181
484.461020,0.473849
484.795280,0.471858
485.129500,0.480904
485.463680,0.489147
485.797820,0.476672
486.131920,0.487376
486.465980,0.484942
486.800000,0.484733
487.133980,0.475831
487.467920,0.491966
487.801820,0.488177
488.135680,0.482942
488.469500,0.481846
488.803280,0.482912
489.137020,0.482051
489.470720,0.482196
489.804380,0.488493
490.138000,0.507418
490.471580,0.495210
490.805120,0.481773
491.138620,0.489694
491.472080,0.486219
491.805500,0.490237
492.138880,0.486449
492.472220,0.484429
492.805520,0.493715
493.138780,0.501034
493.472000,0.492977
493.805180,0.500682
494.138320,0.490327
494.471420,0.490234
494.804480,0.493532
495.137500,0.489089
495.470480,0.493308
495.803420,0.488665
496.136320,0.508772
496.469180,0.491099
496.802000,0.493276
497.134780,0.506367
497.467520,0.507645
497.800220,0.500590
498.132880,0.504997
498.465500,0.499421
498.798080,0.488584
499.130620,0.497473
499.463120,0.500842
499.795580,0.492849
500.128000,0.497003
500.460380,0.507535
500.792720,0.491516
501.125020,0.502890
501.457280,0.502350
501.789500,0.498967
502.121680,0.514256
502.453820,0.506374
502.785920,0.508254
503.117980,0.510304
503.450000,0.516826
503.781980,0.502740
504.113920,0.500711
504.445820,0.510452
504.777680,0.507294
505.109500,0.502885
505.441280,0.510038
505.773020,0.507750
506.104720,0.500707
506.436380,0.503549
506.768000,0.508887
507.099580,0.499771
507.431120,0.499297
507.762620,0.510808
508.094080,0.507748
508.425500,0.513072
508.756880,0.512574
509.088220,0.512420
509.419520,0.509311
509.750780,0.507029
510.082000,0.510261
510.413180,0.514970
510.744320,0.511275
511.075420,0.510541
511.406480,0.526563
511.737500,0.514352
512.068480,0.511748
512.399420,0.519718
512.730320,0.510393
513.061180,0.522835
513.392000,0.521060
513.722780,0.526417
514.053520,0.515093
514.384220,0.515224
514.714880,0.524174
515.045500,0.509579
515.376080,0.517191
515.706620,0.522163
516.037120,0.511765
516.367580,0.522425
516.698000,0.519608
517.028380,0.523833
517.358720,0.512099
517.689020,0.526212
518.019280,0.527346
518.349500,0.525089
518.679680,0.522463
519.009820,0.525810
519.339920,0.524549
519.669980,0.513812
520.000000,0.533367
520.329980,0.526698
520.659920,0.521472
520.989820,0.530960
521.319680,0.532407
521.649500,0.521337
521.979280,0.524530
522.309020,0.523859
522.638720,0.525858
522.968380,0.535677
523.298000,0.536534
523.627580,0.527160
523.957120,0.530390
524.286620,0.531527
524.616080,0.532058
524.945500,0.533333
525.274880,0.539764
525.604220,0.525880
525.933520,0.532495
526.262780,0.530157
526.592000,0.531710
526.921180,0.534281
527.250320,0.524607
527.579420,0.544214
527.908480,0.533235
528.237500,0.535750
528.566480,0.536427
528.895420,0.527846
529.224320,0.542843
529.553180,0.526265
529.882000,0.548905
530.210780,0.539093
530.539520,0.542665
530.868220,0.540450
531.196880,0.534161
531.525500,0.552058
531.854080,0.530957
532.182620,0.526390
532.511120,0.539211
532.839580,0.548094
533.168000,0.537375
533.496380,0.549315
533.824720,0.544639
534.153020,0.546589
534.481280,0.543172
534.809500,0.554090
535.137680,0.549913
535.465820,0.542955
535.793920,0.535956
536.121980,0.545531
536.450000,0.553488
536.777980,0.552576
537.105920,0.547115
537.433820,0.548691
537.761680,0.552653
538.089500,0.558074
538.417280,0.556307
538.745020,0.549921
539.072720,0.547442
539.400380,0.554779
539.728000,0.545315
540.055580,0.551311
540.383120,0.551378
540.710620,0.549479
541.038080,0.555515
541.365500,0.548162
541.692880,0.555959
542.020220,0.550558
542.347520,0.555276
542.674780,0.551164
543.002000,0.551085
543.329180,0.564013
543.656320,0.561181
543.983420,0.551795
544.310480,0.553517
544.637500,0.559195
544.964480,0.560229
545.291420,0.557993
545.618320,0.559429
545.945180,0.548780
546.272000,0.551769
546.598780,0.559816
546.925520,0.554237
547.252220,0.561241
547.578880,0.565005
547.905500,0.563399
548.232080,0.557180
548.558620,0.563944
548.885120,0.554138
549.211580,0.559627
549.538000,0.558042
549.864380,0.551125
550.190720,0.560542
550.517020,0.562907
550.843280,0.559609
551.169500,0.550254
551.495680,0.563075
551.821820,0.564337
552.147920,0.567990
552.473980,0.560092
552.800000,0.558862
553.125980,0.564833
553.451920,0.573324
553.777820,0.563957
554.103680,0.566566
554.429500,0.556076
554.755280,0.567423
555.081020,0.563837
555.406720,0.568236
555.732380,0.567265
556.058000,0.569586
556.383580,0.565902
556.709120,0.561682
557.034620,0.562522
557.360080,0.564076
557.685500,0.563278
558.010880,0.554593
558.336220,0.563093
558.661520,0.571074
558.986780,0.574415
559.312000,0.564815
559.637180,0.562657
559.962320,0.563902
560.287420,0.567348
560.612480,0.565841
560.937500,0.570852
561.262480,0.570015
561.587420,0.566558
561.912320,0.566323
562.237180,0.569208
562.562000,0.571268
562.886780,0.577852
563.211520,0.567809
563.536220,0.563636
563.860880,0.571105
564.185500,0.559099
564.510080,0.571859
564.834620,0.572386
565.159120,0.567293
565.483580,0.574686
565.808000,0.567537
566.132380,0.568818
566.456720,0.582766
566.781020,0.572393
567.105280,0.569376
567.429500,0.578907
567.753680,0.576141
568.077820,0.566680
568.401920,0.576012
568.725980,0.580645
569.050000,0.577186
569.373980,0.571374
569.697920,0.573758
570.021820,0.583895
570.345680,0.577497
570.669500,0.568867
570.993280,0.568475
571.317020,0.572525
571.640720,0.578362
571.964380,0.574239
572.288000,0.576780
572.611580,0.581805
572.935120,0.577628
573.258620,0.573298
573.582080,0.584948
573.905500,0.586374
574.228880,0.590943
574.552220,0.581165
574.875520,0.574088
575.198780,0.568847
575.522000,0.577346
575.845180,0.577722
576.168320,0.584262
576.491420,0.591206
576.814480,0.589150
577.137500,0.589827
577.460480,0.591156
577.783420,0.581994
578.106320,0.590456
578.429180,0.583952
578.752000,0.588746
579.074780,0.589009
579.397520,0.587799
579.720220,0.582046
580.042880,0.596630
580.365500,0.583719
580.688080,0.589891
581.010620,0.588255
581.333120,0.585838
581.655580,0.596071
581.978000,0.587296
582.300380,0.580006
582.622720,0.587014
582.945020,0.591027
583.267280,0.596548
583.589500,0.590048
583.911680,0.586218
584.233820,0.580107
584.555920,0.590293
584.877980,0.594535
585.200000,0.585328
585.521980,0.595922
585.843920,0.591519
586.165820,0.589275
586.487680,0.582606
586.809500,0.594359
587.131280,0.581189
587.453020,0.596429
587.774720,0.590479
588.096380,0.593641
588.418000,0.594674
588.739580,0.599023
589.061120,0.594020
589.382620,0.595415
589.704080,0.587377
590.025500,0.599030
590.346880,0.587690
590.668220,0.597592
590.989520,0.595119
591.310780,0.596520
591.632000,0.592077
591.953180,0.588984
592.274320,0.592138
592.595420,0.592134
592.916480,0.597664
593.237500,0.600108
593.558480,0.598601
593.879420,0.595090
594.200320,0.605143
594.521180,0.594954
594.842000,0.603170
595.162780,0.599359
595.483520,0.603297
595.804220,0.601504
596.124880,0.609379
596.445500,0.595232
596.766080,0.612530
597.086620,0.602176
597.407120,0.592154
597.727580,0.606205
598.048000,0.599048
598.368380,0.597317
598.688720,0.595282
599.009020,0.595807
599.329280,0.601384
599.649500,0.603275
599.969680,0.601496
600.289820,0.610310
600.609920,0.603259
600.929980,0.602886
601.250000,0.602973
601.569980,0.598164
601.889920,0.595830
602.209820,0.596050
602.529680,0.610547
602.849500,0.600382
603.169280,0.607054
603.489020,0.606144
603.808720,0.602030
604.128380,0.604029
604.448000,0.596133
604.767580,0.601955
605.087120,0.597230
605.406620,0.602015
605.726080,0.604790
606.045500,0.593201
606.364880,0.607315
606.684220,0.603084
607.003520,0.600631
607.322780,0.604321
607.642000,0.603963
607.961180,0.605666
608.280320,0.594548
608.599420,0.590672
608.918480,0.604985
609.237500,0.601819
609.556480,0.599882
609.875420,0.602185
610.194320,0.599350
610.513180,0.599290
610.832000,0.605420
611.150780,0.604386
611.469520,0.606938
611.788220,0.610943
612.106880,0.601628
612.425500,0.606882
612.744080,0.613420
613.062620,0.592355
613.381120,0.601767
613.699580,0.604844
614.018000,0.606880
614.336380,0.607650
614.654720,0.611473
614.973020,0.602283
615.291280,0.601797
615.609500,0.622821
615.927680,0.605377
616.245820,0.601732
616.563920,0.608331
616.881980,0.606486
617.200000,0.599378
617.517980,0.600498
617.835920,0.600808
618.153820,0.604911
618.471680,0.602171
618.789500,0.600063
619.107280,0.610642
619.425020,0.607041
619.742720,0.603892
620.060380,0.607960
620.378000,0.602580
620.695580,0.611430
621.013120,0.600315
621.330620,0.614057
621.648080,0.600315
621.965500,0.601631
622.282880,0.607503
622.600220,0.606128
622.917520,0.610271
623.234780,0.618129
623.552000,0.611394
623.869180,0.608257
624.186320,0.610952
624.503420,0.606583
624.820480,0.602262
625.137500,0.610041
625.454480,0.610191
625.771420,0.611286
626.088320,0.609710
626.405180,0.604854
626.722000,0.608532
627.038780,0.605263
627.355520,0.612500
627.672220,0.610575
627.988880,0.599689
628.305500,0.607354
628.622080,0.617100
628.938620,0.611621
629.255120,0.618544
629.571580,0.609562
629.888000,0.611844
630.204380,0.616140
630.520720,0.608775
630.837020,0.609312
631.153280,0.607914
631.469500,0.610673
631.785680,0.607294
632.101820,0.607358
632.417920,0.615499
632.733980,0.610744
633.050000,0.619163
633.365980,0.611144
633.681920,0.618138
633.997820,0.615362
634.313680,0.614273
634.629500,0.610734
634.945280,0.612610
635.261020,0.618726
635.576720,0.613623
635.892380,0.618066
636.208000,0.610691
636.523580,0.616194
636.839120,0.611465
637.154620,0.611014
637.470080,0.605452
637.785500,0.614009
638.100880,0.606429
638.416220,0.621800
638.731520,0.608596
639.046780,0.611419
639.362000,0.611812
639.677180,0.609081
639.992320,0.618551
640.307420,0.614779
640.622480,0.611033
640.937500,0.611096
641.252480,0.612957
641.567420,0.616084
641.882320,0.609967
642.197180,0.615665
642.512000,0.615169
642.826780,0.616366
643.141520,0.619894
643.456220,0.615385
643.770880,0.625207
644.085500,0.619620
644.400080,0.622753
644.714620,0.623188
645.029120,0.620462
645.343580,0.614098
645.658000,0.615043
645.972380,0.619074
646.286720,0.615972
646.601020,0.614448
646.915280,0.618316
647.229500,0.619505
647.543680,0.610329
647.857820,0.612717
648.171920,0.609061
648.485980,0.614415
648.800000,0.613943
649.113980,0.618071
649.427920,0.620250
649.741820,0.609783
650.055680,0.614646
650.369500,0.622478
650.683280,0.616815
650.997020,0.619087
651.310720,0.613649
651.624380,0.609066
651.938000,0.615235
652.251580,0.612023
652.565120,0.611235
652.878620,0.610923
653.192080,0.612360
653.505500,0.610379
653.818880,0.618425
654.132220,0.624039
654.445520,0.617981
654.758780,0.609632
655.072000,0.612034
655.385180,0.610556
655.698320,0.610746
656.011420,0.612210
656.324480,0.612358
656.637500,0.616744
656.950480,0.612155
657.263420,0.615134
657.576320,0.612808
657.889180,0.614863
658.202000,0.620773
658.514780,0.614469
658.827520,0.619148
659.140220,0.607132
659.452880,0.613108
659.765500,0.614690
660.078080,0.608787
660.390620,0.610144
660.703120,0.615949
661.015580,0.607362
661.328000,0.618073
661.640380,0.621622
661.952720,0.618187
662.265020,0.611846
662.577280,0.621819
662.889500,0.611794
663.201680,0.620294
663.513820,0.611451
663.825920,0.614153
664.137980,0.615708
664.450000,0.608376
664.761980,0.609820
665.073920,0.604998
665.385820,0.609948
665.697680,0.609917
666.009500,0.621882
666.321280,0.616634
666.633020,0.612035
666.944720,0.613751
667.256380,0.616083
667.568000,0.620924
667.879580,0.623469
668.191120,0.618475
668.502620,0.611777
668.814080,0.615439
669.125500,0.616490
669.436880,0.618257
669.748220,0.613015
670.059520,0.622199
670.370780,0.610299
670.682000,0.624071
670.993180,0.620507
671.304320,0.613924
671.615420,0.611506
671.926480,0.616749
672.237500,0.610932
672.548480,0.617814
672.859420,0.616869
673.170320,0.621328
673.481180,0.622013
673.792000,0.611612
674.102780,0.601436
674.413520,0.617937
674.724220,0.608711
675.034880,0.619362
675.345500,0.619621
675.656080,0.604356
675.966620,0.610768
676.277120,0.618089
676.587580,0.620398
676.898000,0.622994
677.208380,0.611460
677.518720,0.603209
677.829020,0.614930
678.139280,0.614529
678.449500,0.608244
678.759680,0.615961
679.069820,0.617100
679.379920,0.620898
679.689980,0.612700
680.000000,0.613832
680.309980,0.614328
680.619920,0.614540
680.929820,0.615528
681.239680,0.603028
681.549500,0.612593
681.859280,0.611277
682.169020,0.614323
682.478720,0.623037
682.788380,0.615725
683.098000,0.616679
683.407580,0.611632
683.717120,0.616742
684.026620,0.614834
684.336080,0.616900
684.645500,0.605312
684.954880,0.609369
685.264220,0.605134
685.573520,0.610582
685.882780,0.616801
686.192000,0.609857
686.501180,0.609913
686.810320,0.610300
687.119420,0.627518
687.428480,0.614508
687.737500,0.619340
688.046480,0.607362
688.355420,0.605809
688.664320,0.612854
688.973180,0.610643
689.282000,0.611111
689.590780,0.612730
689.899520,0.593619
690.208220,0.623471
690.516880,0.617793
690.825500,0.613208
691.134080,0.604404
691.442620,0.607470
691.751120,0.608267
692.059580,0.621322
692.368000,0.612268
692.676380,0.611069
692.984720,0.605344
693.293020,0.613602
693.601280,0.606257
693.909500,0.617480
694.217680,0.609292
694.525820,0.615385
694.833920,0.611599
695.141980,0.607019
695.450000,0.608397
695.757980,0.613063
696.065920,0.602330
696.373820,0.608160
696.681680,0.599156
696.989500,0.603242
697.297280,0.600545
697.605020,0.622222
697.912720,0.602613
698.220380,0.605274
698.528000,0.614715
698.835580,0.608455
699.143120,0.595090
699.450620,0.611774
699.758080,0.601176
700.065500,0.604549
700.372880,0.604400
700.680220,0.597128
700.987520,0.607937
701.294780,0.605434
701.602000,0.606181
701.909180,0.612878
702.216320,0.612045
702.523420,0.608919
702.830480,0.616238
703.137500,0.603274
703.444480,0.613018
703.751420,0.617357
704.058320,0.608231
704.365180,0.608438
704.672000,0.608713
704.978780,0.604760
705.285520,0.602504
705.592220,0.601961
705.898880,0.608747
706.205500,0.602895
706.512080,0.615719
706.818620,0.607972
707.125120,0.605000
707.431580,0.602579
707.738000,0.606250
708.044380,0.604786
708.350720,0.600306
708.657020,0.612349
708.963280,0.598991
709.269500,0.606654
709.575680,0.607859
709.881820,0.610063
710.187920,0.605058
710.493980,0.603569
710.800000,0.609077
711.105980,0.595256
711.411920,0.610564
711.717820,0.604678
712.023680,0.599689
712.329500,0.617902
712.635280,0.617829
712.941020,0.597990
713.246720,0.610277
713.552380,0.610283
713.858000,0.607804
714.163580,0.602999
714.469120,0.599844
714.774620,0.608370
715.080080,0.600707
715.385500,0.603118
715.690880,0.604339
715.996220,0.599445
716.301520,0.603557
716.606780,0.602201
716.912000,0.614297
717.217180,0.615323
717.522320,0.600795
717.827420,0.613914
718.132480,0.605379
718.437500,0.604158
718.742480,0.603226
719.047420,0.599110
719.352320,0.608966
719.657180,0.616108
719.962000,0.601737
720.266780,0.606564
720.571520,0.607705
720.876220,0.601473
721.180880,0.599498
721.485500,0.608023
721.790080,0.596603
722.094620,0.611921
722.399120,0.611805
722.703580,0.603086
723.008000,0.610177
723.312380,0.600517
723.616720,0.594985
723.921020,0.596362
724.225280,0.602094
724.529500,0.596760
724.833680,0.601868
725.137820,0.602203
725.441920,0.603210
725.745980,0.610291
726.050000,0.617050
726.353980,0.597566
726.657920,0.592892
726.961820,0.602283
727.265680,0.613962
727.569500,0.597806
727.873280,0.599076
728.177020,0.601566
728.480720,0.606481
728.784380,0.593236
729.088000,0.594442
729.391580,0.597347
729.695120,0.609885
729.998620,0.601338
730.302080,0.592504
730.605500,0.596312
730.908880,0.591377
731.212220,0.599412
731.515520,0.591419
731.818780,0.594175
732.122000,0.596457
732.425180,0.593889
732.728320,0.588002
733.031420,0.592481
733.334480,0.601020
733.637500,0.600302
733.940480,0.595189
734.243420,0.599388
734.546320,0.595954
734.849180,0.589876
735.152000,0.596473
735.454780,0.594525
735.757520,0.594310
736.060220,0.598736
736.362880,0.597164
736.665500,0.595300
736.968080,0.595916
737.270620,0.607512
737.573120,0.598799
737.875580,0.597581
738.178000,0.600980
738.480380,0.588108
738.782720,0.596510
739.085020,0.589758
739.387280,0.596452
739.689500,0.597395
739.991680,0.603593
740.293820,0.593145
740.595920,0.587090
740.897980,0.604178
741.200000,0.591699
741.501980,0.605158
741.803920,0.595158
742.105820,0.584884
742.407680,0.599884
742.709500,0.583523
743.011280,0.591442
743.313020,0.600000
743.614720,0.573999
743.916380,0.584302
744.218000,0.591885
744.519580,0.602053
744.821120,0.602994
745.122620,0.588975
745.424080,0.585337
745.725500,0.589016
746.026880,0.592365
746.328220,0.594328
746.629520,0.574955
746.930780,0.583946
747.232000,0.589822
747.533180,0.596095
747.834320,0.587340
748.135420,0.582971
748.436480,0.587648
748.737500,0.584311
749.038480,0.584606
749.339420,0.589919
749.640320,0.598366
749.941180,0.574016
750.242000,0.586683
750.542780,0.582506
750.843520,0.599616
751.144220,0.587179
751.444880,0.582118
751.745500,0.590260
752.046080,0.584349
752.346620,0.592139
752.647120,0.593076
752.947580,0.584735
753.248000,0.585429
753.548380,0.585556
753.848720,0.591758
754.149020,0.577692
754.449280,0.585030
754.749500,0.587923
755.049680,0.576000
755.349820,0.583722
755.649920,0.586913
755.949980,0.573324
756.250000,0.592373
756.549980,0.572937
756.849920,0.588715
757.149820,0.581504
757.449680,0.574257
757.749500,0.598500
758.049280,0.593174
758.349020,0.573713
758.648720,0.591442
758.948380,0.572509
759.248000,0.583558
759.547580,0.581708
759.847120,0.582357
760.146620,0.586604
760.446080,0.577285
760.745500,0.587413
761.044880,0.593750
761.344220,0.581611
761.643520,0.588983
761.942780,0.585724
762.242000,0.575672
762.541180,0.576761
762.840320,0.579354
763.139420,0.571730
763.438480,0.571429
763.737500,0.593384
764.036480,0.579315
764.335420,0.576570
764.634320,0.575884
764.933180,0.573288
765.232000,0.575989
765.530780,0.582456
765.829520,0.583217
766.128220,0.583855
766.426880,0.596304
766.725500,0.584647
767.024080,0.571331
767.322620,0.585754
767.621120,0.579946
767.919580,0.583618
768.218000,0.582763
768.516380,0.584178
768.814720,0.574074
769.113020,0.592695
769.411280,0.585635
769.709500,0.594046
770.007680,0.572597
770.305820,0.578093
770.603920,0.573450
770.901980,0.576503
771.200000,0.580842
771.497980,0.571716
771.795920,0.575251
772.093820,0.567513
772.391680,0.583388
772.689500,0.576351
772.987280,0.583165
773.285020,0.587833
773.582720,0.577703
773.880380,0.580645
774.178000,0.583504
774.475580,0.572672
774.773120,0.582999
775.070620,0.579446
775.368080,0.583834
775.665500,0.570853
775.962880,0.576384
776.260220,0.585464
776.557520,0.582388
776.854780,0.580122
777.152000,0.569629
777.449180,0.583951
777.746320,0.569892
778.043420,0.577080
778.340480,0.575778
778.637500,0.581474
778.934480,0.574983
779.231420,0.565807
779.528320,0.555110
779.825180,0.563241
780.122000,0.569057
780.418780,0.573871
780.715520,0.570758
781.012220,0.592466
781.308880,0.585531
781.605500,0.582192
781.902080,0.575633
782.198620,0.565960
782.495120,0.583676
782.791580,0.577029
783.088000,0.576950
783.384380,0.581155
783.680720,0.571819
783.977020,0.558156
784.273280,0.580420
784.569500,0.581412
784.865680,0.588317
785.161820,0.579861
785.457920,0.573112
785.753980,0.574320
786.050000,0.561464
786.345980,0.577083
786.641920,0.562804
786.937820,0.589031
787.233680,0.573417
787.529500,0.558946
787.825280,0.578612
788.121020,0.574363
788.416720,0.565279
788.712380,0.564880
789.008000,0.568697
789.303580,0.568198
789.599120,0.576000
789.894620,0.569675
790.190080,0.580856
790.485500,0.568754
790.780880,0.560573
791.076220,0.575758
791.371520,0.568627
791.666780,0.573091
791.962000,0.573843
792.257180,0.574671
792.552320,0.562727
792.847420,0.564774
793.142480,0.568498
793.437500,0.562229
793.732480,0.570593
794.027420,0.571958
794.322320,0.581655
794.617180,0.565379
794.912000,0.573551
795.206780,0.577927
795.501520,0.571863
795.796220,0.557778
796.090880,0.565938
796.385500,0.565967
796.680080,0.560209
796.974620,0.556138
797.269120,0.557154
797.563580,0.561069
797.858000,0.567198
798.152380,0.569992
798.446720,0.566923
798.741020,0.560092
799.035280,0.563665
799.329500,0.563510
799.623680,0.567442
