399.985280,0.378378
400.329500,0.337838
400.673680,0.354430
401.017820,0.352941
401.361920,0.393939
401.705980,0.365854
402.050000,0.298701
402.393980,0.388235
402.737920,0.449438
403.081820,0.319588
403.425680,0.313953
403.769500,0.312500
404.113280,0.425287
404.457020,0.426966
404.800720,0.326087
405.144380,0.424242
405.488000,0.333333
405.831580,0.422680
406.175120,0.393617
406.518620,0.410000
406.862080,0.412371
407.205500,0.333333
407.548880,0.346939
407.892220,0.382353
408.235520,0.393617
408.578780,0.390476
408.922000,0.365385
409.265180,0.434343
409.608320,0.393939
409.951420,0.463918
410.294480,0.421569
410.637500,0.445652
410.980480,0.470588
411.323420,0.448980
411.666320,0.366972
412.009180,0.427273
412.352000,0.326733
412.694780,0.412844
413.037520,0.422018
413.380220,0.414414
413.722880,0.446429
414.065500,0.450450
414.408080,0.398230
414.750620,0.415929
415.093120,0.413223
415.435580,0.470588
415.778000,0.462121
416.120380,0.470588
416.462720,0.428571
416.805020,0.451128
417.147280,0.440299
417.489500,0.421429
417.831680,0.376712
418.173820,0.390071
418.515920,0.440559
418.857980,0.424051
419.200000,0.423077
419.541980,0.414201
419.883920,0.376404
420.225820,0.398844
420.567680,0.413408
420.909500,0.448087
421.251280,0.442708
421.593020,0.382653
421.934720,0.464646
422.276380,0.451282
422.618000,0.436275
422.959580,0.450980
423.301120,0.447489
423.642620,0.417391
423.984080,0.441860
424.325500,0.430493
424.666880,0.448276
425.008220,0.399160
425.349520,0.436441
425.690780,0.419231
426.032000,0.415686
426.373180,0.435685
426.714320,0.441406
427.055420,0.405405
427.396480,0.423221
427.737500,0.426877
428.078480,0.399209
428.419420,0.441767
428.760320,0.432950
429.101180,0.468504
429.442000,0.463602
429.782780,0.434615
430.123520,0.447059
430.464220,0.442804
430.804880,0.463602
431.145500,0.414545
431.486080,0.434457
431.826620,0.441860
432.167120,0.430147
432.507580,0.449275
432.848000,0.428058
433.188380,0.451264
433.528720,0.430189
433.869020,0.460714
434.209280,0.424561
434.549500,0.442509
434.889680,0.430976
435.229820,0.433447
435.569920,0.411765
435.909980,0.411003
436.250000,0.474576
436.589980,0.417957
436.929920,0.441270
437.269820,0.435737
437.609680,0.455621
437.949500,0.445783
438.289280,0.458924
438.629020,0.430233
438.968720,0.441860
439.308380,0.428184
439.648000,0.446575
439.987580,0.449735
440.327120,0.453333
440.666620,0.451948
441.006080,0.447570
441.345500,0.437346
441.684880,0.437799
442.024220,0.434243
442.363520,0.435714
442.702780,0.420455
443.042000,0.431718
443.381180,0.463362
443.720320,0.464363
444.059420,0.453782
444.398480,0.443515
444.737500,0.446721
445.076480,0.432540
445.415420,0.439122
445.754320,0.440748
446.093180,0.451376
446.432000,0.462406
446.770780,0.453510
447.109520,0.463235
447.448220,0.438283
447.786880,0.452594
448.125500,0.455172
448.464080,0.451786
448.802620,0.476950
449.141120,0.446367
449.479580,0.454545
449.818000,0.449225
450.156380,0.443144
450.494720,0.462810
450.833020,0.458042
451.171280,0.448630
451.509500,0.472125
451.847680,0.456998
452.185820,0.444062
452.523920,0.455326
452.861980,0.462057
453.200000,0.446844
453.537980,0.460504
453.875920,0.453782
454.213820,0.452055
454.551680,0.450331
454.889500,0.465430
455.227280,0.453737
455.565020,0.453936
455.902720,0.472546
456.240380,0.434276
456.578000,0.463415
456.915580,0.469775
457.253120,0.449013
457.590620,0.456486
457.928080,0.464646
458.265500,0.476351
458.602880,0.451299
458.940220,0.477157
459.277520,0.456000
459.614780,0.477905
459.952000,0.451863
460.289180,0.482595
460.626320,0.458268
460.963420,0.471729
461.300480,0.466361
461.637500,0.474576
461.974480,0.487768
462.311420,0.499255
462.648320,0.462665
462.985180,0.451937
463.322000,0.479167
463.658780,0.458564
463.995520,0.466300
464.332220,0.469529
464.668880,0.459677
465.005500,0.494638
465.342080,0.481434
465.678620,0.467405
466.015120,0.473480
466.351580,0.485461
466.688000,0.483557
467.024380,0.482382
467.360720,0.482955
467.697020,0.469248
468.033280,0.478889
468.369500,0.480132
468.705680,0.485908
469.041820,0.479167
469.377920,0.469631
469.713980,0.473738
470.050000,0.476329
470.385980,0.466732
470.721920,0.476004
471.057820,0.485380
471.393680,0.480823
471.729500,0.490269
472.065280,0.475850
472.401020,0.473404
472.736720,0.475567
473.072380,0.478456
473.408000,0.478677
473.743580,0.479239
474.079120,0.484065
474.414620,0.484309
474.750080,0.475183
475.085500,0.482730
475.420880,0.470441
475.756220,0.484873
476.091520,0.482523
476.426780,0.483010
476.762000,0.479485
477.097180,0.490400
477.432320,0.492730
477.767420,0.477941
478.102480,0.486614
478.437500,0.497537
478.772480,0.471237
479.107420,0.483320
479.442320,0.476419
479.777180,0.493238
480.112000,0.476888
480.446780,0.485581
480.781520,0.485507
481.116220,0.494745
481.450880,0.479313
481.785500,0.490506
482.120080,0.481975
482.454620,0.487179
482.789120,0.489650
483.123580,0.496106
483.458000,0.486551
483.792380,0.510383
484.126720,0.498069
484.461020,0.491023
484.795280,0.492675
485.129500,0.491037
485.463680,0.492248
485.797820,0.491446
486.131920,0.491201
486.465980,0.491120
486.800000,0.495420
487.133980,0.484894
487.467920,0.513389
487.801820,0.509535
488.135680,0.504928
488.469500,0.495461
488.803280,0.497028
489.137020,0.491575
489.470720,0.503709
489.804380,0.504083
490.138000,0.507418
490.471580,0.505527
490.805120,0.501072
491.138620,0.494670
491.472080,0.506007
491.805500,0.500000
492.138880,0.510076
492.472220,0.498962
492.805520,0.502095
493.138780,0.503790
493.472000,0.499666
493.805180,0.516371
494.138320,0.508339
494.471420,0.505859
494.804480,0.509056
495.137500,0.503851
495.470480,0.512428
495.803420,0.505038
496.136320,0.512531
496.469180,0.503376
496.802000,0.510391
497.134780,0.508793
497.467520,0.518043
497.800220,0.511203
498.132880,0.496767
498.465500,0.513326
498.798080,0.506849
499.130620,0.513195
499.463120,0.508141
499.795580,0.508801
500.128000,0.510627
500.460380,0.511841
500.792720,0.506363
501.125020,0.505518
501.457280,0.512272
501.789500,0.517562
502.121680,0.524624
502.453820,0.515043
502.785920,0.513757
503.117980,0.513739
503.450000,0.527875
503.781980,0.526158
504.113920,0.504979
504.445820,0.521633
504.777680,0.514824
505.109500,0.516827
505.441280,0.522945
505.773020,0.515735
506.104720,0.517664
506.436380,0.520587
506.768000,0.517774
507.099580,0.513501
507.431120,0.519438
507.762620,0.529605
508.094080,0.513674
508.425500,0.531279
508.756880,0.522634
509.088220,0.517019
509.419520,0.517225
509.750780,0.527179
510.082000,0.515858
510.413180,0.530170
510.744320,0.511275
511.075420,0.522915
511.406480,0.518101
511.737500,0.511111
512.068480,0.529605
512.399420,0.526761
512.730320,0.517321
513.061180,0.531399
513.392000,0.522480
513.722780,0.542747
514.053520,0.529468
514.384220,0.526166
514.714880,0.526568
515.045500,0.523946
515.376080,0.523487
515.706620,0.528008
516.037120,0.530882
516.367580,0.541646
516.698000,0.523039
517.028380,0.531281
517.358720,0.524938
517.689020,0.533136
518.019280,0.528349
518.349500,0.535732
518.679680,0.530035
519.009820,0.532895
519.339920,0.536072
519.669980,0.534907
520.000000,0.533877
520.329980,0.541213
520.659920,0.528119
520.989820,0.524768
521.319680,0.540638
521.649500,0.529563
521.979280,0.541754
522.309020,0.539419
522.638720,0.536098
522.968380,0.541365
523.298000,0.534969
523.627580,0.535437
523.957120,0.529870
524.286620,0.533611
524.616080,0.540331
524.945500,0.532817
525.274880,0.544895
525.604220,0.538820
525.933520,0.545073
526.262780,0.526102
526.592000,0.533232
526.921180,0.535805
527.250320,0.540842
527.579420,0.541182
527.908480,0.542590
528.237500,0.540715
528.566480,0.549900
528.895420,0.539182
529.224320,0.543338
529.553180,0.549398
529.882000,0.547445
530.210780,0.547297
530.539520,0.538830
530.868220,0.547152
531.196880,0.547062
531.525500,0.557385
531.854080,0.538931
532.182620,0.536198
532.511120,0.546172
532.839580,0.550817
533.168000,0.541477
533.496380,0.542922
533.824720,0.545536
534.153020,0.556398
534.481280,0.549339
534.809500,0.555409
535.137680,0.549913
535.465820,0.553265
535.793920,0.551184
536.121980,0.553504
536.450000,0.554757
536.777980,0.549644
537.105920,0.551681
537.433820,0.544190
537.761680,0.554286
538.089500,0.549575
538.417280,0.551532
538.745020,0.557448
539.072720,0.549785
539.400380,0.557887
539.728000,0.553346
540.055580,0.552809
540.383120,0.554728
540.710620,0.556548
541.038080,0.549613
541.365500,0.555515
541.692880,0.555596
542.020220,0.548759
542.347520,0.556712
542.674780,0.556104
543.002000,0.552484
543.329180,0.563311
543.656320,0.565049
543.983420,0.551795
544.310480,0.553177
544.637500,0.560218
544.964480,0.556191
545.291420,0.563310
545.618320,0.559097
545.945180,0.557680
546.272000,0.544561
546.598780,0.563422
546.925520,0.568414
547.252220,0.569495
547.578880,0.562072
547.905500,0.565359
548.232080,0.561079
548.558620,0.555158
548.885120,0.559699
549.211580,0.562520
549.538000,0.559014
549.864380,0.564630
550.190720,0.563126
550.517020,0.562581
550.843280,0.560912
551.169500,0.552799
551.495680,0.563403
551.821820,0.566623
552.147920,0.571243
552.473980,0.564702
552.800000,0.564748
553.125980,0.572692
553.451920,0.569675
553.777820,0.573284
554.103680,0.576003
554.429500,0.568463
554.755280,0.568091
555.081020,0.567848
555.406720,0.557061
555.732380,0.569637
556.058000,0.567210
556.383580,0.570353
556.709120,0.566161
557.034620,0.574578
557.360080,0.568221
557.685500,0.574689
558.010880,0.561872
558.336220,0.562742
558.661520,0.577455
558.986780,0.578313
559.312000,0.570513
559.637180,0.564093
559.962320,0.572090
560.287420,0.568406
560.612480,0.573735
560.937500,0.577093
561.262480,0.573680
561.587420,0.566558
561.912320,0.564480
562.237180,0.565137
562.562000,0.573887
562.886780,0.577109
563.211520,0.563711
563.536220,0.564007
563.860880,0.576009
564.185500,0.568480
564.510080,0.573363
564.834620,0.567175
565.159120,0.580451
565.483580,0.572406
565.808000,0.566023
566.132380,0.566953
566.456720,0.571429
566.781020,0.573893
567.105280,0.564839
567.429500,0.579666
567.753680,0.574990
568.077820,0.576730
568.401920,0.577158
568.725980,0.573435
569.050000,0.575665
569.373980,0.577845
569.697920,0.575275
570.021820,0.578277
570.345680,0.581707
570.669500,0.582221
570.993280,0.574751
571.317020,0.564487
571.640720,0.582067
571.964380,0.576095
572.288000,0.580861
572.611580,0.579558
572.935120,0.583988
573.258620,0.576290
573.582080,0.583830
573.905500,0.584140
574.228880,0.583519
574.552220,0.585562
574.875520,0.575949
575.198780,0.576437
575.522000,0.576979
575.845180,0.561605
576.168320,0.576716
576.491420,0.584302
576.814480,0.583363
577.137500,0.586219
577.460480,0.590069
577.783420,0.582708
578.106320,0.590100
578.429180,0.582891
578.752000,0.581105
579.074780,0.585300
579.397520,0.589090
579.720220,0.586229
580.042880,0.584407
580.365500,0.581072
580.688080,0.592944
581.010620,0.588593
581.333120,0.581496
581.655580,0.590077
581.978000,0.593282
582.300380,0.578708
582.622720,0.591958
582.945020,0.588101
583.267280,0.581895
583.589500,0.589085
583.911680,0.589393
584.233820,0.585143
584.555920,0.596281
584.877980,0.584799
585.200000,0.577655
585.521980,0.595613
585.843920,0.587248
586.165820,0.582876
586.487680,0.593440
586.809500,0.588359
587.131280,0.589175
587.453020,0.594940
587.774720,0.594619
588.096380,0.584889
588.418000,0.591454
588.739580,0.588962
589.061120,0.594882
589.382620,0.598567
589.704080,0.587658
590.025500,0.599030
590.346880,0.596121
590.668220,0.595351
590.989520,0.587909
591.310780,0.592378
591.632000,0.594262
591.953180,0.593689
592.274320,0.585040
592.595420,0.588093
592.916480,0.595219
593.237500,0.593910
593.558480,0.592144
593.879420,0.594281
594.200320,0.594428
594.521180,0.592563
594.842000,0.599140
595.162780,0.594551
595.483520,0.595320
595.804220,0.598281
596.124880,0.596589
596.445500,0.586324
596.766080,0.606884
597.086620,0.599257
597.407120,0.598999
597.727580,0.599576
598.048000,0.595345
598.368380,0.600999
598.688720,0.583748
599.009020,0.589703
599.329280,0.602714
599.649500,0.593502
599.969680,0.595085
600.289820,0.601763
600.609920,0.594176
600.929980,0.598878
601.250000,0.590541
601.569980,0.588712
601.889920,0.595563
602.209820,0.592803
602.529680,0.603680
602.849500,0.596563
603.169280,0.597961
603.489020,0.603377
603.808720,0.594624
604.128380,0.602925
604.448000,0.600552
604.767580,0.610615
605.087120,0.589751
605.406620,0.601455
605.726080,0.599943
606.045500,0.590972
606.364880,0.601644
606.684220,0.600800
607.003520,0.593750
607.322780,0.589255
607.642000,0.596496
607.961180,0.595548
608.280320,0.600058
608.599420,0.586906
608.918480,0.599707
609.237500,0.589789
609.556480,0.605801
609.875420,0.603957
610.194320,0.593150
610.513180,0.594555
610.832000,0.595890
611.150780,0.599880
611.469520,0.596078
611.788220,0.605200
612.106880,0.601628
612.425500,0.597442
612.744080,0.606033
613.062620,0.597859
613.381120,0.592626
613.699580,0.601471
614.018000,0.606265
614.336380,0.597779
614.654720,0.596899
614.973020,0.601975
615.291280,0.601178
615.609500,0.610460
615.927680,0.603214
616.245820,0.594620
616.563920,0.601492
616.881980,0.597131
617.200000,0.596267
617.517980,0.599876
617.835920,0.594905
618.153820,0.595586
618.471680,0.594729
618.789500,0.603210
619.107280,0.601565
619.425020,0.594989
619.742720,0.603264
620.060380,0.595738
620.378000,0.601951
620.695580,0.602810
621.013120,0.595906
621.330620,0.607154
621.648080,0.587697
621.965500,0.599122
622.282880,0.597100
622.600220,0.598863
622.917520,0.594833
623.234780,0.606557
623.552000,0.612667
623.869180,0.595336
624.186320,0.598535
624.503420,0.615674
624.820480,0.603205
625.137500,0.613199
625.454480,0.598937
625.771420,0.604666
626.088320,0.603720
626.405180,0.602054
626.722000,0.605709
627.038780,0.604323
627.355520,0.602500
627.672220,0.603421
627.988880,0.604355
628.305500,0.606731
628.622080,0.606568
628.938620,0.599388
629.255120,0.610765
629.571580,0.606497
629.888000,0.599877
630.204380,0.604480
630.520720,0.600548
630.837020,0.600678
631.153280,0.601019
631.469500,0.602183
631.785680,0.609705
632.101820,0.609469
632.417920,0.602385
632.733980,0.604742
633.050000,0.613402
633.365980,0.605809
633.681920,0.606504
633.997820,0.607591
634.313680,0.606311
634.629500,0.603952
634.945280,0.609091
635.261020,0.600822
635.576720,0.608632
635.892380,0.601510
636.208000,0.600523
636.523580,0.605963
636.839120,0.601621
637.154620,0.604638
637.470080,0.604878
637.785500,0.604631
638.100880,0.610194
638.416220,0.609146
638.731520,0.600573
639.046780,0.604428
639.362000,0.604071
639.677180,0.601942
639.992320,0.604454
640.307420,0.607474
640.622480,0.604593
640.937500,0.603606
641.252480,0.610165
641.567420,0.616368
641.882320,0.608853
642.197180,0.607805
642.512000,0.606213
642.826780,0.602774
643.141520,0.607669
643.456220,0.606530
643.770880,0.611111
644.085500,0.610117
644.400080,0.609270
644.714620,0.610647
645.029120,0.613036
645.343580,0.611903
645.658000,0.614488
645.972380,0.614963
646.286720,0.611066
646.601020,0.618323
646.915280,0.611187
647.229500,0.613736
647.543680,0.610329
647.857820,0.604734
648.171920,0.608247
648.485980,0.606742
648.800000,0.608432
649.113980,0.599778
649.427920,0.614702
649.741820,0.600165
650.055680,0.601207
650.369500,0.611267
650.683280,0.609323
650.997020,0.603410
651.310720,0.604568
651.624380,0.603022
651.938000,0.606371
652.251580,0.610632
652.565120,0.599776
652.878620,0.608390
653.192080,0.607865
653.505500,0.607574
653.818880,0.611885
654.132220,0.606380
654.445520,0.612309
654.758780,0.604249
655.072000,0.609742
655.385180,0.604280
655.698320,0.605030
656.011420,0.602178
656.324480,0.607112
656.637500,0.607764
656.950480,0.608632
657.263420,0.600946
657.576320,0.603024
657.889180,0.599528
658.202000,0.610507
658.514780,0.607919
658.827520,0.607443
659.140220,0.607132
659.452880,0.610390
659.765500,0.599639
660.078080,0.598255
660.390620,0.610755
660.703120,0.608921
661.015580,0.607975
661.328000,0.604849
661.640380,0.607953
661.952720,0.603239
662.265020,0.606805
662.577280,0.604962
662.889500,0.598234
663.201680,0.607211
663.513820,0.596977
663.825920,0.609030
664.137980,0.616031
664.450000,0.596867
664.761980,0.605565
665.073920,0.597209
665.385820,0.613874
665.697680,0.603967
666.009500,0.606917
666.321280,0.606030
666.633020,0.607713
666.944720,0.608022
667.256380,0.605653
667.568000,0.606658
667.879580,0.609864
668.191120,0.605082
668.502620,0.604587
668.814080,0.611579
669.125500,0.602463
669.436880,0.602006
669.748220,0.598477
670.059520,0.610644
670.370780,0.607168
670.682000,0.605310
670.993180,0.608879
671.304320,0.609353
671.615420,0.604403
671.926480,0.605749
672.237500,0.603073
672.548480,0.599716
672.859420,0.601144
673.170320,0.611172
673.481180,0.608255
673.792000,0.600072
674.102780,0.599641
674.413520,0.595334
674.724220,0.604356
675.034880,0.612028
675.345500,0.602115
675.656080,0.601452
675.966620,0.603492
676.277120,0.603808
676.587580,0.611193
676.898000,0.614782
677.208380,0.607763
677.518720,0.595915
677.829020,0.600887
678.139280,0.602669
678.449500,0.607501
678.759680,0.602473
679.069820,0.595911
679.379920,0.605809
679.689980,0.597475
680.000000,0.591402
680.309980,0.606162
680.619920,0.609239
680.929820,0.606943
681.239680,0.596750
681.549500,0.604444
681.859280,0.607543
682.169020,0.601268
682.478720,0.603964
682.788380,0.598376
683.098000,0.604338
683.407580,0.600750
683.717120,0.609234
684.026620,0.604292
684.336080,0.605153
684.645500,0.595585
684.954880,0.594635
685.264220,0.600604
685.573520,0.615150
685.882780,0.617185
686.192000,0.607600
686.501180,0.605373
686.810320,0.595311
687.119420,0.600532
687.428480,0.606153
687.737500,0.606677
688.046480,0.596626
688.355420,0.598642
688.664320,0.605203
688.973180,0.599541
689.282000,0.598765
689.590780,0.593558
689.899520,0.590581
690.208220,0.606269
690.516880,0.601375
690.825500,0.595094
691.134080,0.598330
691.442620,0.597561
691.751120,0.604096
692.059580,0.598013
692.368000,0.596365
692.676380,0.612595
692.984720,0.601527
693.293020,0.608663
693.601280,0.607402
693.909500,0.595914
694.217680,0.600152
694.525820,0.603960
694.833920,0.597482
695.141980,0.594678
695.450000,0.600763
695.757980,0.600076
696.065920,0.596505
696.373820,0.593918
696.681680,0.598389
696.989500,0.594751
697.297280,0.588487
697.605020,0.605556
697.912720,0.597233
698.220380,0.598583
698.528000,0.612342
698.835580,0.595022
699.143120,0.590413
699.450620,0.593874
699.758080,0.587059
700.065500,0.594972
700.372880,0.597600
700.680220,0.597128
700.987520,0.598016
701.294780,0.603406
701.602000,0.597068
701.909180,0.600159
702.216320,0.594056
702.523420,0.603394
702.830480,0.607921
703.137500,0.588465
703.444480,0.598028
703.751420,0.601578
704.058320,0.599525
704.365180,0.588722
704.672000,0.598020
704.978780,0.589934
705.285520,0.593114
705.592220,0.593725
705.898880,0.586682
706.205500,0.602113
706.512080,0.604265
706.818620,0.595588
707.125120,0.599615
707.431580,0.578742
707.738000,0.594531
708.044380,0.590892
708.350720,0.593045
708.657020,0.611567
708.963280,0.593944
709.269500,0.594521
709.575680,0.596464
709.881820,0.602201
710.187920,0.594163
710.493980,0.596587
710.800000,0.593059
711.105980,0.588855
711.411920,0.592038
711.717820,0.594932
712.023680,0.585309
712.329500,0.600946
712.635280,0.598837
712.941020,0.599536
713.246720,0.602372
713.552380,0.598509
713.858000,0.589673
714.163580,0.594712
714.469120,0.596327
714.774620,0.601263
715.080080,0.593247
715.385500,0.596723
715.690880,0.589744
715.996220,0.593899
716.301520,0.598814
716.606780,0.593160
716.912000,0.604200
717.217180,0.592578
717.522320,0.596819
717.827420,0.603336
718.132480,0.596548
718.437500,0.588259
718.742480,0.596774
719.047420,0.591424
719.352320,0.600249
719.657180,0.603434
719.962000,0.588503
720.266780,0.589946
720.571520,0.593206
720.876220,0.591653
721.180880,0.596154
721.485500,0.594233
721.790080,0.588535
722.094620,0.594340
722.399120,0.594140
722.703580,0.596228
723.008000,0.591634
723.312380,0.591046
723.616720,0.584360
723.921020,0.582936
724.225280,0.582897
724.529500,0.585377
724.833680,0.596085
725.137820,0.591630
725.441920,0.582702
725.745980,0.585235
726.050000,0.589986
726.353980,0.586751
726.657920,0.590643
726.961820,0.585845
727.265680,0.587147
727.569500,0.581810
727.873280,0.586143
728.177020,0.591893
728.480720,0.590741
728.784380,0.593236
729.088000,0.586434
729.391580,0.582189
729.695120,0.589251
729.998620,0.590822
730.302080,0.582412
730.605500,0.589034
730.908880,0.583048
731.212220,0.589618
731.515520,0.581180
731.818780,0.577184
732.122000,0.581201
732.425180,0.580582
732.728320,0.582053
733.031420,0.580952
733.334480,0.592857
733.637500,0.574597
733.940480,0.591607
734.243420,0.584608
734.546320,0.594917
734.849180,0.578512
735.152000,0.581432
735.454780,0.589360
735.757520,0.586934
736.060220,0.583992
736.362880,0.580882
736.665500,0.572324
736.968080,0.583020
737.270620,0.588459
737.573120,0.582424
737.875580,0.590984
738.178000,0.578661
738.480380,0.576216
738.782720,0.574700
739.085020,0.571586
739.387280,0.571508
739.689500,0.580974
739.991680,0.585065
740.293820,0.585959
740.595920,0.578186
740.897980,0.581028
741.200000,0.571509
741.501980,0.578797
741.803920,0.570946
742.105820,0.581500
742.407680,0.588235
742.709500,0.569886
743.011280,0.572685
743.313020,0.573913
743.614720,0.575740
743.916380,0.570930
744.218000,0.576372
744.519580,0.581522
744.821120,0.583234
745.122620,0.578191
745.424080,0.573918
745.725500,0.583585
746.026880,0.578202
746.328220,0.581998
746.629520,0.558098
746.930780,0.581495
747.232000,0.568363
747.533180,0.576571
747.834320,0.571516
748.135420,0.579863
748.436480,0.580162
748.737500,0.575664
749.038480,0.565058
749.339420,0.579340
749.640320,0.577624
749.941180,0.569644
750.242000,0.585427
750.542780,0.580025
750.843520,0.577835
751.144220,0.568590
751.444880,0.574509
751.745500,0.562987
752.046080,0.588839
752.346620,0.568299
752.647120,0.572175
752.947580,0.559508
753.248000,0.569310
753.548380,0.569291
753.848720,0.569865
754.149020,0.565442
754.449280,0.577807
754.749500,0.577969
755.049680,0.572667
755.349820,0.558372
755.649920,0.567085
755.949980,0.575979
756.250000,0.562788
756.549980,0.563696
756.849920,0.571720
757.149820,0.560213
757.449680,0.570297
757.749500,0.565781
758.049280,0.574744
758.349020,0.578581
758.648720,0.570738
758.948380,0.576632
759.248000,0.570081
759.547580,0.572966
759.847120,0.568573
760.146620,0.570365
760.446080,0.577957
760.745500,0.577622
761.044880,0.562500
761.344220,0.585175
761.643520,0.581215
761.942780,0.575227
762.242000,0.571429
762.541180,0.568310
762.840320,0.582865
763.139420,0.570323
763.438480,0.574163
763.737500,0.558236
764.036480,0.563242
764.335420,0.566690
764.634320,0.567568
764.933180,0.565068
765.232000,0.573907
765.530780,0.568421
765.829520,0.564336
766.128220,0.564370
766.426880,0.575693
766.725500,0.564770
767.024080,0.561728
767.322620,0.558783
767.621120,0.567073
767.919580,0.577474
768.218000,0.569767
768.516380,0.561866
768.814720,0.564472
769.113020,0.578911
769.411280,0.569751
769.709500,0.572395
770.007680,0.556919
770.305820,0.557809
770.603920,0.551213
770.901980,0.562158
771.200000,0.576766
771.497980,0.554290
771.795920,0.558528
772.093820,0.554144
772.391680,0.568886
772.689500,0.566216
772.987280,0.571717
773.285020,0.563226
773.582720,0.567568
773.880380,0.567605
774.178000,0.556919
774.475580,0.568654
774.773120,0.553548
775.070620,0.569304
775.368080,0.571142
775.665500,0.556749
775.962880,0.566378
776.260220,0.565949
776.557520,0.565043
776.854780,0.558485
777.152000,0.553714
777.449180,0.564396
777.746320,0.562500
778.043420,0.554570
778.340480,0.562246
778.637500,0.565923
778.934480,0.570276
779.231420,0.553596
779.528320,0.555778
779.825180,0.553360
780.122000,0.558433
780.418780,0.564295
780.715520,0.566734
781.012220,0.568493
781.308880,0.561866
781.605500,0.562329
781.902080,0.561259
782.198620,0.561859
782.495120,0.555556
782.791580,0.561210
783.088000,0.553485
783.384380,0.559835
783.680720,0.557456
783.977020,0.553338
784.273280,0.569930
784.569500,0.576520
784.865680,0.572323
785.161820,0.563194
785.457920,0.560638
785.753980,0.566643
786.050000,0.546961
786.345980,0.557639
786.641920,0.549618
786.937820,0.569088
787.233680,0.545581
787.529500,0.556865
787.825280,0.572238
788.121020,0.560198
788.416720,0.558927
788.712380,0.557123
789.008000,0.555949
789.303580,0.553357
789.599120,0.562909
789.894620,0.569675
790.190080,0.564902
790.485500,0.560835
790.780880,0.550538
791.076220,0.558442
791.371520,0.559187
791.666780,0.564364
791.962000,0.551065
792.257180,0.548316
792.552320,0.574329
792.847420,0.553130
793.142480,0.562637
793.437500,0.549928
793.732480,0.559620
794.027420,0.548220
794.322320,0.570470
794.617180,0.545319
794.912000,0.552749
795.206780,0.561521
795.501520,0.563498
795.796220,0.544444
796.090880,0.559910
796.385500,0.559970
796.680080,0.550486
796.974620,0.553144
797.269120,0.557911
797.563580,0.558779
797.858000,0.555809
798.152380,0.562258
798.446720,0.551538
798.741020,0.551618
799.035280,0.550466
799.329500,0.557352
799.623680,0.559690
