399.985280,0.391892
400.329500,0.364865
400.673680,0.354430
401.017820,0.338235
401.361920,0.393939
401.705980,0.353659
402.050000,0.376623
402.393980,0.400000
402.737920,0.325843
403.081820,0.371134
403.425680,0.465116
403.769500,0.395833
404.113280,0.425287
404.457020,0.471910
404.800720,0.434783
405.144380,0.464646
405.488000,0.376344
405.831580,0.443299
406.175120,0.393617
406.518620,0.470000
406.862080,0.391753
407.205500,0.385417
407.548880,0.387755
407.892220,0.362745
408.235520,0.425532
408.578780,0.428571
408.922000,0.384615
409.265180,0.484848
409.608320,0.494949
409.951420,0.412371
410.294480,0.431373
410.637500,0.413043
410.980480,0.470588
411.323420,0.418367
411.666320,0.394495
412.009180,0.436364
412.352000,0.376238
412.694780,0.412844
413.037520,0.412844
413.380220,0.441441
413.722880,0.455357
414.065500,0.459459
414.408080,0.415929
414.750620,0.398230
415.093120,0.388430
415.435580,0.462185
415.778000,0.439394
416.120380,0.436975
416.462720,0.444444
416.805020,0.443609
417.147280,0.425373
417.489500,0.421429
417.831680,0.445205
418.173820,0.446809
418.515920,0.454545
418.857980,0.443038
419.200000,0.442308
419.541980,0.402367
419.883920,0.421348
420.225820,0.427746
420.567680,0.452514
420.909500,0.431694
421.251280,0.427083
421.593020,0.448980
421.934720,0.414141
422.276380,0.425641
422.618000,0.441176
422.959580,0.446078
423.301120,0.447489
423.642620,0.413043
423.984080,0.451163
424.325500,0.443946
424.666880,0.413793
425.008220,0.428571
425.349520,0.436441
425.690780,0.457692
426.032000,0.411765
426.373180,0.427386
426.714320,0.449219
427.055420,0.447876
427.396480,0.438202
427.737500,0.418972
428.078480,0.415020
428.419420,0.449799
428.760320,0.440613
429.101180,0.464567
429.442000,0.455939
429.782780,0.453846
430.123520,0.454902
430.464220,0.431734
430.804880,0.455939
431.145500,0.447273
431.486080,0.468165
431.826620,0.476744
432.167120,0.430147
432.507580,0.474638
432.848000,0.449640
433.188380,0.469314
433.528720,0.475472
433.869020,0.457143
434.209280,0.445614
434.549500,0.435540
434.889680,0.461279
435.229820,0.453925
435.569920,0.456747
435.909980,0.440129
436.250000,0.457627
436.589980,0.424149
436.929920,0.476190
437.269820,0.467085
437.609680,0.470414
437.949500,0.436747
438.289280,0.456091
438.629020,0.468023
438.968720,0.470930
439.308380,0.466125
439.648000,0.441096
439.987580,0.447090
440.327120,0.453333
440.666620,0.485714
441.006080,0.473146
441.345500,0.452088
441.684880,0.459330
442.024220,0.468983
442.363520,0.464286
442.702780,0.459091
443.042000,0.462555
443.381180,0.469828
443.720320,0.481641
444.059420,0.457983
444.398480,0.443515
444.737500,0.461066
445.076480,0.454365
445.415420,0.459082
445.754320,0.453222
446.093180,0.445872
446.432000,0.468045
446.770780,0.445920
447.109520,0.481618
447.448220,0.466905
447.786880,0.466905
448.125500,0.463793
448.464080,0.448214
448.802620,0.457447
449.141120,0.467128
449.479580,0.472028
449.818000,0.475043
450.156380,0.459866
450.494720,0.462810
450.833020,0.466783
451.171280,0.474315
451.509500,0.482578
451.847680,0.463744
452.185820,0.480207
452.523920,0.481100
452.861980,0.467116
453.200000,0.473422
453.537980,0.455462
453.875920,0.470588
454.213820,0.472603
454.551680,0.468543
454.889500,0.475548
455.227280,0.451957
455.565020,0.472362
455.902720,0.475874
456.240380,0.460899
456.578000,0.472125
456.915580,0.485320
457.253120,0.453947
457.590620,0.459770
457.928080,0.479798
458.265500,0.496622
458.602880,0.475649
458.940220,0.487310
459.277520,0.449600
459.614780,0.484452
459.952000,0.461180
460.289180,0.481013
460.626320,0.466142
460.963420,0.497577
461.300480,0.487768
461.637500,0.489985
461.974480,0.483180
462.311420,0.493294
462.648320,0.478770
462.985180,0.457676
463.322000,0.486607
463.658780,0.486188
463.995520,0.477304
464.332220,0.495845
464.668880,0.486559
465.005500,0.497319
465.342080,0.498079
465.678620,0.467405
466.015120,0.504528
466.351580,0.506953
466.688000,0.484775
467.024380,0.479951
467.360720,0.487500
467.697020,0.479499
468.033280,0.491111
468.369500,0.491170
468.705680,0.497182
469.041820,0.476042
469.377920,0.488069
469.713980,0.484037
470.050000,0.483092
470.385980,0.486301
470.721920,0.477963
471.057820,0.484405
471.393680,0.487371
471.729500,0.489342
472.065280,0.503578
472.401020,0.484929
472.736720,0.490401
473.072380,0.483842
473.408000,0.488251
473.743580,0.493945
474.079120,0.502153
474.414620,0.497880
474.750080,0.491456
475.085500,0.491776
475.420880,0.489592
475.756220,0.489779
476.091520,0.497869
476.426780,0.483819
476.762000,0.492357
477.097180,0.504800
477.432320,0.491922
477.767420,0.496732
478.102480,0.490551
478.437500,0.492611
478.772480,0.485422
479.107420,0.489015
479.442320,0.483613
479.777180,0.500398
480.112000,0.478428
480.446780,0.488698
480.781520,0.487118
481.116220,0.495554
481.450880,0.482436
481.785500,0.495253
482.120080,0.494514
482.454620,0.490287
482.789120,0.500796
483.123580,0.486760
483.458000,0.488924
483.792380,0.507188
484.126720,0.505792
484.461020,0.501952
484.795280,0.501157
485.129500,0.501169
485.463680,0.497674
485.797820,0.501555
486.131920,0.499617
486.465980,0.504247
486.800000,0.511450
487.133980,0.503776
487.467920,0.511859
487.801820,0.511060
488.135680,0.500379
488.469500,0.500000
488.803280,0.508172
489.137020,0.504029
489.470720,0.512611
489.804380,0.508537
490.138000,0.514837
490.471580,0.504790
490.805120,0.508220
491.138620,0.505330
491.472080,0.506007
491.805500,0.506974
492.138880,0.506602
492.472220,0.505190
492.805520,0.512570
493.138780,0.519642
493.472000,0.492308
493.805180,0.521828
494.138320,0.525017
494.471420,0.505859
494.804480,0.501294
495.137500,0.519897
495.470480,0.518802
495.803420,0.505668
496.136320,0.514411
496.469180,0.508901
496.802000,0.506724
497.134780,0.523954
497.467520,0.533945
497.800220,0.516509
498.132880,0.507937
498.465500,0.524913
498.798080,0.517123
499.130620,0.527793
499.463120,0.522179
499.795580,0.507151
500.128000,0.519346
500.460380,0.519914
500.792720,0.521739
501.125020,0.515502
501.457280,0.525326
501.789500,0.525826
502.121680,0.533437
502.453820,0.522183
502.785920,0.528264
503.117980,0.521099
503.450000,0.530387
503.781980,0.528151
504.113920,0.514936
504.445820,0.522606
504.777680,0.516235
505.109500,0.525000
505.441280,0.522945
505.773020,0.528887
506.104720,0.520019
506.436380,0.523426
506.768000,0.535080
507.099580,0.520366
507.431120,0.530211
507.762620,0.522086
508.094080,0.514129
508.425500,0.526144
508.756880,0.535894
509.088220,0.526679
509.419520,0.523743
509.750780,0.526242
510.082000,0.534515
510.413180,0.520958
510.744320,0.532904
511.075420,0.521998
511.406480,0.533615
511.737500,0.534259
512.068480,0.534774
512.399420,0.524413
512.730320,0.522402
513.061180,0.515699
513.392000,0.531472
513.722780,0.535543
514.053520,0.533301
514.384220,0.529496
514.714880,0.528483
515.045500,0.530651
515.376080,0.540436
515.706620,0.525085
516.037120,0.532843
516.367580,0.525875
516.698000,0.529412
517.028380,0.535750
517.358720,0.532840
517.689020,0.538576
518.019280,0.537883
518.349500,0.541814
518.679680,0.526502
519.009820,0.542510
519.339920,0.536573
519.669980,0.522351
520.000000,0.533877
520.329980,0.541731
520.659920,0.543456
520.989820,0.529412
521.319680,0.543724
521.649500,0.532648
521.979280,0.543319
522.309020,0.534751
522.638720,0.536098
522.968380,0.551189
523.298000,0.534969
523.627580,0.534920
523.957120,0.535584
524.286620,0.541428
524.616080,0.546019
524.945500,0.541602
525.274880,0.547973
525.604220,0.540373
525.933520,0.544025
526.262780,0.528130
526.592000,0.543379
526.921180,0.535297
527.250320,0.540842
527.579420,0.545730
527.908480,0.539143
528.237500,0.542205
528.566480,0.547405
528.895420,0.556432
529.224320,0.547301
529.553180,0.548434
529.882000,0.554745
530.210780,0.544884
530.539520,0.547939
530.868220,0.547630
531.196880,0.552795
531.525500,0.548668
531.854080,0.542214
532.182620,0.545072
532.511120,0.543387
532.839580,0.554900
533.168000,0.547402
533.496380,0.551142
533.824720,0.551817
534.153020,0.547927
534.481280,0.542291
534.809500,0.558927
535.137680,0.555122
535.465820,0.545533
535.793920,0.551184
536.121980,0.557281
536.450000,0.559408
536.777980,0.560117
537.105920,0.555002
537.433820,0.550736
537.761680,0.557143
538.089500,0.560097
538.417280,0.549144
538.745020,0.559033
539.072720,0.548223
539.400380,0.552059
539.728000,0.556023
540.055580,0.556180
540.383120,0.555473
540.710620,0.562128
541.038080,0.561048
541.365500,0.553676
541.692880,0.556686
542.020220,0.557755
542.347520,0.564250
542.674780,0.561397
543.002000,0.560532
543.329180,0.563311
543.656320,0.562236
543.983420,0.557265
544.310480,0.556235
544.637500,0.562607
544.964480,0.557201
545.291420,0.556331
545.618320,0.563081
545.945180,0.564272
546.272000,0.568152
546.598780,0.556211
546.925520,0.559512
547.252220,0.562892
547.578880,0.561095
547.905500,0.569281
548.232080,0.572775
548.558620,0.555158
548.885120,0.564606
549.211580,0.560913
549.538000,0.564851
549.864380,0.562379
550.190720,0.567646
550.517020,0.559322
550.843280,0.565147
551.169500,0.564885
551.495680,0.564717
551.821820,0.564664
552.147920,0.566363
552.473980,0.563385
552.800000,0.558862
553.125980,0.571054
553.451920,0.563039
553.777820,0.569953
554.103680,0.572632
554.429500,0.566789
554.755280,0.570761
555.081020,0.562500
555.406720,0.566881
555.732380,0.563538
556.058000,0.566191
556.383580,0.563506
556.709120,0.562371
557.034620,0.572511
557.360080,0.569948
557.685500,0.565353
558.010880,0.569151
558.336220,0.566608
558.661520,0.559731
558.986780,0.574770
559.312000,0.573362
559.637180,0.571634
559.962320,0.568886
560.287420,0.569464
560.612480,0.569429
560.937500,0.578928
561.262480,0.566349
561.587420,0.564382
561.912320,0.567060
562.237180,0.565507
562.562000,0.563412
562.886780,0.572650
563.211520,0.562966
563.536220,0.565863
563.860880,0.575632
564.185500,0.570732
564.510080,0.578631
564.834620,0.572758
565.159120,0.568421
565.483580,0.570886
565.808000,0.573212
566.132380,0.573667
566.456720,0.572562
566.781020,0.569017
567.105280,0.566730
567.429500,0.573596
567.753680,0.584964
568.077820,0.574797
568.401920,0.584416
568.725980,0.579127
569.050000,0.576046
569.373980,0.570613
569.697920,0.571862
570.021820,0.582397
570.345680,0.567164
570.669500,0.573827
570.993280,0.570690
571.317020,0.567044
571.640720,0.582808
571.964380,0.578693
572.288000,0.575297
572.611580,0.576189
572.935120,0.578750
573.258620,0.577786
573.582080,0.579732
573.905500,0.584140
574.228880,0.581663
574.552220,0.579333
574.875520,0.567759
575.198780,0.577159
575.522000,0.569648
575.845180,0.574140
576.168320,0.573482
576.491420,0.586119
576.814480,0.576854
577.137500,0.586580
577.460480,0.578833
577.783420,0.586281
578.106320,0.586895
578.429180,0.581124
578.752000,0.575894
579.074780,0.580580
579.397520,0.585862
579.720220,0.582368
580.042880,0.586389
580.365500,0.587359
580.688080,0.590570
581.010620,0.592305
581.333120,0.587174
581.655580,0.596737
581.978000,0.587629
582.300380,0.574813
582.622720,0.580092
582.945020,0.580624
583.267280,0.588408
583.589500,0.588443
583.911680,0.588441
584.233820,0.585458
584.555920,0.583675
584.877980,0.588882
585.200000,0.578883
585.521980,0.585110
585.843920,0.590909
586.165820,0.584400
586.487680,0.582004
586.809500,0.579958
587.131280,0.585034
587.453020,0.594643
587.774720,0.586044
588.096380,0.584014
588.418000,0.585309
588.739580,0.595286
589.061120,0.599770
589.382620,0.589685
589.704080,0.584853
590.025500,0.591039
590.346880,0.591062
590.668220,0.588911
590.989520,0.583749
591.310780,0.597349
591.632000,0.591257
591.953180,0.591475
592.274320,0.588043
592.595420,0.585129
592.916480,0.585439
593.237500,0.591215
593.558480,0.591606
593.879420,0.588616
594.200320,0.592553
594.521180,0.591235
594.842000,0.591080
595.162780,0.590011
595.483520,0.595320
595.804220,0.592911
596.124880,0.595257
596.445500,0.587634
596.766080,0.605001
597.086620,0.595276
597.407120,0.591890
597.727580,0.594802
598.048000,0.590056
598.368380,0.594424
598.688720,0.591612
599.009020,0.585191
599.329280,0.594465
599.649500,0.592974
599.969680,0.597222
600.289820,0.599359
600.609920,0.589100
600.929980,0.589257
601.250000,0.594054
601.569980,0.591952
601.889920,0.587543
602.209820,0.592532
602.529680,0.601208
602.849500,0.591653
603.169280,0.599890
603.489020,0.593136
603.808720,0.585848
604.128380,0.596854
604.448000,0.593923
604.767580,0.588547
605.087120,0.587258
605.406620,0.593059
605.726080,0.600228
606.045500,0.589301
606.364880,0.590870
606.684220,0.595945
607.003520,0.596044
607.322780,0.592098
607.642000,0.595922
607.961180,0.590633
608.280320,0.596288
608.599420,0.590382
608.918480,0.593842
609.237500,0.591843
609.556480,0.600769
609.875420,0.588895
610.194320,0.586064
610.513180,0.593963
610.832000,0.592019
611.150780,0.592070
611.469520,0.596380
611.788220,0.599758
612.106880,0.588661
612.425500,0.595615
612.744080,0.602339
613.062620,0.595413
613.381120,0.594455
613.699580,0.590435
614.018000,0.591216
614.336380,0.602714
614.654720,0.599070
614.973020,0.595495
615.291280,0.603037
615.609500,0.606022
615.927680,0.588690
616.245820,0.591528
616.563920,0.595586
616.881980,0.598067
617.200000,0.590980
617.517980,0.589919
617.835920,0.584964
618.153820,0.589058
618.471680,0.592868
618.789500,0.596287
619.107280,0.595618
619.425020,0.592134
619.742720,0.593848
620.060380,0.589157
620.378000,0.595972
620.695580,0.595785
621.013120,0.588346
621.330620,0.599623
621.648080,0.590536
621.965500,0.586888
622.282880,0.597415
622.600220,0.587492
622.917520,0.603655
623.234780,0.598843
623.552000,0.596117
623.869180,0.592184
624.186320,0.593123
624.503420,0.594671
624.820480,0.598178
625.137500,0.604673
625.454480,0.597687
625.771420,0.587957
626.088320,0.596784
626.405180,0.601431
626.722000,0.594103
627.038780,0.592732
627.355520,0.598125
627.672220,0.599378
627.988880,0.595023
628.305500,0.602368
628.622080,0.606258
628.938620,0.593578
629.255120,0.602676
629.571580,0.603126
629.888000,0.591899
630.204380,0.593434
630.520720,0.586837
630.837020,0.601603
631.153280,0.595024
631.469500,0.598848
631.785680,0.602773
632.101820,0.598311
632.417920,0.593741
632.733980,0.601441
633.050000,0.602486
633.365980,0.600178
633.681920,0.600537
633.997820,0.600120
634.313680,0.599233
634.629500,0.594515
634.945280,0.592375
635.261020,0.593190
635.576720,0.599824
635.892380,0.591054
636.208000,0.601685
636.523580,0.597778
636.839120,0.599884
637.154620,0.597971
637.470080,0.592253
637.785500,0.607268
638.100880,0.605560
638.416220,0.599655
638.731520,0.591691
639.046780,0.597437
639.362000,0.587443
639.677180,0.591091
639.992320,0.599944
640.307420,0.594549
640.622480,0.600952
640.937500,0.596394
641.252480,0.609327
641.567420,0.607559
641.882320,0.597160
642.197180,0.608366
642.512000,0.600056
642.826780,0.603329
643.141520,0.606835
643.456220,0.596569
643.770880,0.603096
644.085500,0.600056
644.400080,0.603933
644.714620,0.605909
645.029120,0.599560
645.343580,0.600658
645.658000,0.598668
645.972380,0.604275
646.286720,0.601254
646.601020,0.604207
646.915280,0.605978
647.229500,0.607692
647.543680,0.597349
647.857820,0.595376
648.171920,0.601194
648.485980,0.599616
648.800000,0.594379
649.113980,0.603936
649.427920,0.605270
649.741820,0.598791
650.055680,0.598738
650.369500,0.607623
650.683280,0.596837
650.997020,0.603685
651.310720,0.597688
651.624380,0.595879
651.938000,0.601385
652.251580,0.596994
652.565120,0.601453
652.878620,0.598818
653.192080,0.603371
653.505500,0.598036
653.818880,0.608189
654.132220,0.600399
654.445520,0.595292
654.758780,0.598300
655.072000,0.594269
655.385180,0.584879
655.698320,0.592741
656.011420,0.597879
656.324480,0.596619
656.637500,0.593569
656.950480,0.590429
657.263420,0.595921
657.576320,0.597095
657.889180,0.603952
658.202000,0.602959
658.514780,0.598392
658.827520,0.596038
659.140220,0.590950
659.452880,0.595288
659.765500,0.596328
660.078080,0.591032
660.390620,0.598228
660.703120,0.599145
661.015580,0.595399
661.328000,0.607053
661.640380,0.598322
661.952720,0.596699
662.265020,0.598299
662.577280,0.599237
662.889500,0.592242
663.201680,0.598915
663.513820,0.592795
663.825920,0.593980
664.137980,0.605365
664.450000,0.592072
664.761980,0.592471
665.073920,0.590393
665.385820,0.600131
665.697680,0.602645
666.009500,0.601596
666.321280,0.602717
666.633020,0.595412
666.944720,0.604988
667.256380,0.590848
667.568000,0.592391
667.879580,0.603741
668.191120,0.592376
668.502620,0.594317
668.814080,0.598596
669.125500,0.594595
669.436880,0.593361
669.748220,0.591208
670.059520,0.589636
670.370780,0.593946
670.682000,0.596106
670.993180,0.608175
671.304320,0.589311
671.615420,0.597656
671.926480,0.593329
672.237500,0.585566
672.548480,0.596167
672.859420,0.593638
673.170320,0.599202
673.481180,0.598479
673.792000,0.597908
674.102780,0.579892
674.413520,0.594604
674.724220,0.598548
675.034880,0.606894
675.345500,0.591904
675.656080,0.586933
675.966620,0.591488
676.277120,0.588429
676.587580,0.590206
676.898000,0.597238
677.208380,0.586691
677.518720,0.582786
677.829020,0.589800
678.139280,0.599333
678.449500,0.593390
678.759680,0.587861
679.069820,0.589963
679.379920,0.597888
679.689980,0.591534
680.000000,0.587290
680.309980,0.594655
680.619920,0.598637
680.929820,0.593505
681.239680,0.588257
681.549500,0.585185
681.859280,0.603062
682.169020,0.591943
682.478720,0.592745
682.788380,0.593946
683.098000,0.586387
683.407580,0.591745
683.717120,0.586336
684.026620,0.582078
684.336080,0.582039
684.645500,0.579873
684.954880,0.590480
685.264220,0.597206
685.573520,0.596498
685.882780,0.597622
686.192000,0.592175
686.501180,0.592130
686.810320,0.591468
687.119420,0.592170
687.428480,0.586783
687.737500,0.602456
688.046480,0.598160
688.355420,0.594115
688.664320,0.590666
688.973180,0.586907
689.282000,0.599151
689.590780,0.593175
689.899520,0.576149
690.208220,0.590596
690.516880,0.596029
690.825500,0.588679
691.134080,0.584282
691.442620,0.592988
691.751120,0.596132
692.059580,0.595720
692.368000,0.582355
692.676380,0.597710
692.984720,0.595420
693.293020,0.585486
693.601280,0.597482
693.909500,0.587212
694.217680,0.592917
694.525820,0.589109
694.833920,0.588707
695.141980,0.587736
695.450000,0.583206
695.757980,0.582124
696.065920,0.586796
696.373820,0.591609
696.681680,0.576525
696.989500,0.588962
697.297280,0.585375
697.605020,0.597222
697.912720,0.578786
698.220380,0.588745
698.528000,0.587816
698.835580,0.580403
699.143120,0.580281
699.450620,0.580748
699.758080,0.578431
700.065500,0.584597
700.372880,0.592800
700.680220,0.585162
700.987520,0.587302
701.294780,0.595296
701.602000,0.585182
701.909180,0.594992
702.216320,0.582714
702.523420,0.587609
702.830480,0.594455
703.137500,0.583398
703.444480,0.585404
703.751420,0.587377
704.058320,0.593194
704.365180,0.583991
704.672000,0.590495
704.978780,0.590714
705.285520,0.582551
705.592220,0.580784
705.898880,0.587076
706.205500,0.583725
706.512080,0.582148
706.818620,0.590170
707.125120,0.585385
707.431580,0.583040
707.738000,0.593359
708.044380,0.577769
708.350720,0.583493
708.657020,0.596327
708.963280,0.582686
709.269500,0.579648
709.575680,0.583890
709.881820,0.576651
710.187920,0.582879
710.493980,0.586113
710.800000,0.570175
711.105980,0.573042
711.411920,0.580607
711.717820,0.577388
712.023680,0.584920
712.329500,0.595820
712.635280,0.593023
712.941020,0.596057
713.246720,0.583399
713.552380,0.589482
713.858000,0.580213
714.163580,0.573796
714.469120,0.574834
714.774620,0.580340
715.080080,0.582254
715.385500,0.588329
715.690880,0.575148
715.996220,0.586767
716.301520,0.585375
716.606780,0.582547
716.912000,0.579968
717.217180,0.583799
717.522320,0.582107
717.827420,0.585435
718.132480,0.570052
718.437500,0.576437
718.742480,0.573387
719.047420,0.579288
719.352320,0.589871
719.657180,0.579722
719.962000,0.572787
720.266780,0.577898
720.571520,0.574979
720.876220,0.577741
721.180880,0.579849
721.485500,0.579189
721.790080,0.574522
722.094620,0.586621
722.399120,0.589832
722.703580,0.576940
723.008000,0.583010
723.312380,0.569953
723.616720,0.575436
723.921020,0.576873
724.225280,0.572862
724.529500,0.574869
724.833680,0.585409
725.137820,0.574890
725.441920,0.573339
725.745980,0.574944
726.050000,0.572395
726.353980,0.579991
726.657920,0.580297
726.961820,0.578539
727.265680,0.579288
727.569500,0.574954
727.873280,0.568591
728.177020,0.582220
728.480720,0.573148
728.784380,0.581963
729.088000,0.575601
729.391580,0.574135
729.695120,0.587332
729.998620,0.580306
730.302080,0.581932
730.605500,0.576419
730.908880,0.574228
731.212220,0.571988
731.515520,0.566553
731.818780,0.568932
732.122000,0.579724
732.425180,0.569246
732.728320,0.564204
733.031420,0.572431
733.334480,0.570408
733.637500,0.563004
733.940480,0.571136
734.243420,0.565240
734.546320,0.589212
734.849180,0.569215
735.152000,0.566909
735.454780,0.569731
735.757520,0.568493
736.060220,0.567667
736.362880,0.573529
736.665500,0.551436
736.968080,0.563138
737.270620,0.574850
737.573120,0.568777
737.875580,0.581638
738.178000,0.573762
738.480380,0.564865
738.782720,0.569248
739.085020,0.570485
739.387280,0.569845
739.689500,0.566251
739.991680,0.576642
740.293820,0.576562
740.595920,0.566500
740.897980,0.571429
741.200000,0.565339
741.501980,0.573639
741.803920,0.560248
742.105820,0.570220
742.407680,0.573675
742.709500,0.560795
743.011280,0.571512
743.313020,0.562319
743.614720,0.568195
743.916380,0.560465
744.218000,0.576969
744.519580,0.568237
744.821120,0.571257
745.122620,0.556621
745.424080,0.563101
745.725500,0.564273
746.026880,0.563424
746.328220,0.562269
746.629520,0.556893
746.930780,0.564951
747.232000,0.560392
747.533180,0.574131
747.834320,0.566038
748.135420,0.559975
748.436480,0.570805
748.737500,0.565164
749.038480,0.563836
749.339420,0.573118
749.640320,0.570082
749.941180,0.567146
750.242000,0.567211
750.542780,0.570099
750.843520,0.569507
751.144220,0.553205
751.444880,0.555485
751.745500,0.564935
752.046080,0.576652
752.346620,0.561856
752.647120,0.561724
752.947580,0.572445
753.248000,0.557060
753.548380,0.567990
753.848720,0.567289
754.149020,0.553836
754.449280,0.562049
754.749500,0.556072
755.049680,0.556667
755.349820,0.552368
755.649920,0.565102
755.949980,0.555408
756.250000,0.556870
756.549980,0.549175
756.849920,0.569680
757.149820,0.557552
757.449680,0.557096
757.749500,0.560327
758.049280,0.570648
758.349020,0.542420
758.648720,0.559006
758.948380,0.564948
759.248000,0.555256
759.547580,0.561533
759.847120,0.552722
760.146620,0.550744
760.446080,0.561828
760.745500,0.550350
761.044880,0.558239
761.344220,0.563792
761.643520,0.560734
761.942780,0.545836
762.242000,0.557992
762.541180,0.554930
762.840320,0.561096
763.139420,0.561181
763.438480,0.557075
763.737500,0.552033
764.036480,0.554857
764.335420,0.548342
764.634320,0.550243
764.933180,0.546575
765.232000,0.551700
765.530780,0.549474
765.829520,0.559441
766.128220,0.558803
766.426880,0.562900
766.725500,0.559973
767.024080,0.552126
767.322620,0.557400
767.621120,0.557588
767.919580,0.566553
768.218000,0.556772
768.516380,0.562542
768.814720,0.548011
769.113020,0.546520
769.411280,0.555249
769.709500,0.555480
770.007680,0.549421
770.305820,0.552400
770.603920,0.547844
770.901980,0.543716
771.200000,0.552989
771.497980,0.543566
771.795920,0.546488
772.093820,0.547460
772.391680,0.554384
772.689500,0.561486
772.987280,0.558249
773.285020,0.557075
773.582720,0.543919
773.880380,0.555937
774.178000,0.562372
774.475580,0.558607
774.773120,0.549531
775.070620,0.553076
775.368080,0.545090
775.665500,0.537945
775.962880,0.551701
776.260220,0.561911
776.557520,0.557705
776.854780,0.557809
777.152000,0.552387
777.449180,0.549562
777.746320,0.545699
778.043420,0.551160
778.340480,0.556157
778.637500,0.545639
778.934480,0.538668
779.231420,0.537313
779.528320,0.539078
779.825180,0.540184
780.122000,0.541833
780.418780,0.552668
780.715520,0.547954
781.012220,0.551370
781.308880,0.551048
781.605500,0.551370
781.902080,0.541410
782.198620,0.544087
782.495120,0.552126
782.791580,0.561898
783.088000,0.545204
783.384380,0.539890
783.680720,0.540356
783.977020,0.540262
784.273280,0.557343
784.569500,0.554158
784.865680,0.549374
785.161820,0.546528
785.457920,0.536383
785.753980,0.540823
786.050000,0.551105
786.345980,0.548611
786.641920,0.546842
786.937820,0.555556
787.233680,0.549756
787.529500,0.545076
787.825280,0.548867
788.121020,0.539660
788.416720,0.537050
788.712380,0.550071
789.008000,0.543201
789.303580,0.545583
789.599120,0.552727
789.894620,0.549458
790.190080,0.545323
790.485500,0.544276
790.780880,0.547670
791.076220,0.538961
791.371520,0.536674
791.666780,0.556364
791.962000,0.540779
792.257180,0.550512
792.552320,0.556925
792.847420,0.543668
793.142480,0.552381
793.437500,0.530391
793.732480,0.542063
794.027420,0.546736
794.322320,0.546607
794.617180,0.532689
794.912000,0.546062
795.206780,0.536167
795.501520,0.549810
795.796220,0.537778
796.090880,0.533534
796.385500,0.538231
796.680080,0.536275
796.974620,0.538174
797.269120,0.531416
797.563580,0.541985
797.858000,0.534548
798.152380,0.550657
798.446720,0.546154
798.741020,0.538521
799.035280,0.534938
799.329500,0.544265
799.623680,0.548062
