399.985280,0.364865
400.329500,0.405405
400.673680,0.455696
401.017820,0.397059
401.361920,0.409091
401.705980,0.487805
402.050000,0.337662
402.393980,0.423529
402.737920,0.483146
403.081820,0.391753
403.425680,0.395349
403.769500,0.354167
404.113280,0.344828
404.457020,0.438202
404.800720,0.413043
405.144380,0.444444
405.488000,0.365591
405.831580,0.391753
406.175120,0.446809
406.518620,0.400000
406.862080,0.484536
407.205500,0.437500
407.548880,0.428571
407.892220,0.450980
408.235520,0.446809
408.578780,0.447619
408.922000,0.442308
409.265180,0.484848
409.608320,0.424242
409.951420,0.474227
410.294480,0.519608
410.637500,0.413043
410.980480,0.411765
411.323420,0.459184
411.666320,0.532110
412.009180,0.554545
412.352000,0.465347
412.694780,0.467890
413.037520,0.422018
413.380220,0.441441
413.722880,0.491071
414.065500,0.486486
414.408080,0.477876
414.750620,0.469027
415.093120,0.446281
415.435580,0.487395
415.778000,0.462121
416.120380,0.453782
416.462720,0.468254
416.805020,0.488722
417.147280,0.492537
417.489500,0.464286
417.831680,0.445205
418.173820,0.439716
418.515920,0.489510
418.857980,0.487342
419.200000,0.480769
419.541980,0.443787
419.883920,0.455056
420.225820,0.473988
420.567680,0.463687
420.909500,0.459016
421.251280,0.468750
421.593020,0.459184
421.934720,0.444444
422.276380,0.482051
422.618000,0.460784
422.959580,0.500000
423.301120,0.497717
423.642620,0.443478
423.984080,0.437209
424.325500,0.484305
424.666880,0.422414
425.008220,0.449580
425.349520,0.483051
425.690780,0.450000
426.032000,0.450980
426.373180,0.431535
426.714320,0.453125
427.055420,0.451737
427.396480,0.468165
427.737500,0.466403
428.078480,0.454545
428.419420,0.465863
428.760320,0.452107
429.101180,0.503937
429.442000,0.490421
429.782780,0.446154
430.123520,0.482353
430.464220,0.472325
430.804880,0.528736
431.145500,0.418182
431.486080,0.490637
431.826620,0.515504
432.167120,0.477941
432.507580,0.492754
432.848000,0.449640
433.188380,0.498195
433.528720,0.505660
433.869020,0.478571
434.209280,0.456140
434.549500,0.459930
434.889680,0.481481
435.229820,0.481229
435.569920,0.470588
435.909980,0.469256
436.250000,0.501695
436.589980,0.452012
436.929920,0.479365
437.269820,0.473354
437.609680,0.502959
437.949500,0.469880
438.289280,0.467422
438.629020,0.459302
438.968720,0.468023
439.308380,0.433604
439.648000,0.482192
439.987580,0.489418
440.327120,0.501333
440.666620,0.462338
441.006080,0.473146
441.345500,0.469287
441.684880,0.485646
442.024220,0.473945
442.363520,0.476190
442.702780,0.472727
443.042000,0.491189
443.381180,0.484914
443.720320,0.498920
444.059420,0.457983
444.398480,0.449791
444.737500,0.479508
445.076480,0.456349
445.415420,0.461078
445.754320,0.465696
446.093180,0.489908
446.432000,0.484962
446.770780,0.487666
447.109520,0.496324
447.448220,0.477639
447.786880,0.490161
448.125500,0.498276
448.464080,0.467857
448.802620,0.485816
449.141120,0.482699
449.479580,0.487762
449.818000,0.488812
450.156380,0.483278
450.494720,0.482645
450.833020,0.491259
451.171280,0.496575
451.509500,0.503484
451.847680,0.482293
452.185820,0.497418
452.523920,0.503436
452.861980,0.499157
453.200000,0.470100
453.537980,0.463866
453.875920,0.490756
454.213820,0.489726
454.551680,0.481788
454.889500,0.494098
455.227280,0.478648
455.565020,0.492462
455.902720,0.509151
456.240380,0.469218
456.578000,0.491289
456.915580,0.497409
457.253120,0.473684
457.590620,0.484401
457.928080,0.489899
458.265500,0.506757
458.602880,0.480519
458.940220,0.499154
459.277520,0.480000
459.614780,0.502455
459.952000,0.482919
460.289180,0.503165
460.626320,0.503937
460.963420,0.495961
461.300480,0.490826
461.637500,0.491525
461.974480,0.515291
462.311420,0.499255
462.648320,0.484627
462.985180,0.487805
463.322000,0.505952
463.658780,0.477901
463.995520,0.488308
464.332220,0.500000
464.668880,0.500000
465.005500,0.500000
465.342080,0.492958
465.678620,0.495695
466.015120,0.507115
466.351580,0.504425
466.688000,0.512789
467.024380,0.499392
467.360720,0.504545
467.697020,0.506834
468.033280,0.510000
468.369500,0.515453
468.705680,0.502818
469.041820,0.494792
469.377920,0.502169
469.713980,0.495366
470.050000,0.496618
470.385980,0.497065
470.721920,0.494613
471.057820,0.501949
471.393680,0.495790
471.729500,0.508804
472.065280,0.496422
472.401020,0.503546
472.736720,0.501745
473.072380,0.508079
473.408000,0.510009
473.743580,0.501730
474.079120,0.505599
474.414620,0.506361
474.750080,0.490643
475.085500,0.493421
475.420880,0.507077
475.756220,0.494685
476.091520,0.500426
476.426780,0.502427
476.762000,0.510056
477.097180,0.496800
477.432320,0.505654
477.767420,0.498366
478.102480,0.511024
478.437500,0.506568
478.772480,0.492514
479.107420,0.498779
479.442320,0.501998
479.777180,0.506762
480.112000,0.499230
480.446780,0.502728
480.781520,0.497585
481.116220,0.509297
481.450880,0.498829
481.785500,0.511076
482.120080,0.507837
482.454620,0.513598
482.789120,0.516720
483.123580,0.503894
483.458000,0.505538
483.792380,0.515974
484.126720,0.510425
484.461020,0.505855
484.795280,0.515035
485.129500,0.512860
485.463680,0.507752
485.797820,0.529549
486.131920,0.504973
486.465980,0.511969
486.800000,0.522137
487.133980,0.513595
487.467920,0.517215
487.801820,0.514874
488.135680,0.520849
488.469500,0.512103
488.803280,0.510401
489.137020,0.507692
489.470720,0.514095
489.804380,0.515219
490.138000,0.525223
490.471580,0.526898
490.805120,0.512509
491.138620,0.512438
491.472080,0.513074
491.805500,0.511158
492.138880,0.512856
492.472220,0.524567
492.805520,0.522346
493.138780,0.529979
493.472000,0.523077
493.805180,0.533424
494.138320,0.521681
494.471420,0.517578
494.804480,0.520699
495.137500,0.525674
495.470480,0.527725
495.803420,0.513854
496.136320,0.524436
496.469180,0.516882
496.802000,0.517726
497.134780,0.526986
497.467520,0.541896
497.800220,0.524175
498.132880,0.523222
498.465500,0.524334
498.798080,0.522831
499.130620,0.517125
499.463120,0.529478
499.795580,0.522552
500.128000,0.528065
500.460380,0.518299
500.792720,0.529692
501.125020,0.528114
501.457280,0.534726
501.789500,0.531508
502.121680,0.536029
502.453820,0.537481
502.785920,0.529765
503.117980,0.528950
503.450000,0.534405
503.781980,0.529646
504.113920,0.511617
504.445820,0.527467
504.777680,0.526588
505.109500,0.527404
505.441280,0.535373
505.773020,0.527947
506.104720,0.527555
506.436380,0.535258
506.768000,0.529935
507.099580,0.532265
507.431120,0.537705
507.762620,0.527726
508.094080,0.523701
508.425500,0.536881
508.756880,0.538637
509.088220,0.528519
509.419520,0.529330
509.750780,0.530928
510.082000,0.533582
510.413180,0.540765
510.744320,0.520479
511.075420,0.522915
511.406480,0.531735
511.737500,0.524074
512.068480,0.521147
512.399420,0.531925
512.730320,0.527021
513.061180,0.542341
513.392000,0.535731
513.722780,0.549472
514.053520,0.529468
514.384220,0.529971
514.714880,0.530397
515.045500,0.525383
515.376080,0.540920
515.706620,0.531905
516.037120,0.531373
516.367580,0.525382
516.698000,0.531863
517.028380,0.533764
517.358720,0.543704
517.689020,0.538081
518.019280,0.542398
518.349500,0.540801
518.679680,0.552246
519.009820,0.539474
519.339920,0.544589
519.669980,0.531894
520.000000,0.540499
520.329980,0.541213
520.659920,0.531186
520.989820,0.537152
521.319680,0.545782
521.649500,0.541902
521.979280,0.543841
522.309020,0.538382
522.638720,0.540195
522.968380,0.542399
523.298000,0.540710
523.627580,0.533368
523.957120,0.546494
524.286620,0.541428
524.616080,0.537746
524.945500,0.547287
525.274880,0.548486
525.604220,0.546584
525.933520,0.534591
526.262780,0.538267
526.592000,0.548453
526.921180,0.547994
527.250320,0.539320
527.579420,0.547246
527.908480,0.542590
528.237500,0.550645
528.566480,0.550898
528.895420,0.549532
529.224320,0.556216
529.553180,0.546988
529.882000,0.558151
530.210780,0.542471
530.539520,0.553212
530.868220,0.549545
531.196880,0.542284
531.525500,0.557385
531.854080,0.551126
532.182620,0.544138
532.511120,0.556845
532.839580,0.562613
533.168000,0.550593
533.496380,0.552968
533.824720,0.557201
534.153020,0.556398
534.481280,0.552423
534.809500,0.566403
535.137680,0.549045
535.465820,0.553694
535.793920,0.552030
536.121980,0.550986
536.450000,0.545455
536.777980,0.561793
537.105920,0.558323
537.433820,0.552373
537.761680,0.555918
538.089500,0.559288
538.417280,0.545961
538.745020,0.561410
539.072720,0.557985
539.400380,0.562160
539.728000,0.560612
540.055580,0.552809
540.383120,0.559568
540.710620,0.554687
541.038080,0.566212
541.365500,0.565441
541.692880,0.561410
542.020220,0.558114
542.347520,0.564609
542.674780,0.562103
543.002000,0.559482
543.329180,0.559453
543.656320,0.558720
543.983420,0.557949
544.310480,0.558274
544.637500,0.560901
544.964480,0.553499
545.291420,0.560984
545.618320,0.559097
545.945180,0.554713
546.272000,0.555374
546.598780,0.563422
546.925520,0.562809
547.252220,0.563882
547.578880,0.563376
547.905500,0.564706
548.232080,0.559454
548.558620,0.561015
548.885120,0.562643
549.211580,0.559627
549.538000,0.568093
549.864380,0.561415
550.190720,0.564417
550.517020,0.566167
550.843280,0.566450
551.169500,0.551209
551.495680,0.576216
551.821820,0.565970
552.147920,0.557905
552.473980,0.563056
552.800000,0.560170
553.125980,0.562868
553.451920,0.569675
553.777820,0.570620
554.103680,0.568588
554.429500,0.566120
554.755280,0.560748
555.081020,0.566511
555.406720,0.560108
555.732380,0.570993
556.058000,0.569246
556.383580,0.567271
556.709120,0.560303
557.034620,0.563555
557.360080,0.558895
557.685500,0.562932
558.010880,0.558752
558.336220,0.563796
558.661520,0.568593
558.986780,0.569809
559.312000,0.563034
559.637180,0.570916
559.962320,0.565326
560.287420,0.576164
560.612480,0.572659
560.937500,0.571953
561.262480,0.574780
561.587420,0.566195
561.912320,0.570376
562.237180,0.571058
562.562000,0.567901
562.886780,0.568562
563.211520,0.564829
563.536220,0.571800
563.860880,0.577141
564.185500,0.564353
564.510080,0.567720
564.834620,0.568292
565.159120,0.567293
565.483580,0.565564
565.808000,0.565645
566.132380,0.569191
566.456720,0.569917
566.781020,0.569767
567.105280,0.570510
567.429500,0.576252
567.753680,0.586498
568.077820,0.569385
568.401920,0.583270
568.725980,0.579886
569.050000,0.568061
569.373980,0.572136
569.697920,0.573379
570.021820,0.573034
570.345680,0.569078
570.669500,0.569630
570.993280,0.575489
571.317020,0.561929
571.640720,0.577621
571.964380,0.574610
572.288000,0.575297
572.611580,0.569450
572.935120,0.573139
573.258620,0.572550
573.582080,0.574143
573.905500,0.574088
574.228880,0.573125
574.552220,0.584097
574.875520,0.562547
575.198780,0.569931
575.522000,0.579179
575.845180,0.569484
576.168320,0.564139
576.491420,0.581759
576.814480,0.575045
577.137500,0.579726
577.460480,0.582457
577.783420,0.576277
578.106320,0.581909
578.429180,0.580771
578.752000,0.580757
579.074780,0.574174
579.397520,0.576178
579.720220,0.571429
580.042880,0.585068
580.365500,0.573461
580.688080,0.585821
581.010620,0.574755
581.333120,0.579158
581.655580,0.586414
581.978000,0.577652
582.300380,0.579357
582.622720,0.580422
582.945020,0.578349
583.267280,0.585803
583.589500,0.574960
583.911680,0.582090
584.233820,0.575071
584.555920,0.579263
584.877980,0.577889
585.200000,0.566605
585.521980,0.582329
585.843920,0.583588
586.165820,0.578915
586.487680,0.578694
586.809500,0.581458
587.131280,0.564330
587.453020,0.587500
587.774720,0.581017
588.096380,0.580805
588.418000,0.584431
588.739580,0.585801
589.061120,0.584819
589.382620,0.581662
589.704080,0.581206
590.025500,0.591039
590.346880,0.582631
590.668220,0.583590
590.989520,0.581531
591.310780,0.585750
591.632000,0.591530
591.953180,0.575422
592.274320,0.581491
592.595420,0.576239
592.916480,0.581635
593.237500,0.579898
593.558480,0.583266
593.879420,0.588346
594.200320,0.586927
594.521180,0.581408
594.842000,0.595648
595.162780,0.586271
595.483520,0.584153
595.804220,0.588346
596.124880,0.586731
596.445500,0.584490
596.766080,0.593708
597.086620,0.590499
597.407120,0.577672
597.727580,0.587643
598.048000,0.587675
598.368380,0.585218
598.688720,0.587418
599.009020,0.583068
599.329280,0.581692
599.649500,0.582673
599.969680,0.587607
600.289820,0.590812
600.609920,0.586161
600.929980,0.583645
601.250000,0.581081
601.569980,0.586011
601.889920,0.583801
602.209820,0.581439
602.529680,0.594617
602.849500,0.579651
603.169280,0.584459
603.489020,0.591752
603.808720,0.578991
604.128380,0.583885
604.448000,0.581492
604.767580,0.586592
605.087120,0.577562
605.406620,0.591380
605.726080,0.588537
606.045500,0.573976
606.364880,0.586618
606.684220,0.584809
607.003520,0.582856
607.322780,0.582149
607.642000,0.582998
607.961180,0.576756
608.280320,0.583817
608.599420,0.575319
608.918480,0.587390
609.237500,0.587441
609.556480,0.589819
609.875420,0.581807
610.194320,0.580159
610.513180,0.584197
610.832000,0.583085
611.150780,0.589967
611.469520,0.582805
611.788220,0.590387
612.106880,0.584741
612.425500,0.580390
612.744080,0.595260
613.062620,0.579511
613.381120,0.587142
613.699580,0.576334
614.018000,0.591830
614.336380,0.591919
614.654720,0.592868
614.973020,0.585313
615.291280,0.585683
615.609500,0.597147
615.927680,0.582509
616.245820,0.578541
616.563920,0.580044
616.881980,0.584659
617.200000,0.585692
617.517980,0.575918
617.835920,0.579683
618.153820,0.582530
618.471680,0.583566
618.789500,0.588735
619.107280,0.582473
619.425020,0.586743
619.742720,0.587257
620.060380,0.581636
620.378000,0.588106
620.695580,0.592273
621.013120,0.587402
621.330620,0.582366
621.648080,0.573502
621.965500,0.582183
622.282880,0.581021
622.600220,0.582754
622.917520,0.581916
623.234780,0.600450
623.552000,0.590070
623.869180,0.587142
624.186320,0.590258
624.503420,0.595298
624.820480,0.586868
625.137500,0.583518
625.454480,0.589872
625.771420,0.593317
626.088320,0.586381
626.405180,0.585252
626.722000,0.587202
627.038780,0.592732
627.355520,0.588750
627.672220,0.579782
627.988880,0.583515
628.305500,0.591150
628.622080,0.589529
628.938620,0.586850
629.255120,0.589608
629.571580,0.581980
629.888000,0.579012
630.204380,0.586069
630.520720,0.583181
630.837020,0.585877
631.153280,0.589329
631.469500,0.590661
631.785680,0.593731
632.101820,0.591375
632.417920,0.575857
632.733980,0.590036
633.050000,0.596119
633.365980,0.588322
633.681920,0.578759
633.997820,0.590855
634.313680,0.582719
634.629500,0.583899
634.945280,0.588270
635.261020,0.593484
635.576720,0.591016
635.892380,0.583793
636.208000,0.586578
636.523580,0.590471
636.839120,0.591199
637.154620,0.583478
637.470080,0.587661
637.785500,0.595838
638.100880,0.592528
638.416220,0.587288
638.731520,0.583381
639.046780,0.584329
639.362000,0.590596
639.677180,0.589092
639.992320,0.590076
640.307420,0.586682
640.622480,0.579390
640.937500,0.583911
641.252480,0.593130
641.567420,0.589088
641.882320,0.574332
642.197180,0.590960
642.512000,0.589701
642.826780,0.596949
643.141520,0.594610
643.456220,0.591312
643.770880,0.593698
644.085500,0.593907
644.400080,0.598876
644.714620,0.586678
645.029120,0.581408
645.343580,0.587219
645.658000,0.593672
645.972380,0.593313
646.286720,0.592259
646.601020,0.589815
646.915280,0.590348
647.229500,0.589286
647.543680,0.584645
647.857820,0.587944
648.171920,0.585458
648.485980,0.587558
648.800000,0.583081
649.113980,0.587029
649.427920,0.595562
649.741820,0.583677
650.055680,0.591882
650.369500,0.593330
650.683280,0.593230
650.997020,0.590209
651.310720,0.583379
651.624380,0.581319
651.938000,0.590582
652.251580,0.586975
652.565120,0.591392
652.878620,0.593750
653.192080,0.587360
653.505500,0.587097
653.818880,0.588854
654.132220,0.585588
654.445520,0.580545
654.758780,0.579603
655.072000,0.578797
655.385180,0.579743
655.698320,0.587025
656.011420,0.576383
656.324480,0.582629
656.637500,0.583720
656.950480,0.578978
657.263420,0.581732
657.576320,0.587607
657.889180,0.580655
658.202000,0.586957
658.514780,0.590950
658.827520,0.584934
659.140220,0.582859
659.452880,0.588946
659.765500,0.584889
660.078080,0.578092
660.390620,0.576535
660.703120,0.585090
661.015580,0.588650
661.328000,0.588791
661.640380,0.578130
661.952720,0.583619
662.265020,0.584751
662.577280,0.582379
662.889500,0.577420
663.201680,0.585833
663.513820,0.586041
663.825920,0.578610
664.137980,0.585973
664.450000,0.578005
664.761980,0.580033
665.073920,0.575138
665.385820,0.588678
665.697680,0.583140
666.009500,0.590622
666.321280,0.583499
666.633020,0.581117
666.944720,0.588473
667.256380,0.580754
667.568000,0.581522
667.879580,0.584014
668.191120,0.586882
668.502620,0.579596
668.814080,0.580000
669.125500,0.584673
669.436880,0.581259
669.748220,0.575632
670.059520,0.590336
670.370780,0.583507
670.682000,0.578053
670.993180,0.582100
671.304320,0.574191
671.615420,0.579190
671.926480,0.573811
672.237500,0.574134
672.548480,0.573101
672.859420,0.572194
673.170320,0.589409
673.481180,0.591238
673.792000,0.585287
674.102780,0.570916
674.413520,0.581116
674.724220,0.585481
675.034880,0.584892
675.345500,0.583516
675.656080,0.579310
675.966620,0.581666
676.277120,0.580007
676.587580,0.578056
676.898000,0.574095
677.208380,0.577819
677.518720,0.580598
677.829020,0.580931
678.139280,0.577094
678.449500,0.581879
678.759680,0.574747
679.069820,0.577323
679.379920,0.586948
679.689980,0.574081
680.000000,0.579439
680.309980,0.580178
680.619920,0.582734
680.929820,0.578574
681.239680,0.571270
681.549500,0.576296
681.859280,0.582151
682.169020,0.582245
682.478720,0.582648
682.788380,0.570690
683.098000,0.573672
683.407580,0.577486
683.717120,0.579580
684.026620,0.573419
684.336080,0.580523
684.645500,0.567901
684.954880,0.580280
685.264220,0.579841
685.573520,0.585459
685.882780,0.586114
686.192000,0.571482
686.501180,0.573212
686.810320,0.584166
687.119420,0.578487
687.428480,0.567034
687.737500,0.580967
688.046480,0.577837
688.355420,0.576009
688.664320,0.574598
688.973180,0.574273
689.282000,0.581404
689.590780,0.574770
689.899520,0.564375
690.208220,0.581422
690.516880,0.579611
690.825500,0.573962
691.134080,0.574412
691.442620,0.568598
691.751120,0.568828
692.059580,0.573940
692.368000,0.579705
692.676380,0.576336
692.984720,0.570611
693.293020,0.573328
693.601280,0.569248
693.909500,0.576996
694.217680,0.573496
694.525820,0.572734
694.833920,0.565815
695.141980,0.575781
695.450000,0.572137
695.757980,0.571429
696.065920,0.578252
696.373820,0.574673
696.681680,0.568853
696.989500,0.571208
697.297280,0.565539
697.605020,0.581349
697.912720,0.563028
698.220380,0.566312
698.528000,0.570807
698.835580,0.575662
699.143120,0.563523
699.450620,0.560461
699.758080,0.559608
700.065500,0.571429
700.372880,0.573600
700.680220,0.566813
700.987520,0.573016
701.294780,0.575831
701.602000,0.577258
701.909180,0.581081
702.216320,0.564724
702.523420,0.581689
702.830480,0.586535
703.137500,0.568200
703.444480,0.570020
703.751420,0.578698
704.058320,0.577760
704.365180,0.567823
704.672000,0.572673
704.978780,0.564963
705.285520,0.572379
705.592220,0.568235
705.898880,0.561466
706.205500,0.567293
706.512080,0.575434
706.818620,0.569659
707.125120,0.573462
707.431580,0.564283
707.738000,0.576953
708.044380,0.570822
708.350720,0.570501
708.657020,0.573271
708.963280,0.570264
709.269500,0.569080
709.575680,0.579568
709.881820,0.570755
710.187920,0.575486
710.493980,0.567106
710.800000,0.570557
711.105980,0.554217
711.411920,0.565235
711.717820,0.571150
712.023680,0.561990
712.329500,0.575710
712.635280,0.572868
712.941020,0.571318
713.246720,0.569565
713.552380,0.558477
713.858000,0.567205
714.163580,0.561563
714.469120,0.564283
714.774620,0.570865
715.080080,0.562623
715.385500,0.569544
715.690880,0.564103
715.996220,0.569334
716.301520,0.571542
716.606780,0.568003
716.912000,0.573506
717.217180,0.570231
717.522320,0.566600
717.827420,0.571196
718.132480,0.564432
718.437500,0.562169
718.742480,0.566532
719.047420,0.559061
719.352320,0.571191
719.657180,0.575634
719.962000,0.567411
720.266780,0.563357
720.571520,0.561309
720.876220,0.561375
721.180880,0.563127
721.485500,0.564563
721.790080,0.566030
722.094620,0.572899
722.399120,0.570875
722.703580,0.561937
723.008000,0.557999
723.312380,0.560913
723.616720,0.554186
723.921020,0.556085
724.225280,0.566318
724.529500,0.551226
724.833680,0.576068
725.137820,0.562996
725.441920,0.554614
725.745980,0.567785
726.050000,0.560668
726.353980,0.550699
726.657920,0.551957
726.961820,0.560274
727.265680,0.566343
727.569500,0.553931
727.873280,0.549192
728.177020,0.566559
728.480720,0.552778
728.784380,0.564115
729.088000,0.554875
729.391580,0.558503
729.695120,0.561420
729.998620,0.556883
730.302080,0.557905
730.605500,0.551674
730.908880,0.556590
731.212220,0.556317
731.515520,0.561190
731.818780,0.547087
732.122000,0.554626
732.425180,0.558403
732.728320,0.562221
733.031420,0.546366
733.334480,0.561224
733.637500,0.544355
733.940480,0.550154
734.243420,0.551478
734.546320,0.560166
734.849180,0.550103
735.152000,0.556017
735.454780,0.557335
735.757520,0.551633
736.060220,0.557135
736.362880,0.560924
736.665500,0.539426
736.968080,0.553466
737.270620,0.565052
737.573120,0.554039
737.875580,0.561847
738.178000,0.551443
738.480380,0.560000
738.782720,0.546892
739.085020,0.555617
739.387280,0.554878
739.689500,0.554926
739.991680,0.559236
740.293820,0.541183
740.595920,0.550918
740.897980,0.558442
741.200000,0.549635
741.501980,0.558166
741.803920,0.543919
742.105820,0.546531
742.407680,0.555038
742.709500,0.536364
743.011280,0.551583
743.313020,0.553623
743.614720,0.551364
743.916380,0.542442
744.218000,0.549523
744.519580,0.553140
744.821120,0.558683
745.122620,0.548232
745.424080,0.544471
745.725500,0.539529
746.026880,0.551724
746.328220,0.565968
746.629520,0.540638
746.930780,0.544118
747.232000,0.546904
747.533180,0.544234
747.834320,0.545344
748.135420,0.540087
748.436480,0.548347
748.737500,0.538604
749.038480,0.549786
749.339420,0.553205
749.640320,0.551226
749.941180,0.545909
750.242000,0.528266
750.542780,0.536600
750.843520,0.550929
751.144220,0.535256
751.444880,0.544705
751.745500,0.544156
752.046080,0.556126
752.346620,0.542526
752.647120,0.540823
752.947580,0.546572
753.248000,0.537718
753.548380,0.543917
753.848720,0.541533
754.149020,0.531270
754.449280,0.544977
754.749500,0.539482
755.049680,0.538000
755.349820,0.540360
755.649920,0.539987
755.949980,0.540810
756.250000,0.552268
756.549980,0.530693
756.849920,0.547247
757.149820,0.533599
757.449680,0.542574
757.749500,0.541922
758.049280,0.543345
758.349020,0.537552
758.648720,0.541753
758.948380,0.540206
759.248000,0.532345
759.547580,0.530599
759.847120,0.535493
760.146620,0.533829
760.446080,0.545699
760.745500,0.537762
761.044880,0.546165
761.344220,0.546686
761.643520,0.536017
761.942780,0.540238
762.242000,0.545969
762.541180,0.538732
762.840320,0.546348
763.139420,0.533755
763.438480,0.549556
763.737500,0.542385
764.036480,0.533194
764.335420,0.539167
764.634320,0.541927
764.933180,0.532192
765.232000,0.542679
765.530780,0.534737
765.829520,0.530769
766.128220,0.544885
766.426880,0.546553
766.725500,0.538725
767.024080,0.534294
767.322620,0.547026
767.621120,0.534553
767.919580,0.527645
768.218000,0.534884
768.516380,0.535497
768.814720,0.535665
769.113020,0.538939
769.411280,0.534530
769.709500,0.545332
770.007680,0.526926
770.305820,0.533469
770.603920,0.530323
770.901980,0.530738
771.200000,0.520380
771.497980,0.522788
771.795920,0.536455
772.093820,0.524064
772.391680,0.528016
772.689500,0.527703
772.987280,0.540741
773.285020,0.539986
773.582720,0.529054
773.880380,0.542896
774.178000,0.539196
774.475580,0.538513
774.773120,0.529451
775.070620,0.536173
775.368080,0.537074
775.665500,0.532572
775.962880,0.529019
776.260220,0.532974
776.557520,0.536358
776.854780,0.541582
777.152000,0.517241
777.449180,0.538773
777.746320,0.528898
778.043420,0.532060
778.340480,0.539919
778.637500,0.534145
778.934480,0.530599
779.231420,0.529851
779.528320,0.523046
779.825180,0.517128
780.122000,0.526560
780.418780,0.533516
780.715520,0.525822
781.012220,0.541096
781.308880,0.532116
781.605500,0.527397
781.902080,0.524983
782.198620,0.530417
782.495120,0.542524
782.791580,0.535076
783.088000,0.530021
783.384380,0.530949
783.680720,0.526676
783.977020,0.525120
784.273280,0.539161
784.569500,0.535290
784.865680,0.535466
785.161820,0.524306
785.457920,0.531532
785.753980,0.521982
786.050000,0.520718
786.345980,0.513889
786.641920,0.532269
786.937820,0.538462
787.233680,0.523312
787.529500,0.522885
787.825280,0.535411
788.121020,0.514164
788.416720,0.520113
788.712380,0.523977
789.008000,0.522663
789.303580,0.519435
789.599120,0.541818
789.894620,0.529242
790.190080,0.527919
790.485500,0.529158
790.780880,0.526882
791.076220,0.530303
791.371520,0.527959
791.666780,0.536727
791.962000,0.515797
792.257180,0.523426
792.552320,0.527194
792.847420,0.526201
793.142480,0.536996
793.437500,0.531114
793.732480,0.533285
794.027420,0.521513
794.322320,0.519761
794.617180,0.523031
794.912000,0.518574
795.206780,0.522744
795.501520,0.527757
795.796220,0.522963
796.090880,0.532027
796.385500,0.521739
796.680080,0.528048
796.974620,0.521707
797.269120,0.517033
797.563580,0.516031
797.858000,0.523159
798.152380,0.526682
798.446720,0.529231
798.741020,0.516949
799.035280,0.511646
799.329500,0.520400
799.623680,0.529457
