399.985280,0.432432
400.329500,0.405405
400.673680,0.443038
401.017820,0.397059
401.361920,0.439394
401.705980,0.402439
402.050000,0.428571
402.393980,0.423529
402.737920,0.460674
403.081820,0.402062
403.425680,0.418605
403.769500,0.447917
404.113280,0.425287
404.457020,0.483146
404.800720,0.434783
405.144380,0.464646
405.488000,0.451613
405.831580,0.463918
406.175120,0.436170
406.518620,0.380000
406.862080,0.432990
407.205500,0.385417
407.548880,0.428571
407.892220,0.411765
408.235520,0.425532
408.578780,0.409524
408.922000,0.384615
409.265180,0.525253
409.608320,0.434343
409.951420,0.463918
410.294480,0.460784
410.637500,0.434783
410.980480,0.470588
411.323420,0.408163
411.666320,0.467890
412.009180,0.463636
412.352000,0.396040
412.694780,0.495413
413.037520,0.458716
413.380220,0.495495
413.722880,0.500000
414.065500,0.477477
414.408080,0.477876
414.750620,0.442478
415.093120,0.438017
415.435580,0.470588
415.778000,0.462121
416.120380,0.462185
416.462720,0.452381
416.805020,0.496241
417.147280,0.455224
417.489500,0.535714
417.831680,0.479452
418.173820,0.446809
418.515920,0.468531
418.857980,0.487342
419.200000,0.493590
419.541980,0.443787
419.883920,0.455056
420.225820,0.491329
420.567680,0.452514
420.909500,0.475410
421.251280,0.494792
421.593020,0.479592
421.934720,0.454545
422.276380,0.512821
422.618000,0.470588
422.959580,0.490196
423.301120,0.493151
423.642620,0.434783
423.984080,0.493023
424.325500,0.502242
424.666880,0.435345
425.008220,0.483193
425.349520,0.478814
425.690780,0.465385
426.032000,0.447059
426.373180,0.489627
426.714320,0.480469
427.055420,0.478764
427.396480,0.468165
427.737500,0.486166
428.078480,0.466403
428.419420,0.477912
428.760320,0.448276
429.101180,0.496063
429.442000,0.452107
429.782780,0.473077
430.123520,0.494118
430.464220,0.472325
430.804880,0.513410
431.145500,0.450909
431.486080,0.468165
431.826620,0.488372
432.167120,0.470588
432.507580,0.507246
432.848000,0.464029
433.188380,0.494585
433.528720,0.505660
433.869020,0.496429
434.209280,0.456140
434.549500,0.477352
434.889680,0.481481
435.229820,0.470990
435.569920,0.477509
435.909980,0.449838
436.250000,0.498305
436.589980,0.430341
436.929920,0.492063
437.269820,0.479624
437.609680,0.470414
437.949500,0.512048
438.289280,0.481586
438.629020,0.505814
438.968720,0.485465
439.308380,0.509485
439.648000,0.490411
439.987580,0.500000
440.327120,0.498667
440.666620,0.509091
441.006080,0.493606
441.345500,0.491400
441.684880,0.492823
442.024220,0.481390
442.363520,0.480952
442.702780,0.479545
443.042000,0.493392
443.381180,0.480603
443.720320,0.496760
444.059420,0.487395
444.398480,0.483264
444.737500,0.502049
445.076480,0.484127
445.415420,0.493014
445.754320,0.486486
446.093180,0.484404
446.432000,0.501880
446.770780,0.499051
447.109520,0.507353
447.448220,0.504472
447.786880,0.488372
448.125500,0.487931
448.464080,0.475000
448.802620,0.496454
449.141120,0.522491
449.479580,0.505245
449.818000,0.502582
450.156380,0.498328
450.494720,0.487603
450.833020,0.491259
451.171280,0.501712
451.509500,0.513937
451.847680,0.499157
452.185820,0.497418
452.523920,0.489691
452.861980,0.495784
453.200000,0.486711
453.537980,0.477311
453.875920,0.500840
454.213820,0.505137
454.551680,0.483444
454.889500,0.483980
455.227280,0.485765
455.565020,0.502513
455.902720,0.502496
456.240380,0.482529
456.578000,0.520906
456.915580,0.492228
457.253120,0.485197
457.590620,0.490969
457.928080,0.510101
458.265500,0.538851
458.602880,0.487013
458.940220,0.510998
459.277520,0.489600
459.614780,0.517185
459.952000,0.492236
460.289180,0.507911
460.626320,0.510236
460.963420,0.505654
461.300480,0.506116
461.637500,0.497689
461.974480,0.510703
462.311420,0.511177
462.648320,0.496340
462.985180,0.493544
463.322000,0.505952
463.658780,0.491713
463.995520,0.500688
464.332220,0.511080
464.668880,0.500000
465.005500,0.508043
465.342080,0.517286
465.678620,0.510455
466.015120,0.508409
466.351580,0.517067
466.688000,0.514007
467.024380,0.498177
467.360720,0.507955
467.697020,0.518223
468.033280,0.516667
468.369500,0.515453
468.705680,0.518602
469.041820,0.507292
469.377920,0.506508
469.713980,0.496395
470.050000,0.505314
470.385980,0.493151
470.721920,0.517140
471.057820,0.519493
471.393680,0.498597
471.729500,0.516219
472.065280,0.513417
472.401020,0.499113
472.736720,0.513962
473.072380,0.500898
473.408000,0.497824
473.743580,0.501730
474.079120,0.509905
474.414620,0.514843
474.750080,0.498779
475.085500,0.510691
475.420880,0.513739
475.756220,0.496321
476.091520,0.512361
476.426780,0.511327
476.762000,0.493966
477.097180,0.512000
477.432320,0.507270
477.767420,0.519608
478.102480,0.517323
478.437500,0.495895
478.772480,0.504334
479.107420,0.505289
479.442320,0.514788
479.777180,0.525855
480.112000,0.496148
480.446780,0.505846
480.781520,0.515298
481.116220,0.527890
481.450880,0.508977
481.785500,0.519778
482.120080,0.521944
482.454620,0.515929
482.789120,0.515127
483.123580,0.510903
483.458000,0.509494
483.792380,0.527157
484.126720,0.515058
484.461020,0.519126
484.795280,0.515806
485.129500,0.524552
485.463680,0.512403
485.797820,0.520995
486.131920,0.519510
486.465980,0.535135
486.800000,0.516794
487.133980,0.524169
487.467920,0.524866
487.801820,0.533181
488.135680,0.524640
488.469500,0.510590
488.803280,0.522288
489.137020,0.509890
489.470720,0.517804
489.804380,0.522643
490.138000,0.535608
490.471580,0.541636
490.805120,0.521086
491.138620,0.516702
491.472080,0.508834
491.805500,0.523013
492.138880,0.528145
492.472220,0.510035
492.805520,0.517458
493.138780,0.527912
493.472000,0.513712
493.805180,0.525239
494.138320,0.530354
494.471420,0.526042
494.804480,0.525873
495.137500,0.520539
495.470480,0.521351
495.803420,0.523929
496.136320,0.536967
496.469180,0.519337
496.802000,0.522616
497.134780,0.532444
497.467520,0.538226
497.800220,0.528302
498.132880,0.530276
498.465500,0.533024
498.798080,0.522260
499.130620,0.530601
499.463120,0.532285
499.795580,0.530803
500.128000,0.529700
500.460380,0.532293
500.792720,0.522800
501.125020,0.534419
501.457280,0.528982
501.789500,0.525826
502.121680,0.549508
502.453820,0.521673
502.785920,0.540770
503.117980,0.540726
503.450000,0.539930
503.781980,0.532636
504.113920,0.530583
504.445820,0.531356
504.777680,0.522353
505.109500,0.530769
505.441280,0.530115
505.773020,0.532175
506.104720,0.535563
506.436380,0.533365
506.768000,0.533209
507.099580,0.531350
507.431120,0.536768
507.762620,0.534774
508.094080,0.533273
508.425500,0.538282
508.756880,0.538180
509.088220,0.533579
509.419520,0.534916
509.750780,0.540300
510.082000,0.537313
510.413180,0.532013
510.744320,0.526921
511.075420,0.530247
511.406480,0.539257
511.737500,0.526389
512.068480,0.531955
512.399420,0.535681
512.730320,0.525635
513.061180,0.538059
513.392000,0.533365
513.722780,0.543708
514.053520,0.539051
514.384220,0.536632
514.714880,0.535184
515.045500,0.527299
515.376080,0.539952
515.706620,0.541159
516.037120,0.546569
516.367580,0.532775
516.698000,0.529902
517.028380,0.537239
517.358720,0.555556
517.689020,0.542038
518.019280,0.540893
518.349500,0.543335
518.679680,0.542655
519.009820,0.534919
519.339920,0.544589
519.669980,0.522351
520.000000,0.530820
520.329980,0.556247
520.659920,0.536810
520.989820,0.543860
521.319680,0.541667
521.649500,0.537275
521.979280,0.552714
522.309020,0.539938
522.638720,0.537634
522.968380,0.545502
523.298000,0.538100
523.627580,0.543197
523.957120,0.546494
524.286620,0.531527
524.616080,0.531024
524.945500,0.542119
525.274880,0.552078
525.604220,0.544513
525.933520,0.546646
526.262780,0.529143
526.592000,0.547438
526.921180,0.550025
527.250320,0.545408
527.579420,0.542193
527.908480,0.549483
528.237500,0.546177
528.566480,0.555888
528.895420,0.548053
529.224320,0.542843
529.553180,0.546506
529.882000,0.554258
530.210780,0.545367
530.539520,0.551294
530.868220,0.553375
531.196880,0.547062
531.525500,0.560775
531.854080,0.535647
532.182620,0.542270
532.511120,0.552668
532.839580,0.573049
533.168000,0.550593
533.496380,0.558447
533.824720,0.549125
534.153020,0.557735
534.481280,0.543172
534.809500,0.557168
535.137680,0.557726
535.465820,0.547251
535.793920,0.546108
536.121980,0.553924
536.450000,0.555603
536.777980,0.565563
537.105920,0.554587
537.433820,0.551964
537.761680,0.560816
538.089500,0.561311
538.417280,0.548747
538.745020,0.558241
539.072720,0.559157
539.400380,0.560995
539.728000,0.555641
540.055580,0.555431
540.383120,0.557334
540.710620,0.555060
541.038080,0.559572
541.365500,0.554779
541.692880,0.558866
542.020220,0.569270
542.347520,0.570352
542.674780,0.557163
543.002000,0.558782
543.329180,0.560505
543.656320,0.563643
543.983420,0.550085
544.310480,0.553177
544.637500,0.569089
544.964480,0.556528
545.291420,0.559654
545.618320,0.560093
545.945180,0.557350
546.272000,0.556684
546.598780,0.556211
546.925520,0.557864
547.252220,0.557280
547.578880,0.561421
547.905500,0.560131
548.232080,0.566927
548.558620,0.557110
548.885120,0.557082
549.211580,0.555127
549.538000,0.566472
549.864380,0.555949
550.190720,0.562803
550.517020,0.563885
550.843280,0.561238
551.169500,0.550891
551.495680,0.562418
551.821820,0.558459
552.147920,0.558881
552.473980,0.561409
552.800000,0.557881
553.125980,0.559267
553.451920,0.567684
553.777820,0.571286
554.103680,0.568588
554.429500,0.565785
554.755280,0.563084
555.081020,0.552807
555.406720,0.554690
555.732380,0.554049
556.058000,0.563136
556.383580,0.562479
556.709120,0.551344
557.034620,0.563555
557.360080,0.558549
557.685500,0.565353
558.010880,0.560832
558.336220,0.568014
558.661520,0.570011
558.986780,0.565202
559.312000,0.568020
559.637180,0.569120
559.962320,0.559986
560.287420,0.568406
560.612480,0.566559
560.937500,0.573421
561.262480,0.571114
561.587420,0.561843
561.912320,0.567060
562.237180,0.565137
562.562000,0.562290
562.886780,0.577480
563.211520,0.559613
563.536220,0.559926
563.860880,0.560543
564.185500,0.558724
564.510080,0.557938
564.834620,0.559360
565.159120,0.561278
565.483580,0.556823
565.808000,0.557700
566.132380,0.559120
566.456720,0.569161
566.781020,0.558515
567.105280,0.555009
567.429500,0.570182
567.753680,0.566168
568.077820,0.561654
568.401920,0.569137
568.725980,0.561290
569.050000,0.568061
569.373980,0.562238
569.697920,0.568449
570.021820,0.566667
570.345680,0.561806
570.669500,0.570393
570.993280,0.568475
571.317020,0.566313
571.640720,0.564283
571.964380,0.559762
572.288000,0.565653
572.611580,0.574691
572.935120,0.564534
573.258620,0.567315
573.582080,0.567437
573.905500,0.572599
574.228880,0.578322
574.552220,0.570539
574.875520,0.565525
575.198780,0.564872
575.522000,0.570748
575.845180,0.556948
576.168320,0.567014
576.491420,0.576308
576.814480,0.569259
577.137500,0.573593
577.460480,0.569409
577.783420,0.571275
578.106320,0.573718
578.429180,0.570520
578.752000,0.567211
579.074780,0.574174
579.397520,0.567463
579.720220,0.574968
580.042880,0.581103
580.365500,0.579087
580.688080,0.578697
581.010620,0.585555
581.333120,0.570140
581.655580,0.572428
581.978000,0.572996
582.300380,0.569296
582.622720,0.568556
582.945020,0.576073
583.267280,0.576685
583.589500,0.569181
583.911680,0.577009
584.233820,0.568146
584.555920,0.577687
584.877980,0.582915
585.200000,0.567833
585.521980,0.576151
585.843920,0.580842
586.165820,0.576782
586.487680,0.572976
586.809500,0.578158
587.131280,0.569358
587.453020,0.578571
587.774720,0.577469
588.096380,0.566219
588.418000,0.587357
588.739580,0.578327
589.061120,0.573318
589.382620,0.573639
589.704080,0.577560
590.025500,0.579909
590.346880,0.580944
590.668220,0.570428
590.989520,0.569329
591.310780,0.577465
591.632000,0.577322
591.953180,0.573761
592.274320,0.575485
592.595420,0.570043
592.916480,0.574844
593.237500,0.572352
593.558480,0.586494
593.879420,0.578635
594.200320,0.583713
594.521180,0.586985
594.842000,0.580333
595.162780,0.576122
595.483520,0.578835
595.804220,0.581901
596.124880,0.582734
596.445500,0.569033
596.766080,0.589137
597.086620,0.579883
597.407120,0.570037
597.727580,0.582604
598.048000,0.573658
598.368380,0.577328
598.688720,0.578244
599.009020,0.580414
599.329280,0.586748
599.649500,0.575541
599.969680,0.581998
600.289820,0.583600
600.609920,0.584291
600.929980,0.582042
601.250000,0.582162
601.569980,0.576019
601.889920,0.578188
602.209820,0.576840
602.529680,0.582532
602.849500,0.573104
603.169280,0.578947
603.489020,0.581234
603.808720,0.578168
604.128380,0.577539
604.448000,0.574586
604.767580,0.576816
605.087120,0.568698
605.406620,0.579065
605.726080,0.589107
606.045500,0.575369
606.364880,0.582648
606.684220,0.571959
607.003520,0.574255
607.322780,0.576748
607.642000,0.578978
607.961180,0.576756
608.280320,0.577726
608.599420,0.577057
608.918480,0.580645
609.237500,0.574824
609.556480,0.579461
609.875420,0.575015
610.194320,0.575140
610.513180,0.572655
610.832000,0.581298
611.150780,0.583058
611.469520,0.574962
611.788220,0.582527
612.106880,0.575694
612.425500,0.572777
612.744080,0.584180
613.062620,0.566361
613.381120,0.578915
613.699580,0.572042
614.018000,0.574631
614.336380,0.582357
614.654720,0.581705
614.973020,0.574205
615.291280,0.582584
615.609500,0.583518
615.927680,0.570766
616.245820,0.576994
616.563920,0.571340
616.881980,0.576863
617.200000,0.578538
617.517980,0.574362
617.835920,0.576887
618.153820,0.571029
618.471680,0.571783
618.789500,0.578666
619.107280,0.578404
619.425020,0.582937
619.742720,0.576899
620.060380,0.570354
620.378000,0.573631
620.695580,0.583014
621.013120,0.576378
621.330620,0.580169
621.648080,0.570347
621.965500,0.574028
622.282880,0.572825
622.600220,0.574226
622.917520,0.580025
623.234780,0.590164
623.552000,0.578931
623.869180,0.575165
624.186320,0.573703
624.503420,0.576803
624.820480,0.576500
625.137500,0.575308
625.454480,0.574867
625.771420,0.581337
626.088320,0.576293
626.405180,0.578407
626.722000,0.581242
627.038780,0.572368
627.355520,0.573438
627.672220,0.576361
627.988880,0.580404
628.305500,0.580243
628.622080,0.584882
628.938620,0.577370
629.255120,0.576851
629.571580,0.569108
629.888000,0.580239
630.204380,0.583001
630.520720,0.581048
630.837020,0.579093
631.153280,0.579137
631.469500,0.579745
631.785680,0.579867
632.101820,0.579011
632.417920,0.575559
632.733980,0.578031
633.050000,0.586719
633.365980,0.580913
633.681920,0.585621
633.997820,0.580395
634.313680,0.583899
634.629500,0.578001
634.945280,0.582111
635.261020,0.582624
635.576720,0.578978
635.892380,0.576242
636.208000,0.579024
636.523580,0.582578
636.839120,0.582224
637.154620,0.579130
637.470080,0.576758
637.785500,0.580891
638.100880,0.578338
638.416220,0.572045
638.731520,0.575645
639.046780,0.583163
639.362000,0.578842
639.677180,0.570531
639.992320,0.579081
640.307420,0.575724
640.622480,0.581910
640.937500,0.577809
641.252480,0.586987
641.567420,0.581699
641.882320,0.580178
642.197180,0.580853
642.512000,0.578505
642.826780,0.577531
643.141520,0.580161
643.456220,0.579967
643.770880,0.582642
644.085500,0.584405
644.400080,0.584551
644.714620,0.581382
645.029120,0.580858
645.343580,0.581185
645.658000,0.584790
645.972380,0.587284
646.286720,0.578087
646.601020,0.576252
646.915280,0.584042
647.229500,0.581593
647.543680,0.581607
647.857820,0.584090
648.171920,0.574335
648.485980,0.581803
648.800000,0.579498
649.113980,0.579823
649.427920,0.584743
649.741820,0.578730
650.055680,0.579813
650.369500,0.579596
650.683280,0.577137
650.997020,0.575083
651.310720,0.577325
651.624380,0.578571
651.938000,0.578393
652.251580,0.575842
652.565120,0.573225
652.878620,0.577703
653.192080,0.574719
653.505500,0.574755
653.818880,0.584305
654.132220,0.572771
654.445520,0.573454
654.758780,0.567705
655.072000,0.579083
655.385180,0.574893
655.698320,0.566448
656.011420,0.576383
656.324480,0.573885
656.637500,0.571553
656.950480,0.578978
657.263420,0.572864
657.576320,0.574266
657.889180,0.574462
658.202000,0.581824
658.514780,0.572194
658.827520,0.576230
659.140220,0.572670
659.452880,0.572033
659.765500,0.569235
660.078080,0.565754
660.390620,0.570119
660.703120,0.571341
661.015580,0.572086
661.328000,0.579345
661.640380,0.579683
661.952720,0.572096
662.265020,0.570573
662.577280,0.575700
662.889500,0.577420
663.201680,0.574027
663.513820,0.573175
663.825920,0.572206
664.137980,0.575307
664.450000,0.568414
664.761980,0.573159
665.073920,0.565076
665.385820,0.571335
665.697680,0.572893
666.009500,0.576322
666.321280,0.571902
666.633020,0.580120
666.944720,0.583418
667.256380,0.575707
667.568000,0.568954
667.879580,0.580612
668.191120,0.573832
668.502620,0.573776
668.814080,0.577193
669.125500,0.570989
669.436880,0.575035
669.748220,0.569055
670.059520,0.564076
670.370780,0.570981
670.682000,0.578053
670.993180,0.581043
671.304320,0.573136
671.615420,0.567827
671.926480,0.566004
672.237500,0.566631
672.548480,0.577005
672.859420,0.566119
673.170320,0.570185
673.481180,0.580377
673.792000,0.566895
674.102780,0.561939
674.413520,0.575647
674.724220,0.566243
675.034880,0.576091
675.345500,0.572210
675.656080,0.562976
675.966620,0.565660
676.277120,0.566093
676.587580,0.572901
676.898000,0.570362
677.208380,0.562662
677.518720,0.556163
677.829020,0.567627
678.139280,0.573388
678.449500,0.573338
678.759680,0.569876
679.069820,0.565056
679.379920,0.576009
679.689980,0.567768
680.000000,0.568972
680.309980,0.565702
680.619920,0.569860
680.929820,0.572602
681.239680,0.562777
681.549500,0.570370
681.859280,0.565721
682.169020,0.566580
682.478720,0.569933
682.788380,0.569952
683.098000,0.575916
683.407580,0.571107
683.717120,0.564189
684.026620,0.564006
684.336080,0.570292
684.645500,0.560045
684.954880,0.563279
685.264220,0.570781
685.573520,0.571374
685.882780,0.568470
686.192000,0.556057
686.501180,0.566402
686.810320,0.575327
687.119420,0.567845
687.428480,0.568933
687.737500,0.568688
688.046480,0.560966
688.355420,0.556771
688.664320,0.571920
688.973180,0.568913
689.282000,0.570988
689.590780,0.574003
689.899520,0.549183
690.208220,0.563456
690.516880,0.567774
690.825500,0.557358
691.134080,0.552012
691.442620,0.562500
691.751120,0.565036
692.059580,0.564769
692.368000,0.558879
692.676380,0.561069
692.984720,0.558779
693.293020,0.565729
693.601280,0.564288
693.909500,0.563753
694.217680,0.557883
694.525820,0.562833
694.833920,0.562381
695.141980,0.557655
695.450000,0.558015
695.757980,0.565699
696.065920,0.561553
696.373820,0.564280
696.681680,0.553126
696.989500,0.562331
697.297280,0.560093
697.605020,0.568254
697.912720,0.559185
698.220380,0.548603
698.528000,0.564082
698.835580,0.563019
699.143120,0.562744
699.450620,0.559666
699.758080,0.556863
700.065500,0.564246
700.372880,0.566000
700.680220,0.559234
700.987520,0.567460
701.294780,0.564882
701.602000,0.556656
701.909180,0.556836
702.216320,0.556903
702.523420,0.558800
702.830480,0.561584
703.137500,0.553390
703.444480,0.559763
703.751420,0.556607
704.058320,0.550059
704.365180,0.558754
704.672000,0.559604
704.978780,0.557940
705.285520,0.558294
705.592220,0.553725
705.898880,0.555950
706.205500,0.552426
706.512080,0.555292
706.818620,0.561533
707.125120,0.565000
707.431580,0.557249
707.738000,0.560156
708.044380,0.554612
708.350720,0.555598
708.657020,0.563501
708.963280,0.557842
709.269500,0.550685
709.575680,0.559921
709.881820,0.560142
710.187920,0.563813
710.493980,0.545384
710.800000,0.556827
711.105980,0.539157
711.411920,0.554986
711.717820,0.552047
712.023680,0.542169
712.329500,0.559543
712.635280,0.556589
712.941020,0.560495
713.246720,0.558103
713.552380,0.550628
713.858000,0.553410
714.163580,0.553670
714.469120,0.550215
714.774620,0.547572
715.080080,0.557126
715.385500,0.558753
715.690880,0.547929
715.996220,0.550713
716.301520,0.563636
716.606780,0.547563
716.912000,0.559774
717.217180,0.562251
717.522320,0.555070
717.827420,0.556550
718.132480,0.558009
718.437500,0.556054
718.742480,0.550403
719.047420,0.548544
719.352320,0.557493
719.657180,0.565822
719.962000,0.560794
720.266780,0.543415
720.571520,0.551781
720.876220,0.546645
721.180880,0.549331
721.485500,0.549519
721.790080,0.544374
722.094620,0.555746
722.399120,0.563981
722.703580,0.546507
723.008000,0.551962
723.312380,0.544124
723.616720,0.537187
723.921020,0.547856
724.225280,0.546684
724.529500,0.548599
724.833680,0.553826
725.137820,0.541410
725.441920,0.551939
725.745980,0.551230
726.050000,0.552548
726.353980,0.541685
726.657920,0.541161
726.961820,0.548858
727.265680,0.547850
727.569500,0.542962
727.873280,0.555658
728.177020,0.552280
728.480720,0.539352
728.784380,0.558478
729.088000,0.549694
729.391580,0.541450
729.695120,0.553263
729.998620,0.552581
730.302080,0.548775
730.605500,0.541000
730.908880,0.544341
731.212220,0.546033
731.515520,0.534373
731.818780,0.536408
732.122000,0.549213
732.425180,0.540168
732.728320,0.541894
733.031420,0.546867
733.334480,0.543878
733.637500,0.531754
733.940480,0.536847
734.243420,0.539755
734.546320,0.551349
734.849180,0.542872
735.152000,0.547199
735.454780,0.542355
735.757520,0.544257
736.060220,0.537125
736.362880,0.541492
736.665500,0.537337
736.968080,0.547018
737.270620,0.547632
737.573120,0.538755
737.875580,0.547004
738.178000,0.538378
738.480380,0.535135
738.782720,0.537077
739.085020,0.536894
739.387280,0.541020
739.689500,0.532843
739.991680,0.544638
740.293820,0.533444
740.595920,0.544240
740.897980,0.530774
741.200000,0.540662
741.501980,0.544986
741.803920,0.537725
742.105820,0.527355
742.407680,0.549214
742.709500,0.527841
743.011280,0.535756
743.313020,0.536232
743.614720,0.531631
743.916380,0.525000
744.218000,0.549523
744.519580,0.548309
744.821120,0.539521
745.122620,0.533253
745.424080,0.534255
745.725500,0.543150
746.026880,0.540640
746.328220,0.527744
746.629520,0.518362
746.930780,0.536765
747.232000,0.534028
747.533180,0.536303
747.834320,0.534997
748.135420,0.532007
748.436480,0.533375
748.737500,0.533045
749.038480,0.529016
749.339420,0.537026
749.640320,0.536141
749.941180,0.526546
750.242000,0.534548
750.542780,0.530397
750.843520,0.540679
751.144220,0.539103
751.444880,0.528852
751.745500,0.526623
752.046080,0.547146
752.346620,0.532216
752.647120,0.530372
752.947580,0.545925
753.248000,0.529981
753.548380,0.523748
753.848720,0.538313
754.149020,0.529336
754.449280,0.536441
754.749500,0.527538
755.049680,0.529333
755.349820,0.519013
755.649920,0.530073
755.949980,0.529529
756.250000,0.529257
756.549980,0.513531
756.849920,0.545887
757.149820,0.514305
757.449680,0.530693
757.749500,0.535106
758.049280,0.526280
758.349020,0.518081
758.648720,0.531401
758.948380,0.527148
759.248000,0.534367
759.547580,0.527236
759.847120,0.513439
760.146620,0.522327
760.446080,0.524866
760.745500,0.525175
761.044880,0.535511
761.344220,0.526728
761.643520,0.538842
761.942780,0.529041
762.242000,0.528996
762.541180,0.530282
762.840320,0.530197
763.139420,0.526723
763.438480,0.524265
763.737500,0.529290
764.036480,0.512229
764.335420,0.509527
764.634320,0.523216
764.933180,0.521233
765.232000,0.530187
765.530780,0.531228
765.829520,0.525874
766.128220,0.522617
766.426880,0.526652
766.725500,0.512680
767.024080,0.530178
767.322620,0.525588
767.621120,0.527100
767.919580,0.526962
768.218000,0.526676
768.516380,0.528736
768.814720,0.520576
769.113020,0.515507
769.411280,0.527624
769.709500,0.522327
770.007680,0.524881
770.305820,0.524679
770.603920,0.514151
770.901980,0.531421
771.200000,0.516304
771.497980,0.510724
771.795920,0.511706
772.093820,0.518717
772.391680,0.515491
772.689500,0.517568
772.987280,0.529293
773.285020,0.529050
773.582720,0.518919
773.880380,0.514756
774.178000,0.522154
774.475580,0.517080
774.773120,0.516064
775.070620,0.516565
775.368080,0.523714
775.665500,0.514439
775.962880,0.521014
776.260220,0.522880
776.557520,0.524350
776.854780,0.525355
777.152000,0.520557
777.449180,0.524612
777.746320,0.513441
778.043420,0.515007
778.340480,0.523004
778.637500,0.519270
778.934480,0.515131
779.231420,0.518318
779.528320,0.516366
779.825180,0.509223
780.122000,0.501992
780.418780,0.523256
780.715520,0.519115
781.012220,0.517808
781.308880,0.524003
781.605500,0.515753
781.902080,0.520192
782.198620,0.523582
782.495120,0.513717
782.791580,0.512380
783.088000,0.514838
783.384380,0.515131
783.680720,0.504104
783.977020,0.501032
784.273280,0.534965
784.569500,0.513627
784.865680,0.511822
785.161820,0.508333
785.457920,0.503812
785.753980,0.508723
786.050000,0.513812
786.345980,0.511111
786.641920,0.510756
786.937820,0.519231
787.233680,0.514962
787.529500,0.507628
787.825280,0.508499
788.121020,0.509915
788.416720,0.504587
788.712380,0.504937
789.008000,0.516289
789.303580,0.502473
789.599120,0.523636
789.894620,0.512635
790.190080,0.503263
790.485500,0.517639
790.780880,0.508244
791.076220,0.509380
791.371520,0.503994
791.666780,0.516364
791.962000,0.513593
792.257180,0.513177
792.552320,0.514141
792.847420,0.511645
793.142480,0.517216
793.437500,0.505065
793.732480,0.508413
794.027420,0.502967
794.322320,0.517524
794.617180,0.517831
794.912000,0.514116
795.206780,0.512304
795.501520,0.515589
795.796220,0.499259
796.090880,0.514695
796.385500,0.505247
796.680080,0.508601
796.974620,0.503743
797.269120,0.505678
797.563580,0.502290
797.858000,0.505695
798.152380,0.518175
798.446720,0.516154
798.741020,0.506934
799.035280,0.503882
799.329500,0.507313
799.623680,0.508527
