399.985280,0.445946
400.329500,0.418919
400.673680,0.481013
401.017820,0.514706
401.361920,0.500000
401.705980,0.500000
402.050000,0.415584
402.393980,0.435294
402.737920,0.438202
403.081820,0.484536
403.425680,0.500000
403.769500,0.406250
404.113280,0.459770
404.457020,0.539326
404.800720,0.434783
405.144380,0.515152
405.488000,0.494624
405.831580,0.463918
406.175120,0.542553
406.518620,0.490000
406.862080,0.432990
407.205500,0.458333
407.548880,0.469388
407.892220,0.450980
408.235520,0.553191
408.578780,0.533333
408.922000,0.519231
409.265180,0.505051
409.608320,0.474747
409.951420,0.494845
410.294480,0.500000
410.637500,0.467391
410.980480,0.500000
411.323420,0.479592
411.666320,0.532110
412.009180,0.472727
412.352000,0.445545
412.694780,0.532110
413.037520,0.467890
413.380220,0.486486
413.722880,0.464286
414.065500,0.531532
414.408080,0.548673
414.750620,0.486726
415.093120,0.495868
415.435580,0.521008
415.778000,0.477273
416.120380,0.487395
416.462720,0.515873
416.805020,0.496241
417.147280,0.522388
417.489500,0.521429
417.831680,0.547945
418.173820,0.489362
418.515920,0.496503
418.857980,0.443038
419.200000,0.506410
419.541980,0.556213
419.883920,0.471910
420.225820,0.468208
420.567680,0.497207
420.909500,0.480874
421.251280,0.536458
421.593020,0.489796
421.934720,0.494949
422.276380,0.528205
422.618000,0.544118
422.959580,0.490196
423.301120,0.520548
423.642620,0.465217
423.984080,0.520930
424.325500,0.520179
424.666880,0.491379
425.008220,0.512605
425.349520,0.500000
425.690780,0.480769
426.032000,0.478431
426.373180,0.485477
426.714320,0.480469
427.055420,0.505792
427.396480,0.520599
427.737500,0.509881
428.078480,0.494071
428.419420,0.522088
428.760320,0.475096
429.101180,0.500000
429.442000,0.513410
429.782780,0.496154
430.123520,0.560784
430.464220,0.490775
430.804880,0.536398
431.145500,0.476364
431.486080,0.490637
431.826620,0.527132
432.167120,0.503676
432.507580,0.518116
432.848000,0.489209
433.188380,0.498195
433.528720,0.520755
433.869020,0.525000
434.209280,0.494737
434.549500,0.512195
434.889680,0.498316
435.229820,0.505119
435.569920,0.505190
435.909980,0.482201
436.250000,0.522034
436.589980,0.517028
436.929920,0.517460
437.269820,0.498433
437.609680,0.511834
437.949500,0.509036
438.289280,0.521246
438.629020,0.517442
438.968720,0.514535
439.308380,0.485095
439.648000,0.501370
439.987580,0.494709
440.327120,0.538667
440.666620,0.516883
441.006080,0.496164
441.345500,0.515971
441.684880,0.500000
442.024220,0.513648
442.363520,0.500000
442.702780,0.511364
443.042000,0.497797
443.381180,0.530172
443.720320,0.511879
444.059420,0.506303
444.398480,0.502092
444.737500,0.514344
445.076480,0.515873
445.415420,0.514970
445.754320,0.507277
446.093180,0.497248
446.432000,0.524436
446.770780,0.502846
447.109520,0.520221
447.448220,0.499106
447.786880,0.522361
448.125500,0.515517
448.464080,0.507143
448.802620,0.515957
449.141120,0.506920
449.479580,0.505245
449.818000,0.507745
450.156380,0.508361
450.494720,0.504132
450.833020,0.520979
451.171280,0.508562
451.509500,0.522648
451.847680,0.532884
452.185820,0.524957
452.523920,0.524055
452.861980,0.521079
453.200000,0.493355
453.537980,0.517647
453.875920,0.499160
454.213820,0.511986
454.551680,0.511589
454.889500,0.502530
455.227280,0.507117
455.565020,0.512563
455.902720,0.524126
456.240380,0.494176
456.578000,0.520906
456.915580,0.516408
457.253120,0.511513
457.590620,0.512315
457.928080,0.542088
458.265500,0.535473
458.602880,0.509740
458.940220,0.502538
459.277520,0.508800
459.614780,0.515548
459.952000,0.506211
460.289180,0.522152
460.626320,0.507087
460.963420,0.525040
461.300480,0.525994
461.637500,0.517720
461.974480,0.530581
462.311420,0.533532
462.648320,0.524158
462.985180,0.510760
463.322000,0.513393
463.658780,0.508287
463.995520,0.500688
464.332220,0.522161
464.668880,0.530914
465.005500,0.532172
465.342080,0.516005
465.678620,0.516605
466.015120,0.523933
466.351580,0.530973
466.688000,0.512789
467.024380,0.527339
467.360720,0.515909
467.697020,0.515945
468.033280,0.524444
468.369500,0.518764
468.705680,0.519729
469.041820,0.508333
469.377920,0.500000
469.713980,0.500515
470.050000,0.508213
470.385980,0.509785
470.721920,0.509305
471.057820,0.520468
471.393680,0.504210
471.729500,0.510658
472.065280,0.521467
472.401020,0.519504
472.736720,0.519197
473.072380,0.517056
473.408000,0.518712
473.743580,0.512976
474.079120,0.522825
474.414620,0.525021
474.750080,0.502848
475.085500,0.527961
475.420880,0.517069
475.756220,0.530662
476.091520,0.520034
476.426780,0.524272
476.762000,0.511665
477.097180,0.508800
477.432320,0.531502
477.767420,0.519608
478.102480,0.521260
478.437500,0.522989
478.772480,0.513002
479.107420,0.511798
479.442320,0.518785
479.777180,0.528242
480.112000,0.501541
480.446780,0.503507
480.781520,0.514493
481.116220,0.526273
481.450880,0.523029
481.785500,0.533228
482.120080,0.532915
482.454620,0.510490
482.789120,0.519108
483.123580,0.519470
483.458000,0.519778
483.792380,0.543131
484.126720,0.517375
484.461020,0.526151
484.795280,0.534310
485.129500,0.519096
485.463680,0.518605
485.797820,0.527216
486.131920,0.511094
486.465980,0.527413
486.800000,0.535115
487.133980,0.512085
487.467920,0.522571
487.801820,0.524027
488.135680,0.526156
488.469500,0.525719
488.803280,0.526003
489.137020,0.516484
489.470720,0.518546
489.804380,0.527097
490.138000,0.527448
490.471580,0.532793
490.805120,0.518227
491.138620,0.523810
491.472080,0.528622
491.805500,0.526499
492.138880,0.514246
492.472220,0.538408
492.805520,0.527933
493.138780,0.532736
493.472000,0.527090
493.805180,0.534789
494.138320,0.531688
494.471420,0.531901
494.804480,0.524580
495.137500,0.521823
495.470480,0.535373
495.803420,0.538413
496.136320,0.530075
496.469180,0.521793
496.802000,0.523227
497.134780,0.533657
497.467520,0.530275
497.800220,0.525354
498.132880,0.528513
498.465500,0.531286
498.798080,0.537100
499.130620,0.528916
499.463120,0.535654
499.795580,0.522552
500.128000,0.529700
500.460380,0.524758
500.792720,0.536055
501.125020,0.518129
501.457280,0.532637
501.789500,0.529442
502.121680,0.540176
502.453820,0.527792
502.785920,0.531266
503.117980,0.528459
503.450000,0.544450
503.781980,0.528151
504.113920,0.523471
504.445820,0.526495
504.777680,0.520000
505.109500,0.535577
505.441280,0.536807
505.773020,0.527008
506.104720,0.527084
506.436380,0.539044
506.768000,0.535547
507.099580,0.521281
507.431120,0.532553
507.762620,0.532425
508.094080,0.532361
508.425500,0.543884
508.756880,0.530864
509.088220,0.528979
509.419520,0.536778
509.750780,0.541237
510.082000,0.533116
510.413180,0.530631
510.744320,0.536585
511.075420,0.532539
511.406480,0.529384
511.737500,0.521759
512.068480,0.525376
512.399420,0.527700
512.730320,0.520554
513.061180,0.532826
513.392000,0.539991
513.722780,0.540346
514.053520,0.531864
514.384220,0.530447
514.714880,0.533748
515.045500,0.529215
515.376080,0.541889
515.706620,0.528008
516.037120,0.526961
516.367580,0.532775
516.698000,0.535294
517.028380,0.538729
517.358720,0.534815
517.689020,0.532641
518.019280,0.538886
518.349500,0.537760
518.679680,0.540131
519.009820,0.530870
519.339920,0.540581
519.669980,0.535409
520.000000,0.532858
520.329980,0.543287
520.659920,0.540389
520.989820,0.530960
521.319680,0.546296
521.649500,0.527506
521.979280,0.543319
522.309020,0.533714
522.638720,0.525858
522.968380,0.536711
523.298000,0.535491
523.627580,0.535954
523.957120,0.526234
524.286620,0.539343
524.616080,0.533609
524.945500,0.538501
525.274880,0.534120
525.604220,0.537267
525.933520,0.540356
526.262780,0.530664
526.592000,0.528158
526.921180,0.533266
527.250320,0.535769
527.579420,0.543204
527.908480,0.535697
528.237500,0.534260
528.566480,0.547405
528.895420,0.546575
529.224320,0.537395
529.553180,0.540723
529.882000,0.543552
530.210780,0.536680
530.539520,0.538351
530.868220,0.538535
531.196880,0.534161
531.525500,0.557385
531.854080,0.545028
532.182620,0.538066
532.511120,0.534107
532.839580,0.544465
533.168000,0.535096
533.496380,0.552055
533.824720,0.539255
534.153020,0.546589
534.481280,0.543612
534.809500,0.551011
535.137680,0.539062
535.465820,0.542096
535.793920,0.541455
536.121980,0.541334
536.450000,0.551797
536.777980,0.542103
537.105920,0.548360
537.433820,0.546645
537.761680,0.551837
538.089500,0.543100
538.417280,0.539196
538.745020,0.546355
539.072720,0.540804
539.400380,0.539627
539.728000,0.540727
540.055580,0.543071
540.383120,0.539092
540.710620,0.546503
541.038080,0.542973
541.365500,0.538971
541.692880,0.544331
542.020220,0.546599
542.347520,0.548816
542.674780,0.543402
543.002000,0.539538
543.329180,0.548229
543.656320,0.554149
543.983420,0.544615
544.310480,0.541284
544.637500,0.547936
544.964480,0.537349
545.291420,0.547026
545.618320,0.552789
545.945180,0.544166
546.272000,0.542923
546.598780,0.548345
546.925520,0.545664
547.252220,0.543414
547.578880,0.542522
547.905500,0.544771
548.232080,0.546134
548.558620,0.541165
548.885120,0.548904
549.211580,0.540341
549.538000,0.550908
549.864380,0.551447
550.190720,0.552147
550.517020,0.553129
550.843280,0.542671
551.169500,0.548028
551.495680,0.551905
551.821820,0.554213
552.147920,0.545543
552.473980,0.547251
552.800000,0.543819
553.125980,0.548461
553.451920,0.548772
553.777820,0.552965
554.103680,0.555106
554.429500,0.547037
554.755280,0.550734
555.081020,0.541110
555.406720,0.544870
555.732380,0.537106
556.058000,0.543449
556.383580,0.549812
556.709120,0.544452
557.034620,0.545642
557.360080,0.550950
557.685500,0.540456
558.010880,0.543847
558.336220,0.544112
558.661520,0.558667
558.986780,0.552091
559.312000,0.546296
559.637180,0.542549
559.962320,0.546458
560.287420,0.550776
560.612480,0.548260
560.937500,0.548091
561.262480,0.542889
561.587420,0.549510
561.912320,0.552321
562.237180,0.548853
562.562000,0.551066
562.886780,0.557042
563.211520,0.547690
563.536220,0.551020
563.860880,0.543191
564.185500,0.543715
564.510080,0.548533
564.834620,0.547451
565.159120,0.546992
565.483580,0.556442
565.808000,0.544079
566.132380,0.546438
566.456720,0.548375
566.781020,0.544636
567.105280,0.546692
567.429500,0.548938
567.753680,0.552743
568.077820,0.544260
568.401920,0.556150
568.725980,0.551423
569.050000,0.558935
569.373980,0.550818
569.697920,0.542662
570.021820,0.559551
570.345680,0.550325
570.669500,0.548646
570.993280,0.543005
571.317020,0.551699
571.640720,0.549092
571.964380,0.550111
572.288000,0.549703
572.611580,0.554848
572.935120,0.547325
573.258620,0.553478
573.582080,0.548808
573.905500,0.555473
574.228880,0.549740
574.552220,0.552950
574.875520,0.548027
575.198780,0.543549
575.522000,0.550587
575.845180,0.540115
576.168320,0.555875
576.491420,0.558866
576.814480,0.547559
577.137500,0.548341
577.460480,0.553461
577.783420,0.558414
578.106320,0.556624
578.429180,0.553199
578.752000,0.556096
579.074780,0.546527
579.397520,0.551001
579.720220,0.542149
580.042880,0.552692
580.365500,0.551952
580.688080,0.559023
581.010620,0.550118
581.333120,0.561790
581.655580,0.553114
581.978000,0.559029
582.300380,0.545278
582.622720,0.552076
582.945020,0.549740
583.267280,0.553240
583.589500,0.556661
583.911680,0.553827
584.233820,0.548631
584.555920,0.555310
584.877980,0.554962
585.200000,0.540823
585.521980,0.557306
585.843920,0.548810
586.165820,0.553626
586.487680,0.551309
586.809500,0.543954
587.131280,0.548950
587.453020,0.554167
587.774720,0.557954
588.096380,0.552509
588.418000,0.558385
588.739580,0.549583
589.061120,0.559517
589.382620,0.551003
589.704080,0.552034
590.025500,0.559646
590.346880,0.560989
590.668220,0.560067
590.989520,0.557404
591.310780,0.548743
591.632000,0.556011
591.953180,0.556601
592.274320,0.553099
592.595420,0.550377
592.916480,0.557729
593.237500,0.559687
593.558480,0.561205
593.879420,0.562719
594.200320,0.557193
594.521180,0.555378
594.842000,0.560451
595.162780,0.557158
595.483520,0.559160
595.804220,0.560150
596.124880,0.557954
596.445500,0.550432
596.766080,0.561710
597.086620,0.544851
597.407120,0.551606
597.727580,0.557147
598.048000,0.554086
598.368380,0.553919
598.688720,0.553080
599.009020,0.557590
599.329280,0.556679
599.649500,0.548600
599.969680,0.557692
600.289820,0.555556
600.609920,0.550895
600.929980,0.545430
601.250000,0.553243
601.569980,0.553875
601.889920,0.550655
602.209820,0.549784
602.529680,0.563307
602.849500,0.553464
603.169280,0.560485
603.489020,0.550789
603.808720,0.554032
604.128380,0.553532
604.448000,0.556354
604.767580,0.553352
605.087120,0.539889
605.406620,0.554716
605.726080,0.558027
606.045500,0.546113
606.364880,0.551744
606.684220,0.553398
607.003520,0.551606
607.322780,0.549176
607.642000,0.550833
607.961180,0.551315
608.280320,0.554524
608.599420,0.548088
608.918480,0.555718
609.237500,0.552523
609.556480,0.560225
609.875420,0.551093
610.194320,0.552702
610.513180,0.553418
610.832000,0.550625
611.150780,0.557224
611.469520,0.547511
611.788220,0.558948
612.106880,0.549457
612.425500,0.552375
612.744080,0.558326
613.062620,0.545566
613.381120,0.548141
613.699580,0.556714
614.018000,0.550369
614.336380,0.557064
614.654720,0.551628
614.973020,0.548905
615.291280,0.553145
615.609500,0.564501
615.927680,0.549444
616.245820,0.546382
616.563920,0.551135
616.881980,0.548800
617.200000,0.555210
617.517980,0.551960
617.835920,0.542094
618.153820,0.547404
618.471680,0.544806
618.789500,0.548773
619.107280,0.553991
619.425020,0.555027
619.742720,0.554928
620.060380,0.549358
620.378000,0.560101
620.695580,0.547573
621.013120,0.544567
621.330620,0.551616
621.648080,0.547950
621.965500,0.552384
622.282880,0.550126
622.600220,0.543272
622.917520,0.551355
623.234780,0.563484
623.552000,0.558880
623.869180,0.556571
624.186320,0.555874
624.503420,0.549216
624.820480,0.553566
625.137500,0.550995
625.454480,0.547984
625.771420,0.557377
626.088320,0.550441
626.405180,0.548538
626.722000,0.552384
627.038780,0.551378
627.355520,0.545000
627.672220,0.553655
627.988880,0.553655
628.305500,0.555936
628.622080,0.549876
628.938620,0.547095
629.255120,0.552271
629.571580,0.547962
629.888000,0.549555
630.204380,0.550782
630.520720,0.544180
630.837020,0.549491
631.153280,0.549760
631.469500,0.553669
631.785680,0.540386
632.101820,0.552473
632.417920,0.548733
632.733980,0.553421
633.050000,0.557307
633.365980,0.554535
633.681920,0.550119
633.997820,0.552301
634.313680,0.550870
634.629500,0.544382
634.945280,0.547801
635.261020,0.551805
635.576720,0.546682
635.892380,0.548940
636.208000,0.546485
636.523580,0.554224
636.839120,0.554430
637.154620,0.547826
637.470080,0.548924
637.785500,0.558030
638.100880,0.549377
638.416220,0.552488
638.731520,0.544413
639.046780,0.546170
639.362000,0.551032
639.677180,0.548829
639.992320,0.550042
640.307420,0.546783
640.622480,0.549146
640.937500,0.544244
641.252480,0.548450
641.567420,0.556692
641.882320,0.540367
642.197180,0.552218
642.512000,0.548279
642.826780,0.547295
643.141520,0.548764
643.456220,0.550360
643.770880,0.551410
644.085500,0.557015
644.400080,0.550000
644.714620,0.551839
645.029120,0.551980
645.343580,0.546078
645.658000,0.552040
645.972380,0.549192
646.286720,0.545925
646.601020,0.551619
646.915280,0.551961
647.229500,0.551923
647.543680,0.551505
647.857820,0.549959
648.171920,0.549919
648.485980,0.545629
648.800000,0.547258
649.113980,0.555987
649.427920,0.547295
649.741820,0.544106
650.055680,0.551015
650.369500,0.552410
650.683280,0.549667
650.997020,0.546480
651.310720,0.548707
651.624380,0.548077
651.938000,0.549030
652.251580,0.548567
652.565120,0.542202
652.878620,0.548705
653.192080,0.546067
653.505500,0.535764
653.818880,0.555587
654.132220,0.548277
654.445520,0.542258
654.758780,0.540227
655.072000,0.538968
655.385180,0.540371
655.698320,0.545584
656.011420,0.546002
656.324480,0.537744
656.637500,0.544032
656.950480,0.543746
657.263420,0.540940
657.576320,0.541358
657.889180,0.544087
658.202000,0.543478
658.514780,0.544805
658.827520,0.552821
659.140220,0.539107
659.452880,0.547569
659.765500,0.548164
660.078080,0.535059
660.390620,0.541705
660.703120,0.545982
661.015580,0.543865
661.328000,0.547859
661.640380,0.544268
661.952720,0.540953
662.265020,0.545999
662.577280,0.540712
662.889500,0.534532
663.201680,0.542757
663.513820,0.541010
663.825920,0.546910
664.137980,0.543956
664.450000,0.539003
664.761980,0.535516
665.073920,0.534567
665.385820,0.538285
665.697680,0.541157
666.009500,0.548720
666.321280,0.540424
666.633020,0.538231
666.944720,0.535558
667.256380,0.531965
667.568000,0.534307
667.879580,0.550340
668.191120,0.544643
668.502620,0.544334
668.814080,0.541404
669.125500,0.536093
669.436880,0.542531
669.748220,0.541018
670.059520,0.539916
670.370780,0.537578
670.682000,0.543363
670.993180,0.547569
671.304320,0.547117
671.615420,0.529119
671.926480,0.538325
672.237500,0.530904
672.548480,0.540809
672.859420,0.533238
673.170320,0.534639
673.481180,0.541636
673.792000,0.527587
674.102780,0.528187
674.413520,0.545753
674.724220,0.541924
675.034880,0.536120
675.345500,0.532823
675.656080,0.530672
675.966620,0.528556
676.277120,0.543391
676.587580,0.541973
676.898000,0.539380
677.208380,0.528651
677.518720,0.529176
677.829020,0.531781
678.139280,0.530022
678.449500,0.523208
678.759680,0.530910
679.069820,0.530483
679.379920,0.532629
679.689980,0.529150
680.000000,0.533084
680.309980,0.530809
680.619920,0.534267
680.929820,0.535274
681.239680,0.525111
681.549500,0.530741
681.859280,0.531367
682.169020,0.536740
682.478720,0.541885
682.788380,0.530454
683.098000,0.533283
683.407580,0.535084
683.717120,0.533408
684.026620,0.525602
684.336080,0.523683
684.645500,0.528994
684.954880,0.527012
685.264220,0.530766
685.573520,0.541683
685.882780,0.529728
686.192000,0.526712
686.501180,0.527809
686.810320,0.535357
687.119420,0.532877
687.428480,0.529814
687.737500,0.533384
688.046480,0.524156
688.355420,0.526217
688.664320,0.526014
688.973180,0.526799
689.282000,0.527392
689.590780,0.535276
689.899520,0.520699
690.208220,0.537462
690.516880,0.528446
690.825500,0.531321
691.134080,0.525816
691.442620,0.528201
691.751120,0.528252
692.059580,0.533053
692.368000,0.523665
692.676380,0.524809
692.984720,0.533969
693.293020,0.526596
693.601280,0.531095
693.909500,0.525539
694.217680,0.520564
694.525820,0.528180
694.833920,0.518123
695.141980,0.525646
695.450000,0.517557
695.757980,0.519099
696.065920,0.528932
696.373820,0.521555
696.681680,0.516302
696.989500,0.529911
697.297280,0.521198
697.605020,0.534921
697.912720,0.510377
698.220380,0.514758
698.528000,0.526899
698.835580,0.524299
699.143120,0.515588
699.450620,0.522673
699.758080,0.519608
700.065500,0.522745
700.372880,0.529200
700.680220,0.528520
700.987520,0.519048
701.294780,0.524331
701.602000,0.530507
701.909180,0.523450
702.216320,0.522096
702.523420,0.529992
702.830480,0.531485
703.137500,0.519486
703.444480,0.525444
703.751420,0.528994
704.058320,0.523150
704.365180,0.522082
704.672000,0.523564
704.978780,0.525946
705.285520,0.526604
705.592220,0.518431
705.898880,0.519701
706.205500,0.528951
706.512080,0.535150
706.818620,0.522446
707.125120,0.521923
707.431580,0.524814
707.738000,0.522656
708.044380,0.519105
708.350720,0.515858
708.657020,0.520125
708.963280,0.517081
709.269500,0.516634
709.575680,0.518664
709.881820,0.522406
710.187920,0.528794
710.493980,0.517455
710.800000,0.515637
711.105980,0.511295
711.411920,0.526606
711.717820,0.515010
712.023680,0.514574
712.329500,0.526025
712.635280,0.526744
712.941020,0.523000
713.246720,0.520158
713.552380,0.523548
713.858000,0.520300
714.163580,0.518942
714.469120,0.508011
714.774620,0.511646
715.080080,0.519435
715.385500,0.516787
715.690880,0.517160
715.996220,0.517829
716.301520,0.515415
716.606780,0.518868
716.912000,0.521809
717.217180,0.519952
717.522320,0.514115
717.827420,0.527665
718.132480,0.513850
718.437500,0.520179
718.742480,0.510887
719.047420,0.515777
719.352320,0.523039
719.657180,0.518806
719.962000,0.514888
720.266780,0.514749
720.571520,0.512428
720.876220,0.513093
721.180880,0.515050
721.485500,0.519850
721.790080,0.507431
722.094620,0.512864
722.399120,0.507971
722.703580,0.511359
723.008000,0.520052
723.312380,0.519156
723.616720,0.509137
723.921020,0.511910
724.225280,0.506981
724.529500,0.506567
724.833680,0.522687
725.137820,0.505286
725.441920,0.495765
725.745980,0.517226
726.050000,0.518719
726.353980,0.519603
726.657920,0.502924
726.961820,0.509132
727.265680,0.509940
727.569500,0.508227
727.873280,0.503002
728.177020,0.504836
728.480720,0.507870
728.784380,0.520432
729.088000,0.510127
729.391580,0.509237
729.695120,0.510557
729.998620,0.503824
730.302080,0.514176
730.605500,0.509461
730.908880,0.502695
731.212220,0.508815
731.515520,0.503169
731.818780,0.499029
732.122000,0.509843
732.425180,0.511089
732.728320,0.499256
733.031420,0.511278
733.334480,0.504082
733.637500,0.500000
733.940480,0.505118
734.243420,0.506626
734.546320,0.498963
734.849180,0.499483
735.152000,0.497407
735.454780,0.501550
735.757520,0.511591
736.060220,0.506582
736.362880,0.507353
736.665500,0.496084
736.968080,0.502418
737.270620,0.512248
737.573120,0.509279
737.875580,0.511270
738.178000,0.501905
738.480380,0.498378
738.782720,0.494547
739.085020,0.498348
739.387280,0.507206
739.689500,0.501133
739.991680,0.503088
740.293820,0.504146
740.595920,0.496383
740.897980,0.507623
741.200000,0.495794
741.501980,0.500860
741.803920,0.489865
742.105820,0.496334
742.407680,0.500291
742.709500,0.494318
743.011280,0.504103
743.313020,0.493913
743.614720,0.490424
743.916380,0.494186
744.218000,0.494033
744.519580,0.499396
744.821120,0.497605
745.122620,0.496105
745.424080,0.492187
745.725500,0.499095
746.026880,0.497537
746.328220,0.494451
746.629520,0.491872
746.930780,0.490196
747.232000,0.491110
747.533180,0.495424
747.834320,0.505173
748.135420,0.500932
748.436480,0.496569
748.737500,0.491662
749.038480,0.496640
749.339420,0.493466
749.640320,0.500314
749.941180,0.497189
750.242000,0.494975
750.542780,0.493797
750.843520,0.495836
751.144220,0.484615
751.444880,0.495878
751.745500,0.488961
752.046080,0.509301
752.346620,0.491624
752.647120,0.495754
752.947580,0.497413
753.248000,0.490651
753.548380,0.481457
753.848720,0.488731
754.149020,0.481625
754.449280,0.495076
754.749500,0.485733
755.049680,0.482667
755.349820,0.486991
755.649920,0.491738
755.949980,0.486397
756.250000,0.493754
756.549980,0.481188
756.849920,0.491502
757.149820,0.486361
757.449680,0.491089
757.749500,0.492843
758.049280,0.490785
758.349020,0.485396
758.648720,0.490683
758.948380,0.488660
759.248000,0.485175
759.547580,0.491594
759.847120,0.489318
760.146620,0.492558
760.446080,0.490591
760.745500,0.483916
761.044880,0.493608
761.344220,0.482537
761.643520,0.491525
761.942780,0.491952
762.242000,0.494342
762.541180,0.482394
762.840320,0.488062
763.139420,0.484529
763.438480,0.479152
763.737500,0.487939
764.036480,0.483578
764.335420,0.486944
764.634320,0.477477
764.933180,0.487671
765.232000,0.486468
765.530780,0.490526
765.829520,0.479021
766.128220,0.489214
766.426880,0.491827
766.725500,0.494174
767.024080,0.486283
767.322620,0.484094
767.621120,0.488482
767.919580,0.494198
768.218000,0.487688
768.516380,0.484787
768.814720,0.475995
769.113020,0.492074
769.411280,0.493094
769.709500,0.487821
770.007680,0.481254
770.305820,0.482082
770.603920,0.469003
770.901980,0.484973
771.200000,0.476223
771.497980,0.472520
771.795920,0.481605
772.093820,0.484626
772.391680,0.486486
772.689500,0.487162
772.987280,0.478114
773.285020,0.488722
773.582720,0.477027
773.880380,0.481812
774.178000,0.480573
774.475580,0.487609
774.773120,0.477912
775.070620,0.491548
775.368080,0.478958
775.665500,0.468771
775.962880,0.474983
776.260220,0.487214
776.557520,0.484323
776.854780,0.484111
777.152000,0.468833
777.449180,0.482131
777.746320,0.466398
778.043420,0.487040
778.340480,0.479026
778.637500,0.482759
778.934480,0.484196
779.231420,0.466757
779.528320,0.464262
779.825180,0.463768
780.122000,0.468792
780.418780,0.480164
780.715520,0.482227
781.012220,0.486986
781.308880,0.479378
781.605500,0.477397
781.902080,0.480493
782.198620,0.481887
782.495120,0.480110
782.791580,0.481431
783.088000,0.476881
783.384380,0.472490
783.680720,0.476060
783.977020,0.467997
784.273280,0.465035
784.569500,0.468903
784.865680,0.470097
785.161820,0.485417
785.457920,0.471240
785.753980,0.478018
786.050000,0.465470
786.345980,0.472222
786.641920,0.475364
786.937820,0.487892
787.233680,0.471120
787.529500,0.472954
787.825280,0.485836
788.121020,0.453966
788.416720,0.472830
788.712380,0.475317
789.008000,0.466714
789.303580,0.474205
789.599120,0.480727
789.894620,0.472202
790.190080,0.469906
790.485500,0.462923
790.780880,0.465233
791.076220,0.463203
791.371520,0.474946
791.666780,0.472000
791.962000,0.473916
792.257180,0.488287
792.552320,0.476432
792.847420,0.468705
793.142480,0.478388
793.437500,0.467438
793.732480,0.469642
794.027420,0.466617
794.322320,0.483967
794.617180,0.470282
794.912000,0.468053
795.206780,0.463833
795.501520,0.477567
795.796220,0.474815
796.090880,0.473248
796.385500,0.473013
796.680080,0.472700
796.974620,0.476048
797.269120,0.459500
797.563580,0.465649
797.858000,0.476841
798.152380,0.470998
798.446720,0.474615
798.741020,0.466102
799.035280,0.470497
799.329500,0.461124
799.623680,0.470543
