399.985280,0.445946
400.329500,0.513514
400.673680,0.443038
401.017820,0.500000
401.361920,0.500000
401.705980,0.451220
402.050000,0.493506
402.393980,0.517647
402.737920,0.561798
403.081820,0.484536
403.425680,0.604651
403.769500,0.437500
404.113280,0.459770
404.457020,0.584270
404.800720,0.489130
405.144380,0.494949
405.488000,0.526882
405.831580,0.536082
406.175120,0.457447
406.518620,0.560000
406.862080,0.525773
407.205500,0.468750
407.548880,0.520408
407.892220,0.500000
408.235520,0.521277
408.578780,0.485714
408.922000,0.509615
409.265180,0.585859
409.608320,0.484848
409.951420,0.597938
410.294480,0.500000
410.637500,0.565217
410.980480,0.509804
411.323420,0.469388
411.666320,0.504587
412.009180,0.490909
412.352000,0.465347
412.694780,0.522936
413.037520,0.504587
413.380220,0.531532
413.722880,0.580357
414.065500,0.576577
414.408080,0.522124
414.750620,0.513274
415.093120,0.487603
415.435580,0.529412
415.778000,0.522727
416.120380,0.495798
416.462720,0.484127
416.805020,0.518797
417.147280,0.552239
417.489500,0.535714
417.831680,0.500000
418.173820,0.482270
418.515920,0.566434
418.857980,0.531646
419.200000,0.551282
419.541980,0.508876
419.883920,0.516854
420.225820,0.497110
420.567680,0.497207
420.909500,0.519126
421.251280,0.531250
421.593020,0.520408
421.934720,0.520202
422.276380,0.533333
422.618000,0.544118
422.959580,0.578431
423.301120,0.538813
423.642620,0.478261
423.984080,0.553488
424.325500,0.538117
424.666880,0.556034
425.008220,0.516807
425.349520,0.533898
425.690780,0.511538
426.032000,0.494118
426.373180,0.526971
426.714320,0.496094
427.055420,0.505792
427.396480,0.494382
427.737500,0.505929
428.078480,0.541502
428.419420,0.518072
428.760320,0.528736
429.101180,0.551181
429.442000,0.501916
429.782780,0.511538
430.123520,0.537255
430.464220,0.520295
430.804880,0.551724
431.145500,0.516364
431.486080,0.535581
431.826620,0.515504
432.167120,0.511029
432.507580,0.525362
432.848000,0.521583
433.188380,0.545126
433.528720,0.524528
433.869020,0.514286
434.209280,0.498246
434.549500,0.533101
434.889680,0.508418
435.229820,0.518771
435.569920,0.512111
435.909980,0.495146
436.250000,0.545763
436.589980,0.510836
436.929920,0.526984
437.269820,0.498433
437.609680,0.538462
437.949500,0.533133
438.289280,0.515581
438.629020,0.520349
438.968720,0.523256
439.308380,0.523035
439.648000,0.520548
439.987580,0.531746
440.327120,0.528000
440.666620,0.519481
441.006080,0.526854
441.345500,0.523342
441.684880,0.497608
442.024220,0.538462
442.363520,0.523810
442.702780,0.506818
443.042000,0.511013
443.381180,0.510776
443.720320,0.535637
444.059420,0.493697
444.398480,0.529289
444.737500,0.508197
445.076480,0.511905
445.415420,0.520958
445.754320,0.515593
446.093180,0.499083
446.432000,0.530075
446.770780,0.529412
447.109520,0.527574
447.448220,0.500894
447.786880,0.534884
448.125500,0.513793
448.464080,0.489286
448.802620,0.505319
449.141120,0.524221
449.479580,0.503497
449.818000,0.537005
450.156380,0.528428
450.494720,0.519008
450.833020,0.515734
451.171280,0.506849
451.509500,0.522648
451.847680,0.516020
452.185820,0.514630
452.523920,0.520619
452.861980,0.536256
453.200000,0.513289
453.537980,0.510924
453.875920,0.522689
454.213820,0.511986
454.551680,0.501656
454.889500,0.497470
455.227280,0.517794
455.565020,0.520938
455.902720,0.522463
456.240380,0.475874
456.578000,0.517422
456.915580,0.497409
457.253120,0.509868
457.590620,0.538588
457.928080,0.535354
458.265500,0.530405
458.602880,0.504870
458.940220,0.526227
459.277520,0.504000
459.614780,0.510638
459.952000,0.496894
460.289180,0.531646
460.626320,0.516535
460.963420,0.529887
461.300480,0.536697
461.637500,0.511556
461.974480,0.536697
462.311420,0.533532
462.648320,0.502196
462.985180,0.506456
463.322000,0.546131
463.658780,0.508287
463.995520,0.518569
464.332220,0.529086
464.668880,0.513441
465.005500,0.525469
465.342080,0.503201
465.678620,0.516605
466.015120,0.525226
466.351580,0.539823
466.688000,0.538368
467.024380,0.511543
467.360720,0.520455
467.697020,0.533030
468.033280,0.516667
468.369500,0.528698
468.705680,0.535513
469.041820,0.518750
469.377920,0.514100
469.713980,0.516993
470.050000,0.514976
470.385980,0.529354
470.721920,0.517140
471.057820,0.526316
471.393680,0.517306
471.729500,0.502317
472.065280,0.526834
472.401020,0.516844
472.736720,0.513962
473.072380,0.511670
473.408000,0.512620
473.743580,0.499135
474.079120,0.521102
474.414620,0.519932
474.750080,0.500407
475.085500,0.515625
475.420880,0.515404
475.756220,0.519215
476.091520,0.508951
476.426780,0.512945
476.762000,0.507643
477.097180,0.520800
477.432320,0.508885
477.767420,0.509804
478.102480,0.499213
478.437500,0.517241
478.772480,0.507486
479.107420,0.502848
479.442320,0.517186
479.777180,0.510740
480.112000,0.506163
480.446780,0.498051
480.781520,0.526570
481.116220,0.514147
481.450880,0.510539
481.785500,0.540348
482.120080,0.523511
482.454620,0.516706
482.789120,0.523885
483.123580,0.500000
483.458000,0.509494
483.792380,0.523962
484.126720,0.517375
484.461020,0.520687
484.795280,0.514264
485.129500,0.519096
485.463680,0.515504
485.797820,0.518663
486.131920,0.511094
486.465980,0.515058
486.800000,0.516794
487.133980,0.516616
487.467920,0.522571
487.801820,0.525553
488.135680,0.523124
488.469500,0.510590
488.803280,0.508915
489.137020,0.506227
489.470720,0.508160
489.804380,0.518189
490.138000,0.530415
490.471580,0.515844
490.805120,0.508220
491.138620,0.507463
491.472080,0.516608
491.805500,0.504184
492.138880,0.507992
492.472220,0.522491
492.805520,0.519553
493.138780,0.517574
493.472000,0.509030
493.805180,0.518417
494.138320,0.519013
494.471420,0.512370
494.804480,0.514230
495.137500,0.506418
495.470480,0.525175
495.803420,0.518262
496.136320,0.516917
496.469180,0.517495
496.802000,0.519560
497.134780,0.519102
497.467520,0.517431
497.800220,0.515330
498.132880,0.519694
498.465500,0.514484
498.798080,0.504566
499.130620,0.518248
499.463120,0.515441
499.795580,0.509351
500.128000,0.512262
500.460380,0.508073
500.792720,0.512195
501.125020,0.515502
501.457280,0.522715
501.789500,0.511364
502.121680,0.519440
502.453820,0.515553
502.785920,0.520760
503.117980,0.519136
503.450000,0.529382
503.781980,0.518186
504.113920,0.513988
504.445820,0.511911
504.777680,0.508235
505.109500,0.521635
505.441280,0.518642
505.773020,0.518084
506.104720,0.516722
506.436380,0.515854
506.768000,0.519177
507.099580,0.519908
507.431120,0.518501
507.762620,0.517857
508.094080,0.512762
508.425500,0.519141
508.756880,0.518519
509.088220,0.513799
509.419520,0.523743
509.750780,0.510778
510.082000,0.519590
510.413180,0.522801
510.744320,0.517257
511.075420,0.519707
511.406480,0.518101
511.737500,0.508796
512.068480,0.517857
512.399420,0.513146
512.730320,0.507159
513.061180,0.515699
513.392000,0.523900
513.722780,0.523535
514.053520,0.523239
514.384220,0.514272
514.714880,0.510771
515.045500,0.507184
515.376080,0.513317
515.706620,0.518266
516.037120,0.508333
516.367580,0.514539
516.698000,0.513725
517.028380,0.518371
517.358720,0.515062
517.689020,0.517804
518.019280,0.509784
518.349500,0.528130
518.679680,0.512367
519.009820,0.512652
519.339920,0.518537
519.669980,0.515821
520.000000,0.516047
520.329980,0.515811
520.659920,0.511759
520.989820,0.511352
521.319680,0.515432
521.649500,0.517224
521.979280,0.518789
522.309020,0.517116
522.638720,0.513569
522.968380,0.523785
523.298000,0.509395
523.627580,0.509053
523.957120,0.517403
524.286620,0.513809
524.616080,0.512410
524.945500,0.519897
525.274880,0.520780
525.604220,0.515010
525.933520,0.519392
526.262780,0.503294
526.592000,0.517504
526.921180,0.516506
527.250320,0.512938
527.579420,0.507327
527.908480,0.516002
528.237500,0.520854
528.566480,0.528942
528.895420,0.517496
529.224320,0.522536
529.553180,0.512289
529.882000,0.520681
530.210780,0.508205
530.539520,0.521093
530.868220,0.517472
531.196880,0.514095
531.525500,0.524939
531.854080,0.512664
532.182620,0.508641
532.511120,0.518794
532.839580,0.519964
533.168000,0.518232
533.496380,0.521918
533.824720,0.513235
534.153020,0.522069
534.481280,0.523348
534.809500,0.524626
535.137680,0.514323
535.465820,0.512887
535.793920,0.517343
536.121980,0.521611
536.450000,0.517970
536.777980,0.528697
537.105920,0.518888
537.433820,0.519640
537.761680,0.523673
538.089500,0.527722
538.417280,0.514922
538.745020,0.521395
539.072720,0.521281
539.400380,0.520591
539.728000,0.519694
540.055580,0.520599
540.383120,0.514892
540.710620,0.518973
541.038080,0.530432
541.365500,0.520588
541.692880,0.518532
542.020220,0.521770
542.347520,0.521177
542.674780,0.523641
543.002000,0.517845
543.329180,0.526482
543.656320,0.521800
543.983420,0.516923
544.310480,0.510703
544.637500,0.528830
544.964480,0.520188
545.291420,0.519109
545.618320,0.517928
545.945180,0.512854
546.272000,0.515072
546.598780,0.520157
546.925520,0.526871
547.252220,0.516342
547.578880,0.517107
547.905500,0.520588
548.232080,0.520793
548.558620,0.517735
548.885120,0.519791
549.211580,0.519769
549.538000,0.521725
549.864380,0.521865
550.190720,0.525347
550.517020,0.523468
550.843280,0.527687
551.169500,0.509860
551.495680,0.514783
551.821820,0.515676
552.147920,0.515615
552.473980,0.522555
552.800000,0.514061
553.125980,0.522921
553.451920,0.519575
553.777820,0.525983
554.103680,0.519043
554.429500,0.521594
554.755280,0.521028
555.081020,0.514037
555.406720,0.518117
555.732380,0.518129
556.058000,0.519009
556.383580,0.516262
556.709120,0.518263
557.034620,0.522907
557.360080,0.517444
557.685500,0.515560
558.010880,0.518891
558.336220,0.517750
558.661520,0.518610
558.986780,0.529766
559.312000,0.519231
559.637180,0.514901
559.962320,0.511214
560.287420,0.522567
560.612480,0.516326
560.937500,0.525330
561.262480,0.521628
561.587420,0.513602
561.912320,0.514370
562.237180,0.513694
562.562000,0.514029
562.886780,0.523597
563.211520,0.508942
563.536220,0.514286
563.860880,0.521690
564.185500,0.512570
564.510080,0.521068
564.834620,0.517678
565.159120,0.515038
565.483580,0.515393
565.808000,0.513810
566.132380,0.516598
566.456720,0.523054
566.781020,0.515004
567.105280,0.515690
567.429500,0.520106
567.753680,0.527426
568.077820,0.519134
568.401920,0.528266
568.725980,0.521063
569.050000,0.522053
569.373980,0.516178
569.697920,0.510429
570.021820,0.518352
570.345680,0.515882
570.669500,0.518504
570.993280,0.514212
571.317020,0.519182
571.640720,0.525009
571.964380,0.518560
572.288000,0.511499
572.611580,0.521528
572.935120,0.522634
573.258620,0.517951
573.582080,0.514531
573.905500,0.518243
574.228880,0.523756
574.552220,0.511176
574.875520,0.523455
575.198780,0.516444
575.522000,0.519428
575.845180,0.514327
576.168320,0.512037
576.491420,0.529433
576.814480,0.520796
577.137500,0.516595
577.460480,0.518666
577.783420,0.522329
578.106320,0.525997
578.429180,0.515376
578.752000,0.516846
579.074780,0.518206
579.397520,0.517753
579.720220,0.517375
580.042880,0.522299
580.365500,0.519193
580.688080,0.518657
581.010620,0.514006
581.333120,0.521376
581.655580,0.520480
581.978000,0.520452
582.300380,0.513470
582.622720,0.521424
582.945020,0.522757
583.267280,0.510583
583.589500,0.521990
583.911680,0.522706
584.233820,0.515581
584.555920,0.518122
584.877980,0.519158
585.200000,0.508594
585.521980,0.522706
585.843920,0.523185
586.165820,0.524985
586.487680,0.516702
586.809500,0.519052
587.131280,0.509908
587.453020,0.520833
587.774720,0.515080
588.096380,0.518670
588.418000,0.522388
588.739580,0.527738
589.061120,0.527315
589.382620,0.524928
589.704080,0.518373
590.025500,0.527112
590.346880,0.517426
590.668220,0.522263
590.989520,0.512479
591.310780,0.525822
591.632000,0.521038
591.953180,0.517575
592.274320,0.514606
592.595420,0.521552
592.916480,0.514534
593.237500,0.519267
593.558480,0.527576
593.879420,0.522525
594.200320,0.521564
594.521180,0.517928
594.842000,0.522837
595.162780,0.512286
595.483520,0.520606
595.804220,0.525242
596.124880,0.521716
596.445500,0.515850
596.766080,0.523259
597.086620,0.523885
597.407120,0.516851
597.727580,0.523469
598.048000,0.514943
598.368380,0.517885
598.688720,0.515596
599.009020,0.513800
599.329280,0.521288
599.649500,0.511358
599.969680,0.523237
600.289820,0.520833
600.609920,0.515362
600.929980,0.518707
601.250000,0.517568
601.569980,0.515258
601.889920,0.512964
602.209820,0.512716
602.529680,0.525954
602.849500,0.509274
603.169280,0.519702
603.489020,0.522004
603.808720,0.512342
604.128380,0.513521
604.448000,0.514365
604.767580,0.515363
605.087120,0.519668
605.406620,0.516373
605.726080,0.523524
606.045500,0.514907
606.364880,0.510065
606.684220,0.517990
607.003520,0.508601
607.322780,0.514781
607.642000,0.506605
607.961180,0.516045
608.280320,0.519432
608.599420,0.503766
608.918480,0.521114
609.237500,0.515258
609.556480,0.519680
609.875420,0.514176
610.194320,0.515796
610.513180,0.518201
610.832000,0.518463
611.150780,0.511865
611.469520,0.509502
611.788220,0.515115
612.106880,0.511158
612.425500,0.516748
612.744080,0.517082
613.062620,0.508869
613.381120,0.515844
613.699580,0.519926
614.018000,0.516585
614.336380,0.513572
614.654720,0.511008
614.973020,0.506942
615.291280,0.511931
615.609500,0.520444
615.927680,0.506180
616.245820,0.510204
616.563920,0.509792
616.881980,0.515747
617.200000,0.508243
617.517980,0.505289
617.835920,0.508854
618.153820,0.506372
618.471680,0.507287
618.789500,0.515104
619.107280,0.516745
619.425020,0.513162
619.742720,0.517263
620.060380,0.503291
620.378000,0.515733
620.695580,0.508301
621.013120,0.505197
621.330620,0.515846
621.648080,0.504101
621.965500,0.511292
622.282880,0.508197
622.600220,0.506633
622.917520,0.508507
623.234780,0.512697
623.552000,0.509866
623.869180,0.515600
624.186320,0.510347
624.503420,0.511599
624.820480,0.518693
625.137500,0.515630
625.454480,0.507346
625.771420,0.507251
626.088320,0.510404
626.405180,0.509023
626.722000,0.509410
627.038780,0.508145
627.355520,0.506875
627.672220,0.510731
627.988880,0.508243
628.305500,0.513244
628.622080,0.517968
628.938620,0.507339
629.255120,0.514935
629.571580,0.509347
629.888000,0.507211
630.204380,0.503529
630.520720,0.515235
630.837020,0.507863
631.153280,0.513189
631.469500,0.509703
631.785680,0.503918
632.101820,0.508745
632.417920,0.503130
632.733980,0.508403
633.050000,0.515161
633.365980,0.513337
633.681920,0.503878
633.997820,0.506874
634.313680,0.508994
634.629500,0.495724
634.945280,0.507625
635.261020,0.506311
635.576720,0.515267
635.892380,0.503631
636.208000,0.511040
636.523580,0.510669
636.839120,0.506659
637.154620,0.506377
637.470080,0.502726
637.785500,0.510844
638.100880,0.512308
638.416220,0.514812
638.731520,0.504298
639.046780,0.509467
639.362000,0.503440
639.677180,0.507139
639.992320,0.505780
640.307420,0.508851
640.622480,0.506861
640.937500,0.506796
641.252480,0.508238
641.567420,0.515203
641.882320,0.502506
642.197180,0.514318
642.512000,0.511055
642.826780,0.501526
643.141520,0.504307
643.456220,0.500830
643.770880,0.507463
644.085500,0.508944
644.400080,0.508989
644.714620,0.512542
645.029120,0.502475
645.343580,0.503291
645.658000,0.508743
645.972380,0.504522
646.286720,0.502862
646.601020,0.508995
646.915280,0.509186
647.229500,0.505495
647.543680,0.505938
647.857820,0.502615
648.171920,0.506240
648.485980,0.502878
648.800000,0.505924
649.113980,0.504712
649.427920,0.505409
649.741820,0.508656
650.055680,0.508777
650.369500,0.506166
650.683280,0.499723
650.997020,0.507151
651.310720,0.500550
651.624380,0.496978
651.938000,0.507756
652.251580,0.506819
652.565120,0.495808
652.878620,0.502252
653.192080,0.503933
653.505500,0.497616
653.818880,0.513506
654.132220,0.501282
654.445520,0.502269
654.758780,0.494334
655.072000,0.500000
655.385180,0.495863
655.698320,0.498714
656.011420,0.502436
656.324480,0.504226
656.637500,0.497393
656.950480,0.499413
657.263420,0.502513
657.576320,0.490958
657.889180,0.506045
658.202000,0.502114
658.514780,0.499851
658.827520,0.502401
659.140220,0.497453
659.452880,0.499547
659.765500,0.493076
660.078080,0.489618
660.390620,0.499542
660.703120,0.503208
661.015580,0.496012
661.328000,0.504093
661.640380,0.504194
661.952720,0.501090
662.265020,0.498110
662.577280,0.494911
662.889500,0.499212
663.201680,0.500319
663.513820,0.497266
663.825920,0.497598
664.137980,0.496768
664.450000,0.489770
664.761980,0.489689
665.073920,0.495618
665.385820,0.495092
665.697680,0.499835
666.009500,0.499834
666.321280,0.494698
666.633020,0.492021
666.944720,0.495450
667.256380,0.497308
667.568000,0.492187
667.879580,0.497619
668.191120,0.496909
668.502620,0.492640
668.814080,0.497544
669.125500,0.488881
669.436880,0.491701
669.748220,0.493943
670.059520,0.495098
670.370780,0.493737
670.682000,0.499115
670.993180,0.497886
671.304320,0.488045
671.615420,0.493608
671.926480,0.490774
672.237500,0.487674
672.548480,0.489354
672.859420,0.493567
673.170320,0.488212
673.481180,0.494931
673.792000,0.483952
674.102780,0.489048
674.413520,0.485964
674.724220,0.488929
675.034880,0.485882
675.345500,0.493800
675.656080,0.488203
675.966620,0.491815
676.277120,0.490663
676.587580,0.490427
676.898000,0.486749
677.208380,0.487985
677.518720,0.483953
677.829020,0.492239
678.139280,0.483692
678.449500,0.487932
678.759680,0.490821
679.069820,0.485874
679.379920,0.491513
679.689980,0.487189
680.000000,0.482617
680.309980,0.487751
680.619920,0.488073
680.929820,0.490108
681.239680,0.478213
681.549500,0.479630
681.859280,0.485063
682.169020,0.487505
682.478720,0.489529
682.788380,0.481358
683.098000,0.489155
683.407580,0.486679
683.717120,0.483483
684.026620,0.483057
684.336080,0.480864
684.645500,0.476244
684.954880,0.481677
685.264220,0.481314
685.573520,0.491435
685.882780,0.490602
686.192000,0.483822
686.501180,0.485812
686.810320,0.486164
687.119420,0.488407
687.428480,0.488036
687.737500,0.479662
688.046480,0.478144
688.355420,0.480573
688.664320,0.479725
688.973180,0.480475
689.282000,0.487269
689.590780,0.479678
689.899520,0.474364
690.208220,0.486239
690.516880,0.480718
690.825500,0.481132
691.134080,0.482156
691.442620,0.483994
691.751120,0.480470
692.059580,0.478028
692.368000,0.478607
692.676380,0.492366
692.984720,0.482824
693.293020,0.476064
693.601280,0.486456
693.909500,0.480893
694.217680,0.474867
694.525820,0.479817
694.833920,0.475391
695.141980,0.482453
695.450000,0.478244
695.757980,0.472880
696.065920,0.481165
696.373820,0.476520
696.681680,0.480629
696.989500,0.484755
697.297280,0.473357
697.605020,0.490476
697.912720,0.476556
698.220380,0.480126
698.528000,0.479826
698.835580,0.474516
699.143120,0.467654
699.450620,0.469769
699.758080,0.475294
700.065500,0.479250
700.372880,0.476000
700.680220,0.468289
700.987520,0.476984
701.294780,0.479724
701.602000,0.469097
701.909180,0.479332
702.216320,0.467736
702.523420,0.468429
702.830480,0.477624
703.137500,0.471551
703.444480,0.481262
703.751420,0.472978
704.058320,0.474871
704.365180,0.474763
704.672000,0.475644
704.978780,0.475615
705.285520,0.465180
705.592220,0.468627
705.898880,0.477935
706.205500,0.470266
706.512080,0.471564
706.818620,0.474845
707.125120,0.467308
707.431580,0.470106
707.738000,0.476953
708.044380,0.475878
708.350720,0.470386
708.657020,0.477921
708.963280,0.471661
709.269500,0.467710
709.575680,0.475442
709.881820,0.472091
710.187920,0.470039
710.493980,0.470132
710.800000,0.473303
711.105980,0.461973
711.411920,0.470240
711.717820,0.476413
712.023680,0.465993
712.329500,0.474763
712.635280,0.470155
712.941020,0.475068
713.246720,0.476285
713.552380,0.472135
713.858000,0.464328
714.163580,0.473560
714.469120,0.470887
714.774620,0.471773
715.080080,0.477032
715.385500,0.469225
715.690880,0.468639
715.996220,0.473455
716.301520,0.467589
716.606780,0.470126
716.912000,0.476575
717.217180,0.476057
717.522320,0.466402
717.827420,0.473963
718.132480,0.465676
718.437500,0.473706
718.742480,0.464919
719.047420,0.463592
719.352320,0.468244
719.657180,0.470564
719.962000,0.459471
720.266780,0.461986
720.571520,0.463132
720.876220,0.465630
721.180880,0.462375
721.485500,0.461346
721.790080,0.467091
722.094620,0.473842
722.399120,0.463593
722.703580,0.463352
723.008000,0.473911
723.312380,0.466638
723.616720,0.467913
723.921020,0.464703
724.225280,0.457243
724.529500,0.458844
724.833680,0.474199
725.137820,0.466960
725.441920,0.457869
725.745980,0.466667
726.050000,0.465043
726.353980,0.460568
726.657920,0.466937
726.961820,0.472603
727.265680,0.462321
727.569500,0.462980
727.873280,0.461894
728.177020,0.464763
728.480720,0.464815
728.784380,0.465477
729.088000,0.467263
729.391580,0.462814
729.695120,0.462572
729.998620,0.465105
730.302080,0.452186
730.605500,0.462882
730.908880,0.463008
731.212220,0.456415
731.515520,0.455875
731.818780,0.454854
732.122000,0.457677
732.425180,0.449975
732.728320,0.441249
733.031420,0.454637
733.334480,0.452041
733.637500,0.444052
733.940480,0.458035
734.243420,0.458716
734.546320,0.462137
734.849180,0.448347
735.152000,0.442427
735.454780,0.449380
735.757520,0.458377
736.060220,0.459189
736.362880,0.460609
736.665500,0.445431
736.968080,0.455132
737.270620,0.460533
737.573120,0.447598
737.875580,0.453546
738.178000,0.455090
738.480380,0.455135
738.782720,0.437841
739.085020,0.450991
739.387280,0.458426
739.689500,0.451302
739.991680,0.450309
740.293820,0.451631
740.595920,0.449082
740.897980,0.454545
741.200000,0.447560
741.501980,0.455014
741.803920,0.444257
742.105820,0.447829
742.407680,0.458940
742.709500,0.451136
743.011280,0.453693
743.313020,0.450435
743.614720,0.445154
743.916380,0.443023
744.218000,0.450477
744.519580,0.455314
744.821120,0.449102
745.122620,0.448772
745.424080,0.440505
745.725500,0.449608
746.026880,0.448892
746.328220,0.460543
746.629520,0.444311
746.930780,0.444240
747.232000,0.443899
747.533180,0.443563
747.834320,0.449178
748.135420,0.441889
748.436480,0.453525
748.737500,0.447190
749.038480,0.453268
749.339420,0.451151
749.640320,0.451917
749.941180,0.454716
750.242000,0.449121
750.542780,0.443548
750.843520,0.454837
751.144220,0.447436
751.444880,0.444515
751.745500,0.448052
752.046080,0.451572
752.346620,0.438144
752.647120,0.442195
752.947580,0.445019
753.248000,0.451966
753.548380,0.450228
753.848720,0.442370
754.149020,0.441006
754.449280,0.441234
754.749500,0.435302
755.049680,0.434667
755.349820,0.435624
755.649920,0.444812
755.949980,0.445255
756.250000,0.447074
756.549980,0.435644
756.849920,0.447315
757.149820,0.424484
757.449680,0.442244
757.749500,0.438309
758.049280,0.443003
758.349020,0.437413
758.648720,0.438233
758.948380,0.438488
759.248000,0.442722
759.547580,0.436449
759.847120,0.439697
760.146620,0.449256
760.446080,0.449597
760.745500,0.438462
761.044880,0.446733
761.344220,0.436208
761.643520,0.442797
761.942780,0.446466
762.242000,0.442008
762.541180,0.442254
762.840320,0.441713
763.139420,0.431786
763.438480,0.436090
763.737500,0.438318
764.036480,0.440950
764.335420,0.441073
764.634320,0.435897
764.933180,0.434247
765.232000,0.439972
765.530780,0.434386
765.829520,0.437762
766.128220,0.439805
766.426880,0.442786
766.725500,0.432488
767.024080,0.432785
767.322620,0.444675
767.621120,0.432927
767.919580,0.441638
768.218000,0.435021
768.516380,0.442867
768.814720,0.439643
769.113020,0.440386
769.411280,0.433011
769.709500,0.438430
770.007680,0.429448
770.305820,0.434753
770.603920,0.427224
770.901980,0.438525
771.200000,0.430027
771.497980,0.423592
771.795920,0.428094
772.093820,0.433155
772.391680,0.431773
772.689500,0.432432
772.987280,0.436364
773.285020,0.435407
773.582720,0.433108
773.880380,0.438572
774.178000,0.430130
774.475580,0.440054
774.773120,0.436412
775.070620,0.444219
775.368080,0.429526
775.665500,0.427132
775.962880,0.430954
776.260220,0.427995
776.557520,0.429620
776.854780,0.446247
777.152000,0.425729
777.449180,0.432906
777.746320,0.427419
778.043420,0.440655
778.340480,0.437077
778.637500,0.446924
778.934480,0.440484
779.231420,0.423338
779.528320,0.426854
779.825180,0.424901
780.122000,0.427623
780.418780,0.432969
780.715520,0.433266
781.012220,0.447945
781.308880,0.434077
781.605500,0.428082
781.902080,0.433265
782.198620,0.425154
782.495120,0.434156
782.791580,0.441541
783.088000,0.430642
783.384380,0.433975
783.680720,0.424077
783.977020,0.428768
784.273280,0.425874
784.569500,0.439553
784.865680,0.431850
785.161820,0.424306
785.457920,0.421344
785.753980,0.439637
786.050000,0.428177
786.345980,0.418056
786.641920,0.432339
786.937820,0.430912
787.233680,0.423104
787.529500,0.416782
787.825280,0.425637
788.121020,0.432011
788.416720,0.419901
788.712380,0.423836
789.008000,0.424221
789.303580,0.415548
789.599120,0.429091
789.894620,0.424549
790.190080,0.419144
790.485500,0.419726
790.780880,0.415771
791.076220,0.434343
791.371520,0.416848
791.666780,0.422545
791.962000,0.432035
792.257180,0.424597
792.552320,0.422770
792.847420,0.426492
793.142480,0.431502
793.437500,0.423300
793.732480,0.428676
794.027420,0.419881
794.322320,0.420582
794.617180,0.420505
794.912000,0.424963
795.206780,0.420582
795.501520,0.431939
795.796220,0.422963
796.090880,0.424265
796.385500,0.417541
796.680080,0.416604
796.974620,0.427395
797.269120,0.419379
797.563580,0.425191
797.858000,0.417616
798.152380,0.423047
798.446720,0.423846
798.741020,0.421418
799.035280,0.429348
799.329500,0.426482
799.623680,0.420930
