399.985280,0.432432
400.329500,0.540541
400.673680,0.506329
401.017820,0.470588
401.361920,0.515152
401.705980,0.463415
402.050000,0.480519
402.393980,0.541176
402.737920,0.573034
403.081820,0.536082
403.425680,0.500000
403.769500,0.468750
404.113280,0.517241
404.457020,0.561798
404.800720,0.478261
405.144380,0.505051
405.488000,0.580645
405.831580,0.525773
406.175120,0.436170
406.518620,0.540000
406.862080,0.484536
407.205500,0.510417
407.548880,0.551020
407.892220,0.460784
408.235520,0.521277
408.578780,0.504762
408.922000,0.519231
409.265180,0.484848
409.608320,0.565657
409.951420,0.577320
410.294480,0.519608
410.637500,0.565217
410.980480,0.509804
411.323420,0.510204
411.666320,0.532110
412.009180,0.500000
412.352000,0.495050
412.694780,0.550459
413.037520,0.477064
413.380220,0.549550
413.722880,0.571429
414.065500,0.567568
414.408080,0.513274
414.750620,0.495575
415.093120,0.512397
415.435580,0.563025
415.778000,0.553030
416.120380,0.537815
416.462720,0.547619
416.805020,0.563910
417.147280,0.559701
417.489500,0.571429
417.831680,0.527397
418.173820,0.539007
418.515920,0.510490
418.857980,0.474684
419.200000,0.493590
419.541980,0.520710
419.883920,0.488764
420.225820,0.589595
420.567680,0.502793
420.909500,0.573770
421.251280,0.536458
421.593020,0.520408
421.934720,0.560606
422.276380,0.528205
422.618000,0.558824
422.959580,0.539216
423.301120,0.547945
423.642620,0.491304
423.984080,0.520930
424.325500,0.511211
424.666880,0.500000
425.008220,0.550420
425.349520,0.516949
425.690780,0.492308
426.032000,0.513725
426.373180,0.547718
426.714320,0.527344
427.055420,0.498069
427.396480,0.516854
427.737500,0.501976
428.078480,0.498024
428.419420,0.510040
428.760320,0.490421
429.101180,0.535433
429.442000,0.524904
429.782780,0.496154
430.123520,0.537255
430.464220,0.542435
430.804880,0.536398
431.145500,0.498182
431.486080,0.528090
431.826620,0.515504
432.167120,0.500000
432.507580,0.543478
432.848000,0.528777
433.188380,0.530686
433.528720,0.524528
433.869020,0.539286
434.209280,0.498246
434.549500,0.529617
434.889680,0.515152
435.229820,0.515358
435.569920,0.522491
435.909980,0.478964
436.250000,0.505085
436.589980,0.489164
436.929920,0.546032
437.269820,0.529781
437.609680,0.520710
437.949500,0.518072
438.289280,0.498584
438.629020,0.517442
438.968720,0.517442
439.308380,0.509485
439.648000,0.526027
439.987580,0.513228
440.327120,0.528000
440.666620,0.522078
441.006080,0.519182
441.345500,0.503686
441.684880,0.502392
442.024220,0.521092
442.363520,0.514286
442.702780,0.527273
443.042000,0.537445
443.381180,0.521552
443.720320,0.529158
444.059420,0.516807
444.398480,0.541841
444.737500,0.514344
445.076480,0.500000
445.415420,0.510978
445.754320,0.519751
446.093180,0.511927
446.432000,0.515038
446.770780,0.519924
447.109520,0.518382
447.448220,0.513417
447.786880,0.511628
448.125500,0.506897
448.464080,0.521429
448.802620,0.539007
449.141120,0.510381
449.479580,0.520979
449.818000,0.538726
450.156380,0.505017
450.494720,0.497521
450.833020,0.522727
451.171280,0.503425
451.509500,0.520906
451.847680,0.527825
452.185820,0.512909
452.523920,0.513746
452.861980,0.507589
453.200000,0.516611
453.537980,0.494118
453.875920,0.517647
454.213820,0.501712
454.551680,0.498344
454.889500,0.499157
455.227280,0.492883
455.565020,0.520938
455.902720,0.530782
456.240380,0.504160
456.578000,0.536585
456.915580,0.518135
457.253120,0.496711
457.590620,0.520525
457.928080,0.531987
458.265500,0.521959
458.602880,0.500000
458.940220,0.521151
459.277520,0.486400
459.614780,0.502455
459.952000,0.503106
460.289180,0.512658
460.626320,0.516535
460.963420,0.508885
461.300480,0.516820
461.637500,0.516179
461.974480,0.518349
462.311420,0.514158
462.648320,0.500732
462.985180,0.503587
463.322000,0.516369
463.658780,0.500000
463.995520,0.511692
464.332220,0.506925
464.668880,0.532258
465.005500,0.525469
465.342080,0.518566
465.678620,0.515375
466.015120,0.514877
466.351580,0.525917
466.688000,0.524970
467.024380,0.506683
467.360720,0.512500
467.697020,0.512528
468.033280,0.528889
468.369500,0.522075
468.705680,0.512965
469.041820,0.497917
469.377920,0.494577
469.713980,0.501545
470.050000,0.517874
470.385980,0.507828
470.721920,0.507346
471.057820,0.526316
471.393680,0.507951
471.729500,0.512512
472.065280,0.518784
472.401020,0.499113
472.736720,0.513962
473.072380,0.512567
473.408000,0.506527
473.743580,0.511246
474.079120,0.510767
474.414620,0.522477
474.750080,0.499593
475.085500,0.517270
475.420880,0.515404
475.756220,0.496321
476.091520,0.503836
476.426780,0.510518
476.762000,0.495575
477.097180,0.511200
477.432320,0.507270
477.767420,0.507353
478.102480,0.488976
478.437500,0.519704
478.772480,0.499606
479.107420,0.512612
479.442320,0.501998
479.777180,0.513922
480.112000,0.487673
480.446780,0.501949
480.781520,0.504026
481.116220,0.521423
481.450880,0.489461
481.785500,0.520570
482.120080,0.511755
482.454620,0.504274
482.789120,0.509554
483.123580,0.505452
483.458000,0.507911
483.792380,0.514377
484.126720,0.506564
484.461020,0.505074
484.795280,0.511180
485.129500,0.502728
485.463680,0.505426
485.797820,0.506998
486.131920,0.508034
486.465980,0.504247
486.800000,0.509924
487.133980,0.506042
487.467920,0.513389
487.801820,0.517162
488.135680,0.509477
488.469500,0.498487
488.803280,0.500000
489.137020,0.510623
489.470720,0.509644
489.804380,0.517446
490.138000,0.514837
490.471580,0.515107
490.805120,0.506791
491.138620,0.515991
491.472080,0.508127
491.805500,0.497211
492.138880,0.507992
492.472220,0.510035
492.805520,0.511872
493.138780,0.510682
493.472000,0.503679
493.805180,0.527285
494.138320,0.515677
494.471420,0.511068
494.804480,0.503234
495.137500,0.512195
495.470480,0.517527
495.803420,0.512594
496.136320,0.516917
496.469180,0.507673
496.802000,0.509780
497.134780,0.512432
497.467520,0.519878
497.800220,0.505896
498.132880,0.510288
498.465500,0.495365
498.798080,0.502854
499.130620,0.511510
499.463120,0.513195
499.795580,0.509351
500.128000,0.511172
500.460380,0.510226
500.792720,0.501591
501.125020,0.514451
501.457280,0.506005
501.789500,0.511364
502.121680,0.514774
502.453820,0.507904
502.785920,0.508254
503.117980,0.516683
503.450000,0.518332
503.781980,0.512207
504.113920,0.497866
504.445820,0.506077
504.777680,0.503529
505.109500,0.512019
505.441280,0.509082
505.773020,0.511508
506.104720,0.509185
506.436380,0.513961
506.768000,0.514967
507.099580,0.508467
507.431120,0.511007
507.762620,0.521147
508.094080,0.505925
508.425500,0.507003
508.756880,0.514403
509.088220,0.511500
509.419520,0.508845
509.750780,0.513590
510.082000,0.505131
510.413180,0.509443
510.744320,0.508053
511.075420,0.511457
511.406480,0.511048
511.737500,0.501389
512.068480,0.508929
512.399420,0.515493
512.730320,0.511778
513.061180,0.505233
513.392000,0.504969
513.722780,0.510567
514.053520,0.512218
514.384220,0.510942
514.714880,0.511728
515.045500,0.505747
515.376080,0.507506
515.706620,0.507550
516.037120,0.506373
516.367580,0.511582
516.698000,0.503431
517.028380,0.512413
517.358720,0.516543
517.689020,0.506924
518.019280,0.515805
518.349500,0.504308
518.679680,0.506310
519.009820,0.512652
519.339920,0.509519
519.669980,0.503265
520.000000,0.509934
520.329980,0.521514
520.659920,0.510225
520.989820,0.507740
521.319680,0.515947
521.649500,0.509512
521.979280,0.513570
522.309020,0.509336
522.638720,0.502816
522.968380,0.515512
523.298000,0.512526
523.627580,0.509053
523.957120,0.508052
524.286620,0.513809
524.616080,0.505171
524.945500,0.505426
525.274880,0.510518
525.604220,0.510870
525.933520,0.502621
526.262780,0.504308
526.592000,0.512938
526.921180,0.506348
527.250320,0.504313
527.579420,0.517938
527.908480,0.507139
528.237500,0.508937
528.566480,0.505988
528.895420,0.509118
529.224320,0.508668
529.553180,0.510361
529.882000,0.507056
530.210780,0.502413
530.539520,0.511505
530.868220,0.512685
531.196880,0.498806
531.525500,0.519128
531.854080,0.503283
532.182620,0.513312
532.511120,0.509513
532.839580,0.514519
533.168000,0.509116
533.496380,0.506849
533.824720,0.498878
534.153020,0.514935
534.481280,0.509251
534.809500,0.511434
535.137680,0.509983
535.465820,0.504725
535.793920,0.509306
536.121980,0.509442
536.450000,0.520507
536.777980,0.511102
537.105920,0.523869
537.433820,0.514730
537.761680,0.517551
538.089500,0.516390
538.417280,0.507362
538.745020,0.513867
539.072720,0.510738
539.400380,0.509324
539.728000,0.509369
540.055580,0.510112
540.383120,0.509680
540.710620,0.507068
541.038080,0.514939
541.365500,0.513603
541.692880,0.517078
542.020220,0.508096
542.347520,0.521536
542.674780,0.514114
543.002000,0.505598
543.329180,0.520519
543.656320,0.516174
543.983420,0.508376
544.310480,0.507645
544.637500,0.522006
544.964480,0.516824
545.291420,0.501828
545.618320,0.518592
545.945180,0.508899
546.272000,0.505242
546.598780,0.511308
546.925520,0.518299
547.252220,0.514691
547.578880,0.510264
547.905500,0.514379
548.232080,0.510721
548.558620,0.507647
548.885120,0.509323
549.211580,0.508197
549.538000,0.516213
549.864380,0.502251
550.190720,0.505328
550.517020,0.505541
550.843280,0.515309
551.169500,0.504453
551.495680,0.507556
551.821820,0.512084
552.147920,0.514314
552.473980,0.508396
552.800000,0.506213
553.125980,0.514735
553.451920,0.517253
553.777820,0.510993
554.103680,0.506235
554.429500,0.509207
554.755280,0.508011
555.081020,0.509358
555.406720,0.513715
555.732380,0.503219
556.058000,0.514596
556.383580,0.497775
556.709120,0.507926
557.034620,0.512573
557.360080,0.503972
557.685500,0.509336
558.010880,0.505026
558.336220,0.502636
558.661520,0.514357
558.986780,0.509922
559.312000,0.508547
559.637180,0.506643
559.962320,0.515130
560.287420,0.510578
560.612480,0.503767
560.937500,0.512849
561.262480,0.518328
561.587420,0.511425
561.912320,0.511422
562.237180,0.507772
562.562000,0.506547
562.886780,0.513192
563.211520,0.506706
563.536220,0.503896
563.860880,0.508110
564.185500,0.499062
564.510080,0.509406
564.834620,0.500930
565.159120,0.506015
565.483580,0.497529
565.808000,0.507756
566.132380,0.500186
566.456720,0.509826
566.781020,0.506377
567.105280,0.500567
567.429500,0.509105
567.753680,0.503260
568.077820,0.495555
568.401920,0.516425
568.725980,0.508159
569.050000,0.513688
569.373980,0.501332
569.697920,0.510808
570.021820,0.508989
570.345680,0.512821
570.669500,0.511255
570.993280,0.503138
571.317020,0.506394
571.640720,0.508336
571.964380,0.506682
572.288000,0.500000
572.611580,0.503931
572.935120,0.498691
573.258620,0.500748
573.582080,0.501863
573.905500,0.512286
574.228880,0.510765
574.552220,0.499817
574.875520,0.510797
575.198780,0.499096
575.522000,0.503299
575.845180,0.500000
576.168320,0.501617
576.491420,0.506904
576.814480,0.504521
577.137500,0.509380
577.460480,0.510330
577.783420,0.508753
578.106320,0.512108
578.429180,0.507600
578.752000,0.510247
579.074780,0.505394
579.397520,0.505487
579.720220,0.510940
580.042880,0.517674
580.365500,0.511582
580.688080,0.514586
581.010620,0.511306
581.333120,0.504342
581.655580,0.509158
581.978000,0.515796
582.300380,0.507303
582.622720,0.514173
582.945020,0.509428
583.267280,0.507001
583.589500,0.507223
583.911680,0.510321
584.233820,0.507712
584.555920,0.505830
584.877980,0.514447
585.200000,0.501228
585.521980,0.514983
585.843920,0.506406
586.165820,0.507617
586.487680,0.507674
586.809500,0.511851
587.131280,0.511683
587.453020,0.514881
587.774720,0.510940
588.096380,0.512252
588.418000,0.510682
588.739580,0.516528
589.061120,0.503738
589.382620,0.505444
589.704080,0.510799
590.025500,0.511416
590.346880,0.509275
590.668220,0.515262
590.989520,0.507210
591.310780,0.513946
591.632000,0.510109
591.953180,0.510379
592.274320,0.504232
592.595420,0.501886
592.916480,0.506927
593.237500,0.508219
593.558480,0.513317
593.879420,0.512004
594.200320,0.511921
594.521180,0.503851
594.842000,0.511016
595.162780,0.501870
595.483520,0.504919
595.804220,0.508861
596.124880,0.510791
596.445500,0.510872
596.766080,0.515461
597.086620,0.503450
597.407120,0.500263
597.727580,0.516043
598.048000,0.503570
598.368380,0.510258
598.688720,0.506422
599.009020,0.507696
599.329280,0.509846
599.649500,0.503962
599.969680,0.508280
600.289820,0.505342
600.609920,0.504408
600.929980,0.501871
601.250000,0.508378
601.569980,0.505266
601.889920,0.512163
602.209820,0.507035
602.529680,0.513321
602.849500,0.504364
603.169280,0.506751
603.489020,0.510102
603.808720,0.501371
604.128380,0.505243
604.448000,0.504696
604.767580,0.505866
605.087120,0.506094
605.406620,0.504338
605.726080,0.510408
606.045500,0.501254
606.364880,0.503261
606.684220,0.502856
607.003520,0.497706
607.322780,0.506822
607.642000,0.503159
607.961180,0.503614
608.280320,0.504350
608.599420,0.497972
608.918480,0.502346
609.237500,0.497946
609.556480,0.499852
609.875420,0.507383
610.194320,0.504576
610.513180,0.507547
610.832000,0.505658
611.150780,0.507960
611.469520,0.506184
611.788220,0.501511
612.106880,0.499698
612.425500,0.500914
612.744080,0.500154
613.062620,0.499388
613.381120,0.496648
613.699580,0.508584
614.018000,0.505835
614.336380,0.504935
614.654720,0.499845
614.973020,0.501080
615.291280,0.503254
615.609500,0.507132
615.927680,0.495674
616.245820,0.499382
616.563920,0.500155
616.881980,0.499844
617.200000,0.502333
617.517980,0.493466
617.835920,0.502019
618.153820,0.496114
618.471680,0.499535
618.789500,0.507552
619.107280,0.498279
619.425020,0.502062
619.742720,0.498431
620.060380,0.492322
620.378000,0.495595
620.695580,0.500639
621.013120,0.495118
621.330620,0.502981
621.648080,0.495584
621.965500,0.486198
622.282880,0.495902
622.600220,0.497473
622.917520,0.499685
623.234780,0.504982
623.552000,0.500637
623.869180,0.492594
624.186320,0.496657
624.503420,0.500000
624.820480,0.498586
625.137500,0.503000
625.454480,0.502344
625.771420,0.495902
626.088320,0.494325
626.405180,0.500000
626.722000,0.495295
627.038780,0.492481
627.355520,0.498437
627.672220,0.494868
627.988880,0.496734
628.305500,0.498598
628.622080,0.502788
628.938620,0.498471
629.255120,0.499378
629.571580,0.498621
629.888000,0.499233
630.204380,0.501074
630.520720,0.496953
630.837020,0.496454
631.153280,0.497302
631.469500,0.497574
631.785680,0.501808
632.101820,0.496984
632.417920,0.499851
632.733980,0.497299
633.050000,0.501516
633.365980,0.493776
633.681920,0.492542
633.997820,0.495816
634.313680,0.498083
634.629500,0.493955
634.945280,0.492082
635.261020,0.502495
635.576720,0.502055
635.892380,0.490851
636.208000,0.491575
636.523580,0.499269
636.839120,0.502895
637.154620,0.502319
637.470080,0.494405
637.785500,0.502638
638.100880,0.495801
638.416220,0.502445
638.731520,0.492837
639.046780,0.501311
639.362000,0.498280
639.677180,0.490577
639.992320,0.496194
640.307420,0.493116
640.622480,0.491179
640.937500,0.498197
641.252480,0.495951
641.567420,0.500995
641.882320,0.491927
642.197180,0.494666
642.512000,0.489784
642.826780,0.498474
643.141520,0.495138
643.456220,0.499170
643.770880,0.501106
644.085500,0.489659
644.400080,0.501404
644.714620,0.494426
645.029120,0.493399
645.343580,0.497257
645.658000,0.495976
645.972380,0.500411
646.286720,0.489507
646.601020,0.494326
646.915280,0.495202
647.229500,0.489560
647.543680,0.494062
647.857820,0.500688
648.171920,0.493218
648.485980,0.492464
648.800000,0.487738
649.113980,0.494734
649.427920,0.495700
649.741820,0.490794
650.055680,0.487658
650.369500,0.492433
650.683280,0.489179
650.997020,0.492024
651.310720,0.486516
651.624380,0.491758
651.938000,0.487812
652.251580,0.483718
652.565120,0.487423
652.878620,0.494651
653.192080,0.489888
653.505500,0.486676
653.818880,0.491612
654.132220,0.487041
654.445520,0.490074
654.758780,0.485836
655.072000,0.489971
655.385180,0.481598
655.698320,0.488711
656.011420,0.490398
656.324480,0.497523
656.637500,0.482619
656.950480,0.487669
657.263420,0.483890
657.576320,0.478802
657.889180,0.483633
658.202000,0.487923
658.514780,0.487645
658.827520,0.489796
659.140220,0.486964
659.452880,0.484446
659.765500,0.484347
660.078080,0.480590
660.390620,0.486404
660.703120,0.484876
661.015580,0.489877
661.328000,0.494018
661.640380,0.485865
661.952720,0.491124
662.265020,0.486452
662.577280,0.479008
662.889500,0.479975
663.201680,0.490747
663.513820,0.487295
663.825920,0.484470
664.137980,0.491597
664.450000,0.471867
664.761980,0.478560
665.073920,0.482960
665.385820,0.482657
665.697680,0.482314
666.009500,0.489857
666.321280,0.477800
666.633020,0.474069
666.944720,0.479609
667.256380,0.475437
667.568000,0.473505
667.879580,0.486054
668.191120,0.481799
668.502620,0.482027
668.814080,0.488070
669.125500,0.480671
669.436880,0.479599
669.748220,0.478712
670.059520,0.484594
670.370780,0.472860
670.682000,0.482832
670.993180,0.481677
671.304320,0.475738
671.615420,0.479048
671.926480,0.472676
672.237500,0.469811
672.548480,0.474095
672.859420,0.477127
673.170320,0.478781
673.481180,0.484070
673.792000,0.473855
674.102780,0.477558
674.413520,0.476850
674.724220,0.484211
675.034880,0.481848
675.345500,0.475565
675.656080,0.481307
675.966620,0.480175
676.277120,0.482607
676.587580,0.480118
676.898000,0.483389
677.208380,0.472089
677.518720,0.462801
677.829020,0.476718
678.139280,0.471831
678.449500,0.476792
678.759680,0.476208
679.069820,0.474349
679.379920,0.477933
679.689980,0.470850
680.000000,0.465794
680.309980,0.474759
680.619920,0.482772
680.929820,0.470698
681.239680,0.469350
681.549500,0.469259
681.859280,0.474235
682.169020,0.469974
682.478720,0.482797
682.788380,0.470653
683.098000,0.471578
683.407580,0.480300
683.717120,0.466592
684.026620,0.471762
684.336080,0.478969
684.645500,0.466891
684.954880,0.468077
685.264220,0.474141
685.573520,0.475828
685.882780,0.479095
686.192000,0.469526
686.501180,0.472947
686.810320,0.471945
687.119420,0.477385
687.428480,0.473984
687.737500,0.473139
688.046480,0.467791
688.355420,0.462467
688.664320,0.470543
688.973180,0.460949
689.282000,0.471836
689.590780,0.469325
689.899520,0.459552
690.208220,0.470566
690.516880,0.471172
690.825500,0.462264
691.134080,0.460896
691.442620,0.462652
691.751120,0.464922
692.059580,0.471150
692.368000,0.459674
692.676380,0.475191
692.984720,0.462595
693.293020,0.471125
693.601280,0.471576
693.909500,0.458948
694.217680,0.465727
694.525820,0.474105
694.833920,0.464708
695.141980,0.465484
695.450000,0.464122
695.757980,0.476318
696.065920,0.464078
696.373820,0.466898
696.681680,0.457998
696.989500,0.461984
697.297280,0.452742
697.605020,0.470635
697.912720,0.462721
698.220380,0.459662
698.528000,0.471519
698.835580,0.456341
699.143120,0.457132
699.450620,0.461814
699.758080,0.453333
700.065500,0.460894
700.372880,0.464000
700.680220,0.466693
700.987520,0.467460
701.294780,0.470397
701.602000,0.452456
701.909180,0.466614
702.216320,0.459914
702.523420,0.465667
702.830480,0.470891
703.137500,0.457132
703.444480,0.467061
703.751420,0.468245
704.058320,0.462604
704.365180,0.460962
704.672000,0.460198
704.978780,0.462349
705.285520,0.455008
705.592220,0.452549
705.898880,0.456265
706.205500,0.458529
706.512080,0.458531
706.818620,0.474845
707.125120,0.467692
707.431580,0.457601
707.738000,0.455859
708.044380,0.455809
708.350720,0.455101
708.657020,0.465025
708.963280,0.458851
709.269500,0.459883
709.575680,0.463654
709.881820,0.456761
710.187920,0.461868
710.493980,0.460434
710.800000,0.454233
711.105980,0.452937
711.411920,0.450138
711.717820,0.457700
712.023680,0.460941
712.329500,0.462539
712.635280,0.464341
712.941020,0.456127
713.246720,0.463241
713.552380,0.454082
713.858000,0.461175
714.163580,0.451855
714.469120,0.456038
714.774620,0.455586
715.080080,0.453475
715.385500,0.462030
715.690880,0.449704
715.996220,0.455626
716.301520,0.455731
716.606780,0.451258
716.912000,0.461228
717.217180,0.456903
717.522320,0.449304
717.827420,0.457282
718.132480,0.452027
718.437500,0.454953
718.742480,0.451210
719.047420,0.448220
719.352320,0.449564
719.657180,0.463205
719.962000,0.446650
720.266780,0.448276
720.571520,0.451118
720.876220,0.454992
721.180880,0.454431
721.485500,0.457585
721.790080,0.448408
722.094620,0.458834
722.399120,0.452822
722.703580,0.452636
723.008000,0.442863
723.312380,0.450280
723.616720,0.441564
723.921020,0.458640
724.225280,0.450698
724.529500,0.443082
724.833680,0.449288
725.137820,0.454185
725.441920,0.447615
725.745980,0.444295
726.050000,0.449256
726.353980,0.443894
726.657920,0.447593
726.961820,0.441096
727.265680,0.453537
727.569500,0.442413
727.873280,0.447113
728.177020,0.447259
728.480720,0.448611
728.784380,0.444340
729.088000,0.447009
729.391580,0.447181
729.695120,0.451536
729.998620,0.451721
730.302080,0.440173
730.605500,0.442504
730.908880,0.443900
731.212220,0.444662
731.515520,0.449537
731.818780,0.448058
732.122000,0.446850
732.425180,0.443568
732.728320,0.438770
733.031420,0.441604
733.334480,0.439796
733.637500,0.440020
733.940480,0.451894
734.243420,0.437819
734.546320,0.448651
734.849180,0.443698
735.152000,0.431535
735.454780,0.434401
735.757520,0.444679
736.060220,0.438125
736.362880,0.441176
736.665500,0.431332
736.968080,0.445459
737.270620,0.451824
737.573120,0.441048
737.875580,0.452446
738.178000,0.446380
738.480380,0.441622
738.782720,0.444384
739.085020,0.431167
739.387280,0.434590
739.689500,0.434315
739.991680,0.445255
740.293820,0.433389
740.595920,0.433500
740.897980,0.440994
741.200000,0.441952
741.501980,0.439542
741.803920,0.440878
742.105820,0.443316
742.407680,0.436808
742.709500,0.432386
743.011280,0.436694
743.313020,0.442319
743.614720,0.430064
743.916380,0.431977
744.218000,0.437947
744.519580,0.439614
744.821120,0.439521
745.122620,0.432594
745.424080,0.430889
745.725500,0.432710
746.026880,0.435345
746.328220,0.429100
746.629520,0.429259
746.930780,0.425245
747.232000,0.434703
747.533180,0.428310
747.834320,0.429702
748.135420,0.427595
748.436480,0.431691
748.737500,0.425571
749.038480,0.433109
749.339420,0.437461
749.640320,0.433061
749.941180,0.434728
750.242000,0.432161
750.542780,0.428660
750.843520,0.438821
751.144220,0.434615
751.444880,0.432467
751.745500,0.436364
752.046080,0.442591
752.346620,0.425258
752.647120,0.431091
752.947580,0.426908
753.248000,0.430045
753.548380,0.430709
753.848720,0.427560
754.149020,0.424242
754.449280,0.425476
754.749500,0.424685
755.049680,0.430000
755.349820,0.426951
755.649920,0.428288
755.949980,0.431984
756.250000,0.437212
756.549980,0.422442
756.849920,0.426920
757.149820,0.417831
757.449680,0.429703
757.749500,0.428766
758.049280,0.437543
758.349020,0.418637
758.648720,0.438923
758.948380,0.423368
759.248000,0.431267
759.547580,0.430397
759.847120,0.430048
760.146620,0.431664
760.446080,0.426075
760.745500,0.427273
761.044880,0.437500
761.344220,0.422666
761.643520,0.424435
761.942780,0.424073
762.242000,0.425035
762.541180,0.427465
762.840320,0.431882
763.139420,0.421238
763.438480,0.421053
763.737500,0.429359
764.036480,0.416492
764.335420,0.434721
764.634320,0.420651
764.933180,0.429452
765.232000,0.428869
765.530780,0.423860
765.829520,0.429371
766.128220,0.421016
766.426880,0.425729
766.725500,0.422892
767.024080,0.427984
767.322620,0.430152
767.621120,0.430217
767.919580,0.418430
768.218000,0.417237
768.516380,0.425287
768.814720,0.424554
769.113020,0.427292
769.411280,0.428177
769.709500,0.431664
770.007680,0.429448
770.305820,0.415145
770.603920,0.413747
770.901980,0.424180
771.200000,0.412364
771.497980,0.422252
771.795920,0.419398
772.093820,0.413770
772.391680,0.421885
772.689500,0.418919
772.987280,0.432997
773.285020,0.422420
773.582720,0.426351
773.880380,0.431023
774.178000,0.425358
774.475580,0.422639
774.773120,0.423025
775.070620,0.423935
775.368080,0.420174
775.665500,0.417730
775.962880,0.417612
776.260220,0.425976
776.557520,0.424283
776.854780,0.423259
777.152000,0.409814
777.449180,0.426163
777.746320,0.422715
778.043420,0.422237
778.340480,0.415426
778.637500,0.423935
778.934480,0.422327
779.231420,0.421303
779.528320,0.413494
779.825180,0.405138
780.122000,0.407039
780.418780,0.430233
780.715520,0.425889
781.012220,0.429452
781.308880,0.421231
781.605500,0.417123
781.902080,0.416153
782.198620,0.412167
782.495120,0.417695
782.791580,0.430536
783.088000,0.414769
783.384380,0.409904
783.680720,0.417237
783.977020,0.410874
784.273280,0.421678
784.569500,0.416492
784.865680,0.417942
785.161820,0.423611
785.457920,0.406791
785.753980,0.419400
786.050000,0.411602
786.345980,0.418056
786.641920,0.410132
786.937820,0.434473
787.233680,0.413361
787.529500,0.415395
787.825280,0.419263
788.121020,0.407932
788.416720,0.416373
788.712380,0.413963
789.008000,0.412181
789.303580,0.418375
789.599120,0.416000
789.894620,0.421661
790.190080,0.411893
790.485500,0.408927
790.780880,0.415771
791.076220,0.406926
791.371520,0.416122
791.666780,0.418182
791.962000,0.409993
792.257180,0.409956
792.552320,0.415518
792.847420,0.411208
793.142480,0.410256
793.437500,0.411722
793.732480,0.408193
794.027420,0.410979
794.322320,0.401193
794.617180,0.401189
794.912000,0.401189
795.206780,0.410887
795.501520,0.419772
795.796220,0.409630
796.090880,0.413715
796.385500,0.402549
796.680080,0.400150
796.974620,0.407186
797.269120,0.410295
797.563580,0.406870
797.858000,0.415338
798.152380,0.410673
798.446720,0.411538
798.741020,0.396764
799.035280,0.405280
799.329500,0.408006
799.623680,0.403876
