399.985280,0.472973
400.329500,0.540541
400.673680,0.468354
401.017820,0.573529
401.361920,0.484848
401.705980,0.463415
402.050000,0.415584
402.393980,0.470588
402.737920,0.550562
403.081820,0.484536
403.425680,0.511628
403.769500,0.489583
404.113280,0.597701
404.457020,0.550562
404.800720,0.467391
405.144380,0.555556
405.488000,0.505376
405.831580,0.515464
406.175120,0.489362
406.518620,0.460000
406.862080,0.505155
407.205500,0.458333
407.548880,0.551020
407.892220,0.539216
408.235520,0.521277
408.578780,0.561905
408.922000,0.442308
409.265180,0.494949
409.608320,0.474747
409.951420,0.515464
410.294480,0.519608
410.637500,0.586957
410.980480,0.509804
411.323420,0.551020
411.666320,0.522936
412.009180,0.518182
412.352000,0.475248
412.694780,0.550459
413.037520,0.550459
413.380220,0.477477
413.722880,0.562500
414.065500,0.540541
414.408080,0.522124
414.750620,0.504425
415.093120,0.512397
415.435580,0.521008
415.778000,0.507576
416.120380,0.495798
416.462720,0.500000
416.805020,0.571429
417.147280,0.552239
417.489500,0.535714
417.831680,0.513699
418.173820,0.510638
418.515920,0.566434
418.857980,0.556962
419.200000,0.551282
419.541980,0.526627
419.883920,0.544944
420.225820,0.549133
420.567680,0.486034
420.909500,0.551913
421.251280,0.536458
421.593020,0.525510
421.934720,0.520202
422.276380,0.543590
422.618000,0.529412
422.959580,0.524510
423.301120,0.538813
423.642620,0.452174
423.984080,0.511628
424.325500,0.538117
424.666880,0.525862
425.008220,0.512605
425.349520,0.500000
425.690780,0.480769
426.032000,0.529412
426.373180,0.543568
426.714320,0.515625
427.055420,0.517375
427.396480,0.498127
427.737500,0.505929
428.078480,0.490119
428.419420,0.489960
428.760320,0.513410
429.101180,0.539370
429.442000,0.501916
429.782780,0.511538
430.123520,0.521569
430.464220,0.535055
430.804880,0.517241
431.145500,0.498182
431.486080,0.524345
431.826620,0.515504
432.167120,0.511029
432.507580,0.536232
432.848000,0.521583
433.188380,0.527076
433.528720,0.520755
433.869020,0.528571
434.209280,0.501754
434.549500,0.526132
434.889680,0.531987
435.229820,0.498294
435.569920,0.494810
435.909980,0.524272
436.250000,0.552542
436.589980,0.492260
436.929920,0.536508
437.269820,0.532915
437.609680,0.505917
437.949500,0.506024
438.289280,0.507082
438.629020,0.511628
438.968720,0.505814
439.308380,0.506775
439.648000,0.526027
439.987580,0.502646
440.327120,0.512000
440.666620,0.535065
441.006080,0.539642
441.345500,0.508600
441.684880,0.511962
442.024220,0.521092
442.363520,0.528571
442.702780,0.518182
443.042000,0.541850
443.381180,0.504310
443.720320,0.539957
444.059420,0.497899
444.398480,0.497908
444.737500,0.520492
445.076480,0.501984
445.415420,0.516966
445.754320,0.511435
446.093180,0.524771
446.432000,0.533835
446.770780,0.523719
447.109520,0.518382
447.448220,0.516995
447.786880,0.522361
448.125500,0.506897
448.464080,0.505357
448.802620,0.515957
449.141120,0.508651
449.479580,0.505245
449.818000,0.521515
450.156380,0.505017
450.494720,0.502479
450.833020,0.506993
451.171280,0.522260
451.509500,0.533101
451.847680,0.522766
452.185820,0.500861
452.523920,0.520619
452.861980,0.510961
453.200000,0.514950
453.537980,0.507563
453.875920,0.509244
454.213820,0.508562
454.551680,0.509934
454.889500,0.504216
455.227280,0.483986
455.565020,0.507538
455.902720,0.515807
456.240380,0.505824
456.578000,0.513937
456.915580,0.511226
457.253120,0.508224
457.590620,0.520525
457.928080,0.540404
458.265500,0.525338
458.602880,0.504870
458.940220,0.526227
459.277520,0.520000
459.614780,0.530278
459.952000,0.507764
460.289180,0.509494
460.626320,0.513386
460.963420,0.510501
461.300480,0.507645
461.637500,0.517720
461.974480,0.530581
462.311420,0.530551
462.648320,0.522694
462.985180,0.512195
463.322000,0.526786
463.658780,0.512431
463.995520,0.497937
464.332220,0.512465
464.668880,0.500000
465.005500,0.517426
465.342080,0.490397
465.678620,0.516605
466.015120,0.516171
466.351580,0.524652
466.688000,0.520097
467.024380,0.511543
467.360720,0.498864
467.697020,0.512528
468.033280,0.515556
468.369500,0.526490
468.705680,0.521984
469.041820,0.502083
469.377920,0.503254
469.713980,0.513903
470.050000,0.509179
470.385980,0.500000
470.721920,0.502449
471.057820,0.523392
471.393680,0.516370
471.729500,0.516219
472.065280,0.523256
472.401020,0.514184
472.736720,0.512216
473.072380,0.504488
473.408000,0.507398
473.743580,0.503460
474.079120,0.513351
474.414620,0.512299
474.750080,0.516680
475.085500,0.515625
475.420880,0.498751
475.756220,0.501226
476.091520,0.510656
476.426780,0.505663
476.762000,0.502011
477.097180,0.512800
477.432320,0.509693
477.767420,0.522059
478.102480,0.520472
478.437500,0.507389
478.772480,0.501182
479.107420,0.502848
479.442320,0.505995
479.777180,0.508353
480.112000,0.493837
480.446780,0.496493
480.781520,0.501610
481.116220,0.498787
481.450880,0.494145
481.785500,0.518196
482.120080,0.510188
482.454620,0.515152
482.789120,0.503185
483.123580,0.514019
483.458000,0.503165
483.792380,0.515974
484.126720,0.501931
484.461020,0.501952
484.795280,0.508867
485.129500,0.508963
485.463680,0.505426
485.797820,0.513997
486.131920,0.491966
486.465980,0.508880
486.800000,0.512214
487.133980,0.506042
487.467920,0.510329
487.801820,0.502670
488.135680,0.502654
488.469500,0.508321
488.803280,0.510401
489.137020,0.496703
489.470720,0.500000
489.804380,0.518189
490.138000,0.509644
490.471580,0.518055
490.805120,0.492495
491.138620,0.500355
491.472080,0.516608
491.805500,0.503487
492.138880,0.507297
492.472220,0.505882
492.805520,0.518855
493.138780,0.515507
493.472000,0.504348
493.805180,0.518417
494.138320,0.514343
494.471420,0.507161
494.804480,0.510349
495.137500,0.509628
495.470480,0.515615
495.803420,0.500630
496.136320,0.510652
496.469180,0.508901
496.802000,0.510391
497.134780,0.508187
497.467520,0.519878
497.800220,0.512972
498.132880,0.516755
498.465500,0.510429
498.798080,0.506849
499.130620,0.503650
499.463120,0.513756
499.795580,0.506051
500.128000,0.502452
500.460380,0.513455
500.792720,0.508484
501.125020,0.506569
501.457280,0.510705
501.789500,0.512913
502.121680,0.511146
502.453820,0.509434
502.785920,0.504252
503.117980,0.504907
503.450000,0.521346
503.781980,0.504733
504.113920,0.504505
504.445820,0.505105
504.777680,0.501647
505.109500,0.516346
505.441280,0.512906
505.773020,0.505871
506.104720,0.499293
506.436380,0.509229
506.768000,0.509822
507.099580,0.500229
507.431120,0.514286
507.762620,0.506109
508.094080,0.502279
508.425500,0.504669
508.756880,0.508459
509.088220,0.510120
509.419520,0.507914
509.750780,0.510778
510.082000,0.508396
510.413180,0.510364
510.744320,0.501150
511.075420,0.501833
511.406480,0.510108
511.737500,0.502778
512.068480,0.510808
512.399420,0.507512
512.730320,0.494688
513.061180,0.506185
513.392000,0.497397
513.722780,0.509606
514.053520,0.506469
514.384220,0.510942
514.714880,0.500239
515.045500,0.498084
515.376080,0.506538
515.706620,0.500244
516.037120,0.512255
516.367580,0.508625
516.698000,0.503922
517.028380,0.508441
517.358720,0.508148
517.689020,0.498516
518.019280,0.520321
518.349500,0.516979
518.679680,0.489652
519.009820,0.504555
519.339920,0.503507
519.669980,0.499247
520.000000,0.506877
520.329980,0.498186
520.659920,0.509202
520.989820,0.499484
521.319680,0.510288
521.649500,0.496144
521.979280,0.508873
522.309020,0.502075
522.638720,0.501280
522.968380,0.507239
523.298000,0.505741
523.627580,0.503363
523.957120,0.495065
524.286620,0.507035
524.616080,0.513444
524.945500,0.508527
525.274880,0.512057
525.604220,0.504141
525.933520,0.515199
526.262780,0.500253
526.592000,0.504313
526.921180,0.502285
527.250320,0.507357
527.579420,0.509348
527.908480,0.500246
528.237500,0.508937
528.566480,0.506487
528.895420,0.503696
529.224320,0.505696
529.553180,0.509398
529.882000,0.514355
530.210780,0.496139
530.539520,0.505753
530.868220,0.506941
531.196880,0.502628
531.525500,0.508475
531.854080,0.498593
532.182620,0.500701
532.511120,0.502552
532.839580,0.512704
533.168000,0.500912
533.496380,0.506393
533.824720,0.496635
534.153020,0.509585
534.481280,0.504846
534.809500,0.514072
535.137680,0.512153
535.465820,0.499570
535.793920,0.503384
536.121980,0.511540
536.450000,0.509514
536.777980,0.509426
537.105920,0.514736
537.433820,0.499591
537.761680,0.506531
538.089500,0.510724
538.417280,0.511341
538.745020,0.509905
539.072720,0.501757
539.400380,0.510878
539.728000,0.500574
540.055580,0.510861
540.383120,0.511541
540.710620,0.504836
541.038080,0.514201
541.365500,0.509191
541.692880,0.506541
542.020220,0.504858
542.347520,0.515434
542.674780,0.512350
543.002000,0.503149
543.329180,0.511750
543.656320,0.517932
543.983420,0.504274
544.310480,0.504587
544.637500,0.514841
544.964480,0.513459
545.291420,0.504819
545.618320,0.503984
545.945180,0.509558
546.272000,0.500328
546.598780,0.507702
546.925520,0.510386
547.252220,0.508088
547.578880,0.508309
547.905500,0.505556
548.232080,0.508122
548.558620,0.501464
548.885120,0.510304
549.211580,0.497911
549.538000,0.511997
549.864380,0.509646
550.190720,0.509202
550.517020,0.511734
550.843280,0.504560
551.169500,0.499364
551.495680,0.509198
551.821820,0.505225
552.147920,0.510085
552.473980,0.508067
552.800000,0.504578
553.125980,0.506549
553.451920,0.510285
553.777820,0.511326
554.103680,0.514324
554.429500,0.507198
554.755280,0.508344
555.081020,0.504011
555.406720,0.504910
555.732380,0.502880
556.058000,0.509504
556.383580,0.503252
556.709120,0.502068
557.034620,0.507406
557.360080,0.506390
557.685500,0.503458
558.010880,0.506412
558.336220,0.498418
558.661520,0.507621
558.986780,0.505315
559.312000,0.497863
559.637180,0.509515
559.962320,0.495906
560.287420,0.504937
560.612480,0.503050
560.937500,0.502937
561.262480,0.499633
561.587420,0.503808
561.912320,0.500000
562.237180,0.495559
562.562000,0.501309
562.886780,0.509476
563.211520,0.504098
563.536220,0.502783
563.860880,0.511128
564.185500,0.499062
564.510080,0.504138
564.834620,0.499814
565.159120,0.500752
565.483580,0.497529
565.808000,0.499811
566.132380,0.494592
566.456720,0.501890
566.781020,0.504501
567.105280,0.493384
567.429500,0.511002
567.753680,0.507480
568.077820,0.502126
568.401920,0.503820
568.725980,0.514231
569.050000,0.508745
569.373980,0.497526
569.697920,0.499052
570.021820,0.498502
570.345680,0.501339
570.669500,0.500191
570.993280,0.499077
571.317020,0.497260
571.640720,0.493516
571.964380,0.501114
572.288000,0.501113
572.611580,0.507675
572.935120,0.507295
573.258620,0.501496
573.582080,0.498510
573.905500,0.501862
574.228880,0.511878
574.552220,0.507145
574.875520,0.505212
575.198780,0.500542
575.522000,0.502199
575.845180,0.502149
576.168320,0.504132
576.491420,0.510901
576.814480,0.504159
577.137500,0.505051
577.460480,0.505980
577.783420,0.503394
578.106320,0.509615
578.429180,0.500530
578.752000,0.504689
579.074780,0.511800
579.397520,0.508393
579.720220,0.505470
580.042880,0.502808
580.365500,0.510920
580.688080,0.507463
581.010620,0.504894
581.333120,0.505678
581.655580,0.505495
581.978000,0.504157
582.300380,0.497241
582.622720,0.506262
582.945020,0.506827
583.267280,0.496581
583.589500,0.501445
583.911680,0.507780
584.233820,0.505508
584.555920,0.508982
584.877980,0.509422
585.200000,0.491713
585.521980,0.509422
585.843920,0.504271
586.165820,0.507008
586.487680,0.506470
586.809500,0.501050
587.131280,0.502514
587.453020,0.506845
587.774720,0.506505
588.096380,0.504667
588.418000,0.505999
588.739580,0.506467
589.061120,0.500000
589.382620,0.510315
589.704080,0.500140
590.025500,0.508276
590.346880,0.506183
590.668220,0.503780
590.989520,0.502219
591.310780,0.504557
591.632000,0.503825
591.953180,0.501522
592.274320,0.497952
592.595420,0.502694
592.916480,0.504482
593.237500,0.508758
593.558480,0.502287
593.879420,0.507418
594.200320,0.509510
594.521180,0.504648
594.842000,0.506179
595.162780,0.500534
595.483520,0.506514
595.804220,0.501880
596.124880,0.507594
596.445500,0.500131
596.766080,0.510352
597.086620,0.500796
597.407120,0.503160
597.727580,0.510475
598.048000,0.499868
598.368380,0.503156
598.688720,0.501704
599.009020,0.503715
599.329280,0.503459
599.649500,0.501849
599.969680,0.500801
600.289820,0.511485
600.609920,0.505744
600.929980,0.502672
601.250000,0.497568
601.569980,0.503646
601.889920,0.499866
602.209820,0.490260
602.529680,0.508377
602.849500,0.503546
603.169280,0.506200
603.489020,0.501246
603.808720,0.495337
604.128380,0.506623
604.448000,0.496961
604.767580,0.500279
605.087120,0.493906
605.406620,0.492583
605.726080,0.501568
606.045500,0.493452
606.364880,0.499008
606.684220,0.498001
607.003520,0.499140
607.322780,0.498863
607.642000,0.498277
607.961180,0.493784
608.280320,0.495360
608.599420,0.492758
608.918480,0.498240
609.237500,0.495012
609.556480,0.500740
609.875420,0.498228
610.194320,0.495424
610.513180,0.493341
610.832000,0.499404
611.150780,0.502553
611.469520,0.500151
611.788220,0.497582
612.106880,0.492159
612.425500,0.495737
612.744080,0.502001
613.062620,0.489297
613.381120,0.496648
613.699580,0.493562
614.018000,0.493550
614.336380,0.498149
614.654720,0.499535
614.973020,0.493675
615.291280,0.500465
615.609500,0.499208
615.927680,0.491347
616.245820,0.488868
616.563920,0.488032
616.881980,0.488619
617.200000,0.493002
617.517980,0.489110
617.835920,0.491146
618.153820,0.487721
618.471680,0.492403
618.789500,0.496224
619.107280,0.502034
619.425020,0.496036
619.742720,0.496234
620.060380,0.492009
620.378000,0.493392
620.695580,0.498404
621.013120,0.486299
621.330620,0.496392
621.648080,0.494006
621.965500,0.494040
622.282880,0.491173
622.600220,0.493051
622.917520,0.494329
623.234780,0.499839
623.552000,0.495226
623.869180,0.490703
624.186320,0.492200
624.503420,0.489969
624.820480,0.490104
625.137500,0.493211
625.454480,0.499219
625.771420,0.502522
626.088320,0.496532
626.405180,0.494711
626.722000,0.499373
627.038780,0.498120
627.355520,0.496875
627.672220,0.490824
627.988880,0.488336
628.305500,0.492988
628.622080,0.497831
628.938620,0.493884
629.255120,0.492844
629.571580,0.485136
629.888000,0.491255
630.204380,0.493710
630.520720,0.491164
630.837020,0.488745
631.153280,0.495803
631.469500,0.493633
631.785680,0.492164
632.101820,0.490953
632.417920,0.489717
632.733980,0.489196
633.050000,0.494845
633.365980,0.490516
633.681920,0.488365
633.997820,0.491632
634.313680,0.490711
634.629500,0.484223
634.945280,0.496774
635.261020,0.495451
635.576720,0.499413
635.892380,0.499274
636.208000,0.490994
636.523580,0.496638
636.839120,0.497973
637.154620,0.487826
637.470080,0.492109
637.785500,0.500293
638.100880,0.494642
638.416220,0.488640
638.731520,0.481375
639.046780,0.492572
639.362000,0.487099
639.677180,0.485722
639.992320,0.494220
640.307420,0.492835
640.622480,0.492019
640.937500,0.489043
641.252480,0.492321
641.567420,0.490480
641.882320,0.489421
642.197180,0.495789
642.512000,0.486426
642.826780,0.484605
643.141520,0.497360
643.456220,0.496403
643.770880,0.491155
644.085500,0.492174
644.400080,0.496629
644.714620,0.491360
645.029120,0.484598
645.343580,0.487658
645.658000,0.492923
645.972380,0.486983
646.286720,0.492777
646.601020,0.493772
646.915280,0.493008
647.229500,0.488736
647.543680,0.487158
647.857820,0.488852
648.171920,0.486164
648.485980,0.485612
648.800000,0.481951
649.113980,0.486973
649.427920,0.485160
649.741820,0.478153
650.055680,0.484915
650.369500,0.485987
650.683280,0.483907
650.997020,0.487349
651.310720,0.484040
651.624380,0.484066
651.938000,0.484488
652.251580,0.489563
652.565120,0.484908
652.878620,0.482827
653.192080,0.485112
653.505500,0.486115
653.818880,0.491328
654.132220,0.490459
654.445520,0.480998
654.758780,0.478470
655.072000,0.478510
655.385180,0.478174
655.698320,0.479280
656.011420,0.485813
656.324480,0.485864
656.637500,0.481750
656.950480,0.482678
657.263420,0.481525
657.576320,0.478802
657.889180,0.478620
658.202000,0.483394
658.514780,0.485561
658.827520,0.487395
659.140220,0.481271
659.452880,0.481124
659.765500,0.479530
660.078080,0.476377
660.390620,0.472044
660.703120,0.478155
661.015580,0.482209
661.328000,0.479219
661.640380,0.480273
661.952720,0.478044
662.265020,0.488028
662.577280,0.477099
662.889500,0.478398
663.201680,0.481493
663.513820,0.477324
663.825920,0.473903
664.137980,0.477699
664.450000,0.472187
664.761980,0.477905
665.073920,0.468030
665.385820,0.478076
665.697680,0.478017
666.009500,0.476555
666.321280,0.480119
666.633020,0.474402
666.944720,0.479946
667.256380,0.474092
667.568000,0.463995
667.879580,0.486395
668.191120,0.481799
668.502620,0.473126
668.814080,0.473684
669.125500,0.480671
669.436880,0.478216
669.748220,0.474559
670.059520,0.478992
670.370780,0.469729
670.682000,0.477876
670.993180,0.477097
671.304320,0.472925
671.615420,0.472301
671.926480,0.479773
672.237500,0.465881
672.548480,0.470901
672.859420,0.466405
673.170320,0.474791
673.481180,0.476466
673.792000,0.469888
674.102780,0.470736
674.413520,0.465549
674.724220,0.467877
675.034880,0.477814
675.345500,0.479212
675.656080,0.467877
675.966620,0.476901
676.277120,0.467960
676.587580,0.469809
676.898000,0.469205
677.208380,0.458041
677.518720,0.466813
677.829020,0.463784
678.139280,0.463677
678.449500,0.470479
678.759680,0.475084
679.069820,0.468773
679.379920,0.466994
679.689980,0.468994
680.000000,0.467664
680.309980,0.464365
680.619920,0.470276
680.929820,0.468832
681.239680,0.458272
681.549500,0.464074
681.859280,0.468260
682.169020,0.466244
682.478720,0.477936
682.788380,0.458103
683.098000,0.471204
683.407580,0.470919
683.717120,0.466216
684.026620,0.472515
684.336080,0.465707
684.645500,0.466891
684.954880,0.457499
685.264220,0.462816
685.573520,0.462885
685.882780,0.461066
686.192000,0.460873
686.501180,0.459705
686.810320,0.474635
687.119420,0.467123
687.428480,0.468287
687.737500,0.472371
688.046480,0.462423
688.355420,0.466994
688.664320,0.463275
688.973180,0.461715
689.282000,0.471065
689.590780,0.468558
689.899520,0.450817
690.208220,0.465214
690.516880,0.466972
690.825500,0.462642
691.134080,0.454442
691.442620,0.461890
691.751120,0.459234
692.059580,0.463126
692.368000,0.455888
692.676380,0.469084
692.984720,0.463740
693.293020,0.461246
693.601280,0.459367
693.909500,0.460840
694.217680,0.462300
694.525820,0.459634
694.833920,0.457841
695.141980,0.460856
695.450000,0.461832
695.757980,0.466005
696.065920,0.462524
696.373820,0.456890
696.681680,0.456080
696.989500,0.461212
697.297280,0.460132
697.605020,0.466270
697.912720,0.458109
698.220380,0.452184
698.528000,0.457674
698.835580,0.453576
699.143120,0.455963
699.450620,0.453063
699.758080,0.445882
700.065500,0.450120
700.372880,0.466800
700.680220,0.462306
700.987520,0.459127
701.294780,0.460260
701.602000,0.460777
701.909180,0.460254
702.216320,0.456003
702.523420,0.456196
702.830480,0.458218
703.137500,0.445830
703.444480,0.460355
703.751420,0.461144
704.058320,0.454689
704.365180,0.451498
704.672000,0.455050
704.978780,0.457277
705.285520,0.454225
705.592220,0.450980
705.898880,0.458235
706.205500,0.451878
706.512080,0.462085
706.818620,0.458204
707.125120,0.451923
707.431580,0.458382
707.738000,0.456250
708.044380,0.450405
708.350720,0.456630
708.657020,0.455647
708.963280,0.451863
709.269500,0.447358
709.575680,0.458939
709.881820,0.457154
710.187920,0.452140
710.493980,0.441040
710.800000,0.455759
711.105980,0.444277
711.411920,0.448561
711.717820,0.445614
712.023680,0.448504
712.329500,0.455442
712.635280,0.458915
712.941020,0.451875
713.246720,0.449407
713.552380,0.460361
713.858000,0.447379
714.163580,0.443173
714.469120,0.447831
714.774620,0.451638
715.080080,0.446015
715.385500,0.454836
715.690880,0.445759
715.996220,0.458399
716.301520,0.455731
716.606780,0.449292
716.912000,0.453554
717.217180,0.442538
717.522320,0.451690
717.827420,0.445077
718.132480,0.456042
718.437500,0.452099
718.742480,0.443145
719.047420,0.449434
719.352320,0.452885
719.657180,0.453393
719.962000,0.442101
720.266780,0.447029
720.571520,0.449047
720.876220,0.447627
721.180880,0.444816
721.485500,0.447973
721.790080,0.443737
722.094620,0.451115
722.399120,0.447652
722.703580,0.445778
723.008000,0.451056
723.312380,0.447697
723.616720,0.441139
723.921020,0.437852
724.225280,0.442408
724.529500,0.444834
724.833680,0.447954
725.137820,0.445815
725.441920,0.437361
725.745980,0.440716
726.050000,0.443392
726.353980,0.445696
726.657920,0.434548
726.961820,0.440183
727.265680,0.444753
727.569500,0.445612
727.873280,0.439723
728.177020,0.454169
728.480720,0.439352
728.784380,0.444810
729.088000,0.443712
729.391580,0.438655
729.695120,0.452495
729.998620,0.445985
730.302080,0.439692
730.605500,0.444930
730.908880,0.439000
731.212220,0.440255
731.515520,0.442223
731.818780,0.433010
732.122000,0.447343
732.425180,0.441597
732.728320,0.439266
733.031420,0.437594
733.334480,0.440306
733.637500,0.429435
733.940480,0.439611
734.243420,0.437309
734.546320,0.433091
734.849180,0.435950
735.152000,0.436722
735.454780,0.435434
735.757520,0.434141
736.060220,0.440758
736.362880,0.445903
736.665500,0.435509
736.968080,0.432026
737.270620,0.430593
737.573120,0.445415
737.875580,0.441451
738.178000,0.433315
738.480380,0.430811
738.782720,0.431843
739.085020,0.433370
739.387280,0.440133
739.689500,0.434881
739.991680,0.439641
740.293820,0.430625
740.595920,0.437952
740.897980,0.439864
741.200000,0.432978
741.501980,0.436676
741.803920,0.423986
742.105820,0.432600
742.407680,0.437973
742.709500,0.430682
743.011280,0.433763
743.313020,0.433623
743.614720,0.427742
743.916380,0.416279
744.218000,0.433771
744.519580,0.426932
744.821120,0.444311
745.122620,0.430797
745.424080,0.420072
745.725500,0.421847
746.026880,0.432882
746.328220,0.435882
746.629520,0.428055
746.930780,0.430760
747.232000,0.424893
747.533180,0.429530
747.834320,0.429702
748.135420,0.422623
748.436480,0.433562
748.737500,0.422483
749.038480,0.419059
749.339420,0.433105
749.640320,0.424890
749.941180,0.422236
750.242000,0.423367
750.542780,0.419355
750.843520,0.430493
751.144220,0.428205
751.444880,0.431198
751.745500,0.426623
752.046080,0.441950
752.346620,0.428479
752.647120,0.419334
752.947580,0.427555
753.248000,0.418440
753.548380,0.426805
753.848720,0.428203
754.149020,0.419729
754.449280,0.426133
754.749500,0.421367
755.049680,0.422667
755.349820,0.422282
755.649920,0.430271
755.949980,0.429330
756.250000,0.433268
756.549980,0.422442
756.849920,0.416044
757.149820,0.411178
757.449680,0.423762
757.749500,0.414451
758.049280,0.425256
758.349020,0.415855
758.648720,0.427881
758.948380,0.419244
759.248000,0.420485
759.547580,0.431069
759.847120,0.425913
760.146620,0.430988
760.446080,0.420699
760.745500,0.421678
761.044880,0.412642
761.344220,0.423378
761.643520,0.418079
761.942780,0.422673
762.242000,0.427864
762.541180,0.412676
762.840320,0.422051
763.139420,0.429677
763.438480,0.415584
763.737500,0.415575
764.036480,0.408805
764.335420,0.421313
764.634320,0.422037
764.933180,0.415753
765.232000,0.421929
765.530780,0.424561
765.829520,0.425874
766.128220,0.428671
766.426880,0.427150
766.725500,0.430432
767.024080,0.414266
767.322620,0.415629
767.621120,0.408537
767.919580,0.418430
768.218000,0.422025
768.516380,0.419878
768.814720,0.422497
769.113020,0.415575
769.411280,0.425414
769.709500,0.424222
770.007680,0.411043
770.305820,0.419878
770.603920,0.405660
770.901980,0.415984
771.200000,0.411685
771.497980,0.411528
771.795920,0.406689
772.093820,0.416444
772.391680,0.415953
772.689500,0.416892
772.987280,0.419529
773.285020,0.424470
773.582720,0.414865
773.880380,0.420728
774.178000,0.414451
774.475580,0.413932
774.773120,0.412316
775.070620,0.415145
775.368080,0.410154
775.665500,0.412357
775.962880,0.419613
776.260220,0.419246
776.557520,0.422282
776.854780,0.420554
777.152000,0.403846
777.449180,0.415374
777.746320,0.410618
778.043420,0.415416
778.340480,0.420162
778.637500,0.411089
778.934480,0.411567
779.231420,0.411805
779.528320,0.407482
779.825180,0.404480
780.122000,0.404382
780.418780,0.421341
780.715520,0.413816
781.012220,0.422603
781.308880,0.406356
781.605500,0.408904
781.902080,0.413415
782.198620,0.410116
782.495120,0.414266
782.791580,0.409904
783.088000,0.412008
783.384380,0.415406
783.680720,0.412449
783.977020,0.406745
784.273280,0.416084
784.569500,0.406010
784.865680,0.411683
785.161820,0.400694
785.457920,0.408177
785.753980,0.412421
786.050000,0.410912
786.345980,0.408333
786.641920,0.408744
786.937820,0.415954
787.233680,0.401531
787.529500,0.399445
787.825280,0.417847
788.121020,0.402266
788.416720,0.405081
788.712380,0.392102
789.008000,0.404391
789.303580,0.406360
789.599120,0.412364
789.894620,0.414440
790.190080,0.404641
790.485500,0.402448
790.780880,0.401434
791.076220,0.399711
791.371520,0.402324
791.666780,0.400000
791.962000,0.408523
792.257180,0.411420
792.552320,0.408267
792.847420,0.411208
793.142480,0.408059
793.437500,0.397974
793.732480,0.402341
794.027420,0.393175
794.322320,0.390007
794.617180,0.407132
794.912000,0.393759
795.206780,0.407159
795.501520,0.409125
795.796220,0.401481
796.090880,0.418237
796.385500,0.404798
796.680080,0.401645
796.974620,0.404192
797.269120,0.398183
797.563580,0.401527
797.858000,0.406986
798.152380,0.412993
798.446720,0.405385
798.741020,0.412173
799.035280,0.406056
799.329500,0.404157
799.623680,0.405426
