399.985280,0.486486
400.329500,0.486486
400.673680,0.443038
401.017820,0.470588
401.361920,0.484848
401.705980,0.463415
402.050000,0.428571
402.393980,0.564706
402.737920,0.561798
403.081820,0.536082
403.425680,0.523256
403.769500,0.458333
404.113280,0.459770
404.457020,0.584270
404.800720,0.478261
405.144380,0.494949
405.488000,0.526882
405.831580,0.505155
406.175120,0.542553
406.518620,0.520000
406.862080,0.505155
407.205500,0.531250
407.548880,0.479592
407.892220,0.529412
408.235520,0.542553
408.578780,0.514286
408.922000,0.432692
409.265180,0.535354
409.608320,0.585859
409.951420,0.587629
410.294480,0.509804
410.637500,0.586957
410.980480,0.519608
411.323420,0.479592
411.666320,0.495413
412.009180,0.500000
412.352000,0.475248
412.694780,0.504587
413.037520,0.458716
413.380220,0.531532
413.722880,0.526786
414.065500,0.477477
414.408080,0.566372
414.750620,0.539823
415.093120,0.553719
415.435580,0.554622
415.778000,0.522727
416.120380,0.504202
416.462720,0.531746
416.805020,0.563910
417.147280,0.544776
417.489500,0.578571
417.831680,0.500000
418.173820,0.546099
418.515920,0.545455
418.857980,0.556962
419.200000,0.544872
419.541980,0.532544
419.883920,0.494382
420.225820,0.514451
420.567680,0.519553
420.909500,0.502732
421.251280,0.557292
421.593020,0.520408
421.934720,0.530303
422.276380,0.528205
422.618000,0.504902
422.959580,0.524510
423.301120,0.543379
423.642620,0.500000
423.984080,0.548837
424.325500,0.524664
424.666880,0.525862
425.008220,0.491597
425.349520,0.559322
425.690780,0.484615
426.032000,0.482353
426.373180,0.547718
426.714320,0.496094
427.055420,0.490347
427.396480,0.494382
427.737500,0.490119
428.078480,0.494071
428.419420,0.481928
428.760320,0.521073
429.101180,0.539370
429.442000,0.509579
429.782780,0.500000
430.123520,0.501961
430.464220,0.494465
430.804880,0.559387
431.145500,0.505455
431.486080,0.509363
431.826620,0.507752
432.167120,0.496324
432.507580,0.528986
432.848000,0.507194
433.188380,0.512635
433.528720,0.524528
433.869020,0.539286
434.209280,0.480702
434.549500,0.512195
434.889680,0.508418
435.229820,0.501706
435.569920,0.491349
435.909980,0.508091
436.250000,0.525424
436.589980,0.489164
436.929920,0.533333
437.269820,0.482759
437.609680,0.502959
437.949500,0.515060
438.289280,0.501416
438.629020,0.514535
438.968720,0.511628
439.308380,0.482385
439.648000,0.523288
439.987580,0.492063
440.327120,0.501333
440.666620,0.501299
441.006080,0.508951
441.345500,0.493857
441.684880,0.490431
442.024220,0.523573
442.363520,0.514286
442.702780,0.497727
443.042000,0.502203
443.381180,0.532328
443.720320,0.520518
444.059420,0.512605
444.398480,0.493724
444.737500,0.524590
445.076480,0.494048
445.415420,0.499002
445.754320,0.492723
446.093180,0.504587
446.432000,0.498120
446.770780,0.500949
447.109520,0.503676
447.448220,0.493739
447.786880,0.508050
448.125500,0.508621
448.464080,0.514286
448.802620,0.526596
449.141120,0.505190
449.479580,0.500000
449.818000,0.502582
450.156380,0.518395
450.494720,0.512397
450.833020,0.508741
451.171280,0.472603
451.509500,0.520906
451.847680,0.495784
452.185820,0.493976
452.523920,0.508591
452.861980,0.509275
453.200000,0.493355
453.537980,0.507563
453.875920,0.502521
454.213820,0.510274
454.551680,0.495033
454.889500,0.490725
455.227280,0.487544
455.565020,0.507538
455.902720,0.487521
456.240380,0.472546
456.578000,0.498258
456.915580,0.516408
457.253120,0.498355
457.590620,0.490969
457.928080,0.498316
458.265500,0.520270
458.602880,0.485390
458.940220,0.519459
459.277520,0.502400
459.614780,0.502455
459.952000,0.500000
460.289180,0.503165
460.626320,0.499213
460.963420,0.510501
461.300480,0.513761
461.637500,0.508475
461.974480,0.515291
462.311420,0.508197
462.648320,0.502196
462.985180,0.483501
463.322000,0.495536
463.658780,0.484807
463.995520,0.486933
464.332220,0.512465
464.668880,0.505376
465.005500,0.504021
465.342080,0.504481
465.678620,0.498155
466.015120,0.508409
466.351580,0.522124
466.688000,0.499391
467.024380,0.507898
467.360720,0.502273
467.697020,0.501139
468.033280,0.503333
468.369500,0.493377
468.705680,0.515220
469.041820,0.497917
469.377920,0.498915
469.713980,0.503605
470.050000,0.495652
470.385980,0.505871
470.721920,0.481881
471.057820,0.500975
471.393680,0.489242
471.729500,0.505097
472.065280,0.495528
472.401020,0.500000
472.736720,0.504363
473.072380,0.482944
473.408000,0.488251
473.743580,0.492215
474.079120,0.499569
474.414620,0.487701
474.750080,0.489829
475.085500,0.495066
475.420880,0.492090
475.756220,0.484873
476.091520,0.498721
476.426780,0.492718
476.762000,0.489139
477.097180,0.493600
477.432320,0.492730
477.767420,0.484477
478.102480,0.494488
478.437500,0.507389
478.772480,0.488574
479.107420,0.478438
479.442320,0.494804
479.777180,0.494829
480.112000,0.486903
480.446780,0.492595
480.781520,0.493559
481.116220,0.502021
481.450880,0.478532
481.785500,0.504747
482.120080,0.496082
482.454620,0.495726
482.789120,0.494427
483.123580,0.482087
483.458000,0.484177
483.792380,0.508786
484.126720,0.480309
484.461020,0.493365
484.795280,0.484194
485.129500,0.487919
485.463680,0.491473
485.797820,0.491446
486.131920,0.482020
486.465980,0.495753
486.800000,0.498473
487.133980,0.484139
487.467920,0.494262
487.801820,0.496568
488.135680,0.500379
488.469500,0.487141
488.803280,0.495542
489.137020,0.482051
489.470720,0.488872
489.804380,0.506310
490.138000,0.492582
490.471580,0.490789
490.805120,0.485347
491.138620,0.479033
491.472080,0.496113
491.805500,0.480474
492.138880,0.492008
492.472220,0.486505
492.805520,0.493017
493.138780,0.488629
493.472000,0.476254
493.805180,0.496589
494.138320,0.491661
494.471420,0.484375
494.804480,0.492238
495.137500,0.486521
495.470480,0.484385
495.803420,0.484257
496.136320,0.494361
496.469180,0.490485
496.802000,0.490831
497.134780,0.484536
497.467520,0.489908
497.800220,0.491156
498.132880,0.487948
498.465500,0.493048
498.798080,0.497717
499.130620,0.489613
499.463120,0.490736
499.795580,0.485149
500.128000,0.482834
500.460380,0.480086
500.792720,0.470838
501.125020,0.483447
501.457280,0.480418
501.789500,0.475207
502.121680,0.494557
502.453820,0.487506
502.785920,0.486743
503.117980,0.494112
503.450000,0.502762
503.781980,0.499751
504.113920,0.478900
504.445820,0.483228
504.777680,0.481412
505.109500,0.488462
505.441280,0.497132
505.773020,0.488962
506.104720,0.489873
506.436380,0.491718
506.768000,0.482694
507.099580,0.473227
507.431120,0.483372
507.762620,0.487782
508.094080,0.480401
508.425500,0.485994
508.756880,0.484225
509.088220,0.496780
509.419520,0.486034
509.750780,0.483130
510.082000,0.490205
510.413180,0.484569
510.744320,0.489646
511.075420,0.473877
511.406480,0.486131
511.737500,0.479630
512.068480,0.485432
512.399420,0.481221
512.730320,0.473903
513.061180,0.495243
513.392000,0.486039
513.722780,0.490874
514.053520,0.487302
514.384220,0.474310
514.714880,0.487793
515.045500,0.477490
515.376080,0.483293
515.706620,0.480760
516.037120,0.485784
516.367580,0.486447
516.698000,0.479902
517.028380,0.494042
517.358720,0.481975
517.689020,0.478734
518.019280,0.483191
518.349500,0.491637
518.679680,0.486118
519.009820,0.484312
519.339920,0.488477
519.669980,0.468609
520.000000,0.480387
520.329980,0.485226
520.659920,0.474438
520.989820,0.480392
521.319680,0.479938
521.649500,0.478149
521.979280,0.478601
522.309020,0.482365
522.638720,0.474654
522.968380,0.487590
523.298000,0.476514
523.627580,0.482669
523.957120,0.480519
524.286620,0.479416
524.616080,0.483454
524.945500,0.481654
525.274880,0.487943
525.604220,0.481884
525.933520,0.483753
526.262780,0.475418
526.592000,0.485540
526.921180,0.479939
527.250320,0.471842
527.579420,0.478019
527.908480,0.481044
528.237500,0.469215
528.566480,0.482036
528.895420,0.477082
529.224320,0.481426
529.553180,0.476627
529.882000,0.488564
530.210780,0.481178
530.539520,0.479386
530.868220,0.480613
531.196880,0.475394
531.525500,0.496368
531.854080,0.475141
532.182620,0.482018
532.511120,0.486775
532.839580,0.489564
533.168000,0.479945
533.496380,0.480365
533.824720,0.474652
534.153020,0.480606
534.481280,0.478414
534.809500,0.488566
535.137680,0.480903
535.465820,0.479381
535.793920,0.477580
536.121980,0.490558
536.450000,0.490486
536.777980,0.490574
537.105920,0.484018
537.433820,0.478723
537.761680,0.488163
538.089500,0.483205
538.417280,0.475527
538.745020,0.489303
539.072720,0.487310
539.400380,0.489899
539.728000,0.484130
540.055580,0.479026
540.383120,0.484736
540.710620,0.474330
541.038080,0.481372
541.365500,0.477574
541.692880,0.480015
542.020220,0.489385
542.347520,0.487796
542.674780,0.478829
543.002000,0.475507
543.329180,0.489302
543.656320,0.487693
543.983420,0.481709
544.310480,0.477744
544.637500,0.483794
544.964480,0.475101
545.291420,0.487537
545.618320,0.478752
545.945180,0.481872
546.272000,0.486239
546.598780,0.482793
546.925520,0.472140
547.252220,0.483658
547.578880,0.482893
547.905500,0.483007
548.232080,0.476933
548.558620,0.480963
548.885120,0.481518
549.211580,0.484089
549.538000,0.477302
549.864380,0.472990
550.190720,0.476913
550.517020,0.484355
550.843280,0.477199
551.169500,0.478053
551.495680,0.477332
551.821820,0.476813
552.147920,0.476252
552.473980,0.484030
552.800000,0.478744
553.125980,0.479044
553.451920,0.481088
553.777820,0.483678
554.103680,0.480283
554.429500,0.481419
554.755280,0.481308
555.081020,0.475936
555.406720,0.474094
555.732380,0.468994
556.058000,0.484046
556.383580,0.479630
556.709120,0.481048
557.034620,0.472959
557.360080,0.475993
557.685500,0.480636
558.010880,0.470364
558.336220,0.469596
558.661520,0.481390
558.986780,0.476258
559.312000,0.474715
559.637180,0.481508
559.962320,0.475614
560.287420,0.479901
560.612480,0.474704
560.937500,0.482379
561.262480,0.476906
561.587420,0.476968
561.912320,0.476050
562.237180,0.471132
562.562000,0.480359
562.886780,0.477146
563.211520,0.475037
563.536220,0.483859
563.860880,0.476424
564.185500,0.475047
564.510080,0.475922
564.834620,0.477112
565.159120,0.477068
565.483580,0.470544
565.808000,0.472569
566.132380,0.472585
566.456720,0.469766
566.781020,0.476369
567.105280,0.466919
567.429500,0.478376
567.753680,0.479862
568.077820,0.468110
568.401920,0.472116
568.725980,0.477799
569.050000,0.476426
569.373980,0.473544
569.697920,0.472507
570.021820,0.476030
570.345680,0.476081
570.669500,0.473483
570.993280,0.471392
571.317020,0.472050
571.640720,0.483142
571.964380,0.468077
572.288000,0.476632
572.611580,0.476601
572.935120,0.471380
573.258620,0.470830
573.582080,0.472802
573.905500,0.475428
574.228880,0.477728
574.552220,0.476731
574.875520,0.472822
575.198780,0.473798
575.522000,0.469208
575.845180,0.468123
576.168320,0.468559
576.491420,0.480015
576.814480,0.470163
577.137500,0.476912
577.460480,0.479522
577.783420,0.474098
578.106320,0.476496
578.429180,0.479675
578.752000,0.473081
579.074780,0.478759
579.397520,0.471272
579.720220,0.479408
580.042880,0.471424
580.365500,0.476837
580.688080,0.471506
581.010620,0.473507
581.333120,0.472946
581.655580,0.478188
581.978000,0.475224
582.300380,0.470951
582.622720,0.473303
582.945020,0.474642
583.267280,0.475090
583.589500,0.474799
583.911680,0.469990
584.233820,0.473088
584.555920,0.483769
584.877980,0.479585
585.200000,0.468999
585.521980,0.472351
585.843920,0.473459
586.165820,0.478976
586.487680,0.473668
586.809500,0.470447
587.131280,0.468500
587.453020,0.476786
587.774720,0.475163
588.096380,0.468495
588.418000,0.477027
588.739580,0.479161
589.061120,0.477286
589.382620,0.471347
589.704080,0.470687
590.025500,0.480594
590.346880,0.477515
590.668220,0.474097
590.989520,0.469495
591.310780,0.475835
591.632000,0.474044
591.953180,0.474675
592.274320,0.474201
592.595420,0.477371
592.916480,0.475686
593.237500,0.473457
593.558480,0.471079
593.879420,0.470192
594.200320,0.483525
594.521180,0.468792
594.842000,0.482805
595.162780,0.473024
595.483520,0.474342
595.804220,0.474758
596.124880,0.477218
596.445500,0.470003
596.766080,0.480506
597.086620,0.478238
597.407120,0.472091
597.727580,0.479714
598.048000,0.470246
598.368380,0.470542
598.688720,0.470249
599.009020,0.477176
599.329280,0.477115
599.649500,0.465663
599.969680,0.476229
600.289820,0.468750
600.609920,0.473684
600.929980,0.467664
601.250000,0.475676
601.569980,0.466919
601.889920,0.463245
602.209820,0.469156
602.529680,0.480637
602.849500,0.465085
603.169280,0.476440
603.489020,0.474952
603.808720,0.467361
604.128380,0.471302
604.448000,0.467127
604.767580,0.468715
605.087120,0.464820
605.406620,0.470193
605.726080,0.480468
606.045500,0.467261
606.364880,0.465551
606.684220,0.465163
607.003520,0.461296
607.322780,0.468164
607.642000,0.468696
607.961180,0.469789
608.280320,0.464327
608.599420,0.467555
608.918480,0.470674
609.237500,0.468603
609.556480,0.470849
609.875420,0.465741
610.194320,0.460585
610.513180,0.471441
610.832000,0.474985
611.150780,0.469510
611.469520,0.468778
611.788220,0.469770
612.106880,0.456273
612.425500,0.457674
612.744080,0.468144
613.062620,0.462385
613.381120,0.463437
613.699580,0.465359
614.018000,0.461916
614.336380,0.465762
614.654720,0.462326
614.973020,0.467448
615.291280,0.467307
615.609500,0.470681
615.927680,0.467244
616.245820,0.458565
616.563920,0.463786
616.881980,0.463985
617.200000,0.462519
617.517980,0.464530
617.835920,0.456353
618.153820,0.457569
618.471680,0.454574
618.789500,0.461296
619.107280,0.466667
619.425020,0.464637
619.742720,0.460766
620.060380,0.461611
620.378000,0.463499
620.695580,0.461367
621.013120,0.458898
621.330620,0.457797
621.648080,0.457729
621.965500,0.462359
622.282880,0.463745
622.600220,0.457044
622.917520,0.462823
623.234780,0.465124
623.552000,0.463081
623.869180,0.457296
624.186320,0.463865
624.503420,0.465204
624.820480,0.467484
625.137500,0.466688
625.454480,0.457643
625.771420,0.459016
626.088320,0.463115
626.405180,0.464219
626.722000,0.460477
627.038780,0.458020
627.355520,0.460313
627.672220,0.457543
627.988880,0.455677
628.305500,0.463696
628.622080,0.460657
628.938620,0.461162
629.255120,0.463597
629.571580,0.449586
629.888000,0.461184
630.204380,0.461798
630.520720,0.459476
630.837020,0.457909
631.153280,0.461631
631.469500,0.464221
631.785680,0.455395
632.101820,0.458384
632.417920,0.459911
632.733980,0.458283
633.050000,0.460279
633.365980,0.458210
633.681920,0.461814
633.997820,0.458757
634.313680,0.459451
634.629500,0.460926
634.945280,0.463930
635.261020,0.460229
635.576720,0.456841
635.892380,0.455707
636.208000,0.456130
636.523580,0.463899
636.839120,0.460046
637.154620,0.455072
637.470080,0.457389
637.785500,0.468054
638.100880,0.457284
638.416220,0.459016
638.731520,0.451003
639.046780,0.456452
639.362000,0.458716
639.677180,0.462593
639.992320,0.453905
640.307420,0.461366
640.622480,0.456455
640.937500,0.456588
641.252480,0.460207
641.567420,0.453254
641.882320,0.456013
642.197180,0.456204
642.512000,0.455640
642.826780,0.456865
643.141520,0.461517
643.456220,0.456004
643.770880,0.455777
644.085500,0.462828
644.400080,0.459551
644.714620,0.455128
645.029120,0.452420
645.343580,0.458859
645.658000,0.459339
645.972380,0.453823
646.286720,0.450804
646.601020,0.455854
646.915280,0.457636
647.229500,0.459615
647.543680,0.458161
647.857820,0.451968
648.171920,0.458763
648.485980,0.451905
648.800000,0.448333
649.113980,0.457040
649.427920,0.454646
649.741820,0.451772
650.055680,0.452002
650.369500,0.458240
650.683280,0.446448
650.997020,0.448020
651.310720,0.447991
651.624380,0.451648
651.938000,0.450693
652.251580,0.448650
652.565120,0.445221
652.878620,0.455800
653.192080,0.451685
653.505500,0.454137
653.818880,0.454649
654.132220,0.449729
654.445520,0.445831
654.758780,0.446742
655.072000,0.446418
655.385180,0.446790
655.698320,0.446127
656.011420,0.449699
656.324480,0.451180
656.637500,0.444380
656.950480,0.451556
657.263420,0.451375
657.576320,0.447969
657.889180,0.446181
658.202000,0.450181
658.514780,0.450134
658.827520,0.447779
659.140220,0.443212
659.452880,0.446693
659.765500,0.447923
660.078080,0.436654
660.390620,0.450657
660.703120,0.453101
661.015580,0.441718
661.328000,0.447418
661.640380,0.447344
661.952720,0.445656
662.265020,0.444234
662.577280,0.442112
662.889500,0.445916
663.201680,0.451181
663.513820,0.439048
663.825920,0.446366
664.137980,0.446994
664.450000,0.437660
664.761980,0.446481
665.073920,0.441740
665.385820,0.445026
665.697680,0.445950
666.009500,0.450283
666.321280,0.439695
666.633020,0.443484
666.944720,0.443883
667.256380,0.442463
667.568000,0.439878
667.879580,0.436054
668.191120,0.444025
668.502620,0.443341
668.814080,0.442807
669.125500,0.447143
669.436880,0.444675
669.748220,0.440637
670.059520,0.447829
670.370780,0.435630
670.682000,0.446018
670.993180,0.441860
671.304320,0.436709
671.615420,0.441406
671.926480,0.441448
672.237500,0.435155
672.548480,0.435060
672.859420,0.435668
673.170320,0.443961
673.481180,0.448226
673.792000,0.426253
674.102780,0.428725
674.413520,0.435290
674.724220,0.436298
675.034880,0.444811
675.345500,0.433990
675.656080,0.439564
675.966620,0.441251
676.277120,0.439399
676.587580,0.442194
676.898000,0.432251
677.208380,0.432532
677.518720,0.429978
677.829020,0.442720
678.139280,0.441067
678.449500,0.434831
678.759680,0.433870
679.069820,0.431227
679.379920,0.435307
679.689980,0.434831
680.000000,0.433271
680.309980,0.435412
680.619920,0.430897
680.929820,0.431504
681.239680,0.432792
681.549500,0.440000
681.859280,0.435026
682.169020,0.433793
682.478720,0.429693
682.788380,0.432263
683.098000,0.433807
683.407580,0.434522
683.717120,0.432432
684.026620,0.425075
684.336080,0.430087
684.645500,0.432099
684.954880,0.428410
685.264220,0.425821
685.573520,0.441949
685.882780,0.428462
686.192000,0.434913
686.501180,0.435490
686.810320,0.433128
687.119420,0.430635
687.428480,0.431067
687.737500,0.435150
688.046480,0.424847
688.355420,0.435685
688.664320,0.420428
688.973180,0.434916
689.282000,0.435571
689.590780,0.432899
689.899520,0.423092
690.208220,0.425459
690.516880,0.433372
690.825500,0.429811
691.134080,0.425209
691.442620,0.427210
691.751120,0.423208
692.059580,0.430264
692.368000,0.427111
692.676380,0.431679
692.984720,0.428626
693.293020,0.434271
693.601280,0.427318
693.909500,0.429436
694.217680,0.422696
694.525820,0.426123
694.833920,0.431133
695.141980,0.430004
695.450000,0.428244
695.757980,0.426662
696.065920,0.421748
696.373820,0.421093
696.681680,0.418872
696.989500,0.423389
697.297280,0.422015
697.605020,0.434127
697.912720,0.415450
698.220380,0.424242
698.528000,0.430775
698.835580,0.420782
699.143120,0.417771
699.450620,0.419252
699.758080,0.419216
700.065500,0.430168
700.372880,0.431600
700.680220,0.431193
700.987520,0.425000
701.294780,0.422141
701.602000,0.420761
701.909180,0.430048
702.216320,0.421979
702.523420,0.426598
702.830480,0.424158
703.137500,0.424396
703.444480,0.419329
703.751420,0.434714
704.058320,0.431737
704.365180,0.418770
704.672000,0.425347
704.978780,0.424503
705.285520,0.419797
705.592220,0.418824
705.898880,0.414500
706.205500,0.421753
706.512080,0.414297
706.818620,0.423375
707.125120,0.416154
707.431580,0.411489
707.738000,0.426953
708.044380,0.412196
708.350720,0.424914
708.657020,0.431028
708.963280,0.424689
709.269500,0.417613
709.575680,0.426326
709.881820,0.419025
710.187920,0.423346
710.493980,0.410008
710.800000,0.423341
711.105980,0.411145
711.411920,0.415845
711.717820,0.413645
712.023680,0.416246
712.329500,0.419558
712.635280,0.421705
712.941020,0.414766
713.246720,0.425296
713.552380,0.419545
713.858000,0.411904
714.163580,0.424230
714.469120,0.420086
714.774620,0.423608
715.080080,0.416961
715.385500,0.420863
715.690880,0.410651
715.996220,0.414025
716.301520,0.416601
716.606780,0.413129
716.912000,0.418821
717.217180,0.418595
717.522320,0.414314
717.827420,0.422295
718.132480,0.413890
718.437500,0.415410
718.742480,0.407258
719.047420,0.415858
719.352320,0.425073
719.657180,0.416599
719.962000,0.413151
720.266780,0.420856
720.571520,0.405137
720.876220,0.409984
721.180880,0.413043
721.485500,0.412453
721.790080,0.408917
722.094620,0.425815
722.399120,0.419216
722.703580,0.414916
723.008000,0.413972
723.312380,0.416703
723.616720,0.404590
723.921020,0.413599
724.225280,0.407941
724.529500,0.400613
724.833680,0.412367
725.137820,0.401322
725.441920,0.403923
725.745980,0.411186
726.050000,0.416779
726.353980,0.403785
726.657920,0.409357
726.961820,0.414612
727.265680,0.411466
727.569500,0.406307
727.873280,0.402771
728.177020,0.409949
728.480720,0.400000
728.784380,0.414279
729.088000,0.401790
729.391580,0.415443
729.695120,0.410749
729.998620,0.411568
730.302080,0.403172
730.605500,0.403202
730.908880,0.410093
731.212220,0.408913
731.515520,0.403218
731.818780,0.397087
732.122000,0.410925
732.425180,0.402661
732.728320,0.399603
733.031420,0.398496
733.334480,0.407653
733.637500,0.391633
733.940480,0.404299
734.243420,0.403160
734.546320,0.407676
734.849180,0.400826
735.152000,0.405602
735.454780,0.403926
735.757520,0.395680
736.060220,0.412322
736.362880,0.407563
736.665500,0.392167
736.968080,0.406233
737.270620,0.410996
737.573120,0.408297
737.875580,0.405168
738.178000,0.393576
738.480380,0.408108
738.782720,0.394766
739.085020,0.397026
739.387280,0.391907
739.689500,0.403171
739.991680,0.405952
740.293820,0.403538
740.595920,0.406789
740.897980,0.403727
741.200000,0.401570
741.501980,0.408023
741.803920,0.391892
742.105820,0.398759
742.407680,0.402446
742.709500,0.401136
743.011280,0.396249
743.313020,0.401159
743.614720,0.397562
743.916380,0.386047
744.218000,0.394988
744.519580,0.396739
744.821120,0.392216
745.122620,0.391252
745.424080,0.390024
745.725500,0.400121
746.026880,0.399631
746.328220,0.400123
746.629520,0.390126
746.930780,0.390319
747.232000,0.393624
747.533180,0.400854
747.834320,0.395009
748.135420,0.381603
748.436480,0.396132
748.737500,0.382952
749.038480,0.395846
749.339420,0.402614
749.640320,0.398492
749.941180,0.395378
750.242000,0.398869
750.542780,0.397643
750.843520,0.402306
751.144220,0.393590
751.444880,0.394420
751.745500,0.391558
752.046080,0.398332
752.346620,0.394974
752.647120,0.391248
752.947580,0.393920
753.248000,0.390716
753.548380,0.392323
753.848720,0.388925
754.149020,0.390071
754.449280,0.386080
754.749500,0.382216
755.049680,0.393333
755.349820,0.378919
755.649920,0.393258
755.949980,0.390179
756.250000,0.378698
756.549980,0.387459
756.849920,0.394290
757.149820,0.385230
757.449680,0.390759
757.749500,0.394683
758.049280,0.403413
758.349020,0.389430
758.648720,0.383023
758.948380,0.385567
759.248000,0.394879
759.547580,0.386012
759.847120,0.388697
760.146620,0.385656
760.446080,0.399866
760.745500,0.391608
761.044880,0.388494
761.344220,0.387028
761.643520,0.379944
761.942780,0.384185
762.242000,0.392504
762.541180,0.392958
762.840320,0.383427
763.139420,0.385373
763.438480,0.385509
763.737500,0.376981
764.036480,0.396226
764.335420,0.384615
764.634320,0.393624
764.933180,0.376027
765.232000,0.386537
765.530780,0.382456
765.829520,0.384615
766.128220,0.387613
766.426880,0.388060
766.725500,0.391364
767.024080,0.382716
767.322620,0.389350
767.621120,0.390921
767.919580,0.377474
768.218000,0.383721
768.516380,0.391481
768.814720,0.373114
769.113020,0.390765
769.411280,0.390193
769.709500,0.377537
770.007680,0.382413
770.305820,0.388776
770.603920,0.379380
770.901980,0.384563
771.200000,0.381793
771.497980,0.382038
771.795920,0.383946
772.093820,0.372995
772.391680,0.381015
772.689500,0.387162
772.987280,0.387879
773.285020,0.387560
773.582720,0.389865
773.880380,0.389842
774.178000,0.389911
774.475580,0.383791
774.773120,0.368139
775.070620,0.384719
775.368080,0.375418
775.665500,0.372062
775.962880,0.380921
776.260220,0.387618
776.557520,0.384923
776.854780,0.385396
777.152000,0.370690
777.449180,0.387728
777.746320,0.383737
778.043420,0.380628
778.340480,0.382273
778.637500,0.387424
778.934480,0.383322
779.231420,0.375848
779.528320,0.375418
779.825180,0.363636
780.122000,0.369190
780.418780,0.389193
780.715520,0.379611
781.012220,0.383562
781.308880,0.375254
781.605500,0.380822
781.902080,0.371663
782.198620,0.375256
782.495120,0.367627
782.791580,0.378267
783.088000,0.380952
783.384380,0.376891
783.680720,0.383037
783.977020,0.376462
784.273280,0.383916
784.569500,0.383648
784.865680,0.372740
785.161820,0.386806
785.457920,0.375606
785.753980,0.376134
786.050000,0.370166
786.345980,0.367361
786.641920,0.369882
786.937820,0.378205
787.233680,0.370912
787.529500,0.366852
787.825280,0.381728
788.121020,0.380312
788.416720,0.370501
788.712380,0.367419
789.008000,0.376062
789.303580,0.369611
789.599120,0.369455
789.894620,0.384116
790.190080,0.377085
790.485500,0.368611
790.780880,0.367025
791.076220,0.362193
791.371520,0.374001
791.666780,0.380364
791.962000,0.368112
792.257180,0.370425
792.552320,0.365482
792.847420,0.371179
793.142480,0.386081
793.437500,0.377713
793.732480,0.372348
794.027420,0.366469
794.322320,0.378822
794.617180,0.372957
794.912000,0.375929
795.206780,0.373602
795.501520,0.384030
795.796220,0.370370
796.090880,0.376790
796.385500,0.364318
796.680080,0.366492
796.974620,0.363772
797.269120,0.366389
797.563580,0.376336
797.858000,0.374336
798.152380,0.373550
798.446720,0.373846
798.741020,0.367488
799.035280,0.357919
799.329500,0.364896
799.623680,0.371318
