399.985280,0.500000
400.329500,0.500000
400.673680,0.455696
401.017820,0.514706
401.361920,0.545455
401.705980,0.414634
402.050000,0.506494
402.393980,0.482353
402.737920,0.483146
403.081820,0.474227
403.425680,0.476744
403.769500,0.437500
404.113280,0.528736
404.457020,0.528090
404.800720,0.445652
405.144380,0.464646
405.488000,0.451613
405.831580,0.474227
406.175120,0.510638
406.518620,0.480000
406.862080,0.567010
407.205500,0.479167
407.548880,0.469388
407.892220,0.450980
408.235520,0.436170
408.578780,0.514286
408.922000,0.471154
409.265180,0.515152
409.608320,0.393939
409.951420,0.556701
410.294480,0.490196
410.637500,0.423913
410.980480,0.549020
411.323420,0.571429
411.666320,0.504587
412.009180,0.500000
412.352000,0.504950
412.694780,0.477064
413.037520,0.477064
413.380220,0.513514
413.722880,0.535714
414.065500,0.549550
414.408080,0.495575
414.750620,0.477876
415.093120,0.504132
415.435580,0.537815
415.778000,0.537879
416.120380,0.487395
416.462720,0.484127
416.805020,0.526316
417.147280,0.470149
417.489500,0.521429
417.831680,0.431507
418.173820,0.475177
418.515920,0.524476
418.857980,0.493671
419.200000,0.525641
419.541980,0.520710
419.883920,0.500000
420.225820,0.508671
420.567680,0.530726
420.909500,0.519126
421.251280,0.536458
421.593020,0.515306
421.934720,0.515152
422.276380,0.507692
422.618000,0.495098
422.959580,0.524510
423.301120,0.525114
423.642620,0.513043
423.984080,0.516279
424.325500,0.470852
424.666880,0.543103
425.008220,0.500000
425.349520,0.512712
425.690780,0.496154
426.032000,0.478431
426.373180,0.489627
426.714320,0.480469
427.055420,0.501931
427.396480,0.490637
427.737500,0.478261
428.078480,0.509881
428.419420,0.510040
428.760320,0.517241
429.101180,0.503937
429.442000,0.494253
429.782780,0.507692
430.123520,0.498039
430.464220,0.501845
430.804880,0.513410
431.145500,0.476364
431.486080,0.501873
431.826620,0.531008
432.167120,0.488971
432.507580,0.500000
432.848000,0.482014
433.188380,0.501805
433.528720,0.475472
433.869020,0.517857
434.209280,0.470175
434.549500,0.491289
434.889680,0.481481
435.229820,0.498294
435.569920,0.477509
435.909980,0.478964
436.250000,0.484746
436.589980,0.476780
436.929920,0.511111
437.269820,0.482759
437.609680,0.494083
437.949500,0.484940
438.289280,0.473088
438.629020,0.500000
438.968720,0.473837
439.308380,0.463415
439.648000,0.479452
439.987580,0.478836
440.327120,0.517333
440.666620,0.485714
441.006080,0.488491
441.345500,0.484029
441.684880,0.488038
442.024220,0.501241
442.363520,0.488095
442.702780,0.490909
443.042000,0.491189
443.381180,0.495690
443.720320,0.496760
444.059420,0.478992
444.398480,0.481172
444.737500,0.473361
445.076480,0.464286
445.415420,0.473054
445.754320,0.492723
446.093180,0.471560
446.432000,0.484962
446.770780,0.489564
447.109520,0.507353
447.448220,0.470483
447.786880,0.491950
448.125500,0.486207
448.464080,0.485714
448.802620,0.494681
449.141120,0.465398
449.479580,0.479021
449.818000,0.483649
450.156380,0.479933
450.494720,0.464463
450.833020,0.489510
451.171280,0.474315
451.509500,0.477352
451.847680,0.499157
452.185820,0.471601
452.523920,0.481100
452.861980,0.492411
453.200000,0.475083
453.537980,0.470588
453.875920,0.484034
454.213820,0.467466
454.551680,0.473510
454.889500,0.472175
455.227280,0.462633
455.565020,0.460637
455.902720,0.474210
456.240380,0.475874
456.578000,0.491289
456.915580,0.471503
457.253120,0.475329
457.590620,0.477833
457.928080,0.498316
458.265500,0.474662
458.602880,0.465909
458.940220,0.477157
459.277520,0.462400
459.614780,0.487725
459.952000,0.461180
460.289180,0.479430
460.626320,0.470866
460.963420,0.484653
461.300480,0.489297
461.637500,0.488444
461.974480,0.483180
462.311420,0.473920
462.648320,0.458272
462.985180,0.466284
463.322000,0.483631
463.658780,0.457182
463.995520,0.474553
464.332220,0.468144
464.668880,0.466398
465.005500,0.471850
465.342080,0.478873
465.678620,0.468635
466.015120,0.482536
466.351580,0.472819
466.688000,0.466504
467.024380,0.467801
467.360720,0.470455
467.697020,0.471526
468.033280,0.467778
468.369500,0.467991
468.705680,0.468997
469.041820,0.461458
469.377920,0.472885
469.713980,0.459320
470.050000,0.465700
470.385980,0.468689
470.721920,0.466210
471.057820,0.478558
471.393680,0.464920
471.729500,0.476367
472.065280,0.473166
472.401020,0.468085
472.736720,0.470332
473.072380,0.462298
473.408000,0.455178
473.743580,0.461938
474.079120,0.476314
474.414620,0.469890
474.750080,0.462978
475.085500,0.470395
475.420880,0.458784
475.756220,0.471791
476.091520,0.467178
476.426780,0.461165
476.762000,0.454545
477.097180,0.461600
477.432320,0.467690
477.767420,0.466503
478.102480,0.462992
478.437500,0.464696
478.772480,0.457841
479.107420,0.466233
479.442320,0.461231
479.777180,0.462212
480.112000,0.451464
480.446780,0.453624
480.781520,0.470209
481.116220,0.467259
481.450880,0.461358
481.785500,0.477057
482.120080,0.470219
482.454620,0.463092
482.789120,0.459395
483.123580,0.456386
483.458000,0.461234
483.792380,0.469649
484.126720,0.456371
484.461020,0.456674
484.795280,0.461064
485.129500,0.461419
485.463680,0.450388
485.797820,0.463453
486.131920,0.459067
486.465980,0.461004
486.800000,0.462595
487.133980,0.453172
487.467920,0.462892
487.801820,0.469870
488.135680,0.461713
488.469500,0.459153
488.803280,0.453195
489.137020,0.453480
489.470720,0.466617
489.804380,0.461024
490.138000,0.471810
490.471580,0.459838
490.805120,0.448177
491.138620,0.446340
491.472080,0.466431
491.805500,0.456067
492.138880,0.461432
492.472220,0.461592
492.805520,0.463687
493.138780,0.466575
493.472000,0.460201
493.805180,0.470668
494.138320,0.463642
494.471420,0.451172
494.804480,0.455369
495.137500,0.457638
495.470480,0.456342
495.803420,0.455290
496.136320,0.463033
496.469180,0.453653
496.802000,0.448655
497.134780,0.462098
497.467520,0.475229
497.800220,0.461675
498.132880,0.452675
498.465500,0.461182
498.798080,0.451484
499.130620,0.451432
499.463120,0.455924
499.795580,0.453245
500.128000,0.451771
500.460380,0.454252
500.792720,0.454931
501.125020,0.446663
501.457280,0.457963
501.789500,0.455579
502.121680,0.457750
502.453820,0.456910
502.785920,0.450725
503.117980,0.455348
503.450000,0.458061
503.781980,0.462382
504.113920,0.459459
504.445820,0.452115
504.777680,0.449882
505.109500,0.459135
505.441280,0.460325
505.773020,0.452795
506.104720,0.457843
506.436380,0.461903
506.768000,0.452292
507.099580,0.451716
507.431120,0.450117
507.762620,0.455357
508.094080,0.446673
508.425500,0.460317
508.756880,0.458619
509.088220,0.452622
509.419520,0.456704
509.750780,0.448922
510.082000,0.443097
510.413180,0.453247
510.744320,0.455591
511.075420,0.456004
511.406480,0.456041
511.737500,0.446296
512.068480,0.458177
512.399420,0.452582
512.730320,0.441109
513.061180,0.449572
513.392000,0.459063
513.722780,0.453410
514.053520,0.448970
514.384220,0.451475
514.714880,0.446625
515.045500,0.441092
515.376080,0.456174
515.706620,0.448612
516.037120,0.450490
516.367580,0.457368
516.698000,0.439216
517.028380,0.445879
517.358720,0.448395
517.689020,0.454995
518.019280,0.453588
518.349500,0.463761
518.679680,0.445734
519.009820,0.442814
519.339920,0.453908
519.669980,0.443496
520.000000,0.446256
520.329980,0.448419
520.659920,0.441207
520.989820,0.450980
521.319680,0.449588
521.649500,0.441131
521.979280,0.453027
522.309020,0.447614
522.638720,0.442396
522.968380,0.444157
523.298000,0.438935
523.627580,0.445422
523.957120,0.439481
524.286620,0.450756
524.616080,0.453464
524.945500,0.454780
525.274880,0.446383
525.604220,0.445652
525.933520,0.448637
526.262780,0.436391
526.592000,0.443937
526.921180,0.449975
527.250320,0.443430
527.579420,0.445680
527.908480,0.443624
528.237500,0.449851
528.566480,0.451098
528.895420,0.450961
529.224320,0.454185
529.553180,0.443373
529.882000,0.451582
530.210780,0.442568
530.539520,0.452061
530.868220,0.449497
531.196880,0.437172
531.525500,0.452785
531.854080,0.438555
532.182620,0.445586
532.511120,0.445012
532.839580,0.452813
533.168000,0.444850
533.496380,0.451142
533.824720,0.437416
534.153020,0.446277
534.481280,0.445374
534.809500,0.452946
535.137680,0.441406
535.465820,0.445017
535.793920,0.444585
536.121980,0.453210
536.450000,0.446934
536.777980,0.447424
537.105920,0.450809
537.433820,0.447218
537.761680,0.454694
538.089500,0.444759
538.417280,0.440509
538.745020,0.454834
539.072720,0.446701
539.400380,0.450272
539.728000,0.448566
540.055580,0.446067
540.383120,0.449739
540.710620,0.441220
541.038080,0.457396
541.365500,0.447426
541.692880,0.446221
542.020220,0.445124
542.347520,0.458722
542.674780,0.442131
543.002000,0.442967
543.329180,0.449316
543.656320,0.451477
543.983420,0.442735
544.310480,0.443765
544.637500,0.447288
544.964480,0.443809
545.291420,0.446328
545.618320,0.447543
545.945180,0.438365
546.272000,0.442005
546.598780,0.441495
546.925520,0.447742
547.252220,0.444041
547.578880,0.444770
547.905500,0.442157
548.232080,0.438596
548.558620,0.440286
548.885120,0.439647
549.211580,0.444873
549.538000,0.445525
549.864380,0.439228
550.190720,0.443332
550.517020,0.447523
550.843280,0.449511
551.169500,0.435433
551.495680,0.448752
551.821820,0.447420
552.147920,0.438517
552.473980,0.441225
552.800000,0.441465
553.125980,0.439751
553.451920,0.440279
553.777820,0.443371
554.103680,0.447253
554.429500,0.438567
554.755280,0.436582
555.081020,0.439505
555.406720,0.440569
555.732380,0.439173
556.058000,0.443652
556.383580,0.439918
556.709120,0.440041
557.034620,0.436445
557.360080,0.438687
557.685500,0.444329
558.010880,0.438821
558.336220,0.441125
558.661520,0.436370
558.986780,0.437279
559.312000,0.438746
559.637180,0.437702
559.962320,0.442150
560.287420,0.436883
560.612480,0.439900
560.937500,0.442364
561.262480,0.440249
561.587420,0.443235
561.912320,0.434783
562.237180,0.430422
562.562000,0.435466
562.886780,0.435154
563.211520,0.432191
563.536220,0.431169
563.860880,0.440966
564.185500,0.434522
564.510080,0.440557
564.834620,0.440268
565.159120,0.440226
565.483580,0.436716
565.808000,0.437003
566.132380,0.433420
566.456720,0.439153
566.781020,0.433233
567.105280,0.426087
567.429500,0.436267
567.753680,0.441120
568.077820,0.431774
568.401920,0.431245
568.725980,0.437571
569.050000,0.438023
569.373980,0.430910
569.697920,0.435722
570.021820,0.432584
570.345680,0.425182
570.669500,0.423884
570.993280,0.430417
571.317020,0.432225
571.640720,0.431641
571.964380,0.425019
572.288000,0.433605
572.611580,0.439161
572.935120,0.435466
573.258620,0.432685
573.582080,0.433681
573.905500,0.433730
574.228880,0.434298
574.552220,0.436057
574.875520,0.435964
575.198780,0.432237
575.522000,0.437683
575.845180,0.422994
576.168320,0.427955
576.491420,0.439680
576.814480,0.435081
577.137500,0.438672
577.460480,0.435665
577.783420,0.429439
578.106320,0.438390
578.429180,0.437964
578.752000,0.437305
579.074780,0.435266
579.397520,0.427695
579.720220,0.439189
580.042880,0.432772
580.365500,0.432495
580.688080,0.431818
581.010620,0.430645
581.333120,0.436540
581.655580,0.437562
581.978000,0.433322
582.300380,0.435573
582.622720,0.438365
582.945020,0.430429
583.267280,0.432758
583.589500,0.432103
583.911680,0.431566
584.233820,0.426188
584.555920,0.436180
584.877980,0.435302
585.200000,0.426642
585.521980,0.443312
585.843920,0.431056
586.165820,0.432968
586.487680,0.431839
586.809500,0.431443
587.131280,0.428276
587.453020,0.435714
587.774720,0.436428
588.096380,0.432614
588.418000,0.432836
588.739580,0.439494
589.061120,0.433007
589.382620,0.443266
589.704080,0.431136
590.025500,0.437215
590.346880,0.435076
590.668220,0.430132
590.989520,0.428175
591.310780,0.434410
591.632000,0.437978
591.953180,0.430944
592.274320,0.429156
592.595420,0.433998
592.916480,0.427873
593.237500,0.433576
593.558480,0.432069
593.879420,0.429997
594.200320,0.429949
594.521180,0.430013
594.842000,0.434713
595.162780,0.433226
595.483520,0.437118
595.804220,0.433942
596.124880,0.431921
596.445500,0.425727
596.766080,0.431837
597.086620,0.430998
597.407120,0.433913
597.727580,0.441262
598.048000,0.431896
598.368380,0.429774
598.688720,0.426212
599.009020,0.433652
599.329280,0.428153
599.649500,0.427892
599.969680,0.431891
600.289820,0.435897
600.609920,0.434678
600.929980,0.435596
601.250000,0.428649
601.569980,0.425061
601.889920,0.427960
602.209820,0.431818
602.529680,0.436693
602.849500,0.425259
603.169280,0.424910
603.489020,0.423748
603.808720,0.428689
604.128380,0.424117
604.448000,0.426796
604.767580,0.421229
605.087120,0.426039
605.406620,0.425693
605.726080,0.428857
606.045500,0.421009
606.364880,0.426425
606.684220,0.430897
607.003520,0.426892
607.322780,0.430642
607.642000,0.430213
607.961180,0.427869
608.280320,0.427784
608.599420,0.422654
608.918480,0.428152
609.237500,0.424883
609.556480,0.429417
609.875420,0.422032
610.194320,0.423679
610.513180,0.420835
610.832000,0.418106
611.150780,0.424752
611.469520,0.421116
611.788220,0.425333
612.106880,0.428528
612.425500,0.417783
612.744080,0.429671
613.062620,0.420795
613.381120,0.419561
613.699580,0.426732
614.018000,0.426290
614.336380,0.427205
614.654720,0.424806
614.973020,0.420241
615.291280,0.423303
615.609500,0.429477
615.927680,0.420272
616.245820,0.422387
616.563920,0.420578
616.881980,0.418148
617.200000,0.417107
617.517980,0.416304
617.835920,0.416278
618.153820,0.411874
618.471680,0.418605
618.789500,0.413153
619.107280,0.418153
619.425020,0.422138
619.742720,0.420590
620.060380,0.417737
620.378000,0.425425
620.695580,0.418582
621.013120,0.413228
621.330620,0.422341
621.648080,0.416719
621.965500,0.414994
622.282880,0.416141
622.600220,0.411244
622.917520,0.417139
623.234780,0.429122
623.552000,0.419478
623.869180,0.420737
624.186320,0.422795
624.503420,0.417868
624.820480,0.416902
625.137500,0.418377
625.454480,0.424820
625.771420,0.411097
626.088320,0.420870
626.405180,0.418793
626.722000,0.410289
627.038780,0.414160
627.355520,0.410938
627.672220,0.419285
627.988880,0.413997
628.305500,0.421627
628.622080,0.419765
628.938620,0.417737
629.255120,0.417859
629.571580,0.417101
629.888000,0.414544
630.204380,0.418840
630.520720,0.416514
630.837020,0.418131
631.153280,0.412470
631.469500,0.416010
631.785680,0.415612
632.101820,0.414958
632.417920,0.418778
632.733980,0.416867
633.050000,0.421164
633.365980,0.414938
633.681920,0.417661
633.997820,0.416019
634.313680,0.415217
634.629500,0.409909
634.945280,0.413783
635.261020,0.419431
635.576720,0.426600
635.892380,0.413593
636.208000,0.409646
636.523580,0.414791
636.839120,0.414013
637.154620,0.412754
637.470080,0.414060
637.785500,0.419109
638.100880,0.412105
638.416220,0.418177
638.731520,0.410602
639.046780,0.411593
639.362000,0.416858
639.677180,0.417190
639.992320,0.410488
640.307420,0.412475
640.622480,0.412209
640.937500,0.408599
641.252480,0.413572
641.567420,0.420006
641.882320,0.408686
642.197180,0.421673
642.512000,0.414777
642.826780,0.410264
643.141520,0.412615
643.456220,0.415053
643.770880,0.416252
644.085500,0.411683
644.400080,0.415449
644.714620,0.411093
645.029120,0.411441
645.343580,0.416072
645.658000,0.417707
645.972380,0.417101
646.286720,0.415372
646.601020,0.417105
646.915280,0.414862
647.229500,0.410165
647.543680,0.407070
647.857820,0.410129
648.171920,0.411015
648.485980,0.408331
648.800000,0.408101
649.113980,0.412694
649.427920,0.413870
649.741820,0.405331
650.055680,0.413330
650.369500,0.412556
650.683280,0.408158
650.997020,0.404840
651.310720,0.409191
651.624380,0.407143
651.938000,0.409695
652.251580,0.408851
652.565120,0.406652
652.878620,0.408502
653.192080,0.411798
653.505500,0.404488
653.818880,0.413989
654.132220,0.409000
654.445520,0.406693
654.758780,0.405099
655.072000,0.410029
655.385180,0.400856
655.698320,0.402115
656.011420,0.407853
656.324480,0.404547
656.637500,0.405852
656.950480,0.399295
657.263420,0.406148
657.576320,0.404091
657.889180,0.408434
658.202000,0.404287
658.514780,0.401012
658.827520,0.410864
659.140220,0.402457
659.452880,0.405014
659.765500,0.408790
660.078080,0.395426
660.390620,0.399939
660.703120,0.406966
661.015580,0.401840
661.328000,0.402078
661.640380,0.406337
661.952720,0.402055
662.265020,0.402962
662.577280,0.402672
662.889500,0.396720
663.201680,0.406828
663.513820,0.402380
663.825920,0.403138
664.137980,0.406270
664.450000,0.398018
664.761980,0.395090
665.073920,0.396300
665.385820,0.396924
665.697680,0.399008
666.009500,0.404722
666.321280,0.402253
666.633020,0.399269
666.944720,0.401079
667.256380,0.396030
667.568000,0.390625
667.879580,0.394898
668.191120,0.398352
668.502620,0.390962
668.814080,0.405263
669.125500,0.394116
669.436880,0.401452
669.748220,0.394600
670.059520,0.398459
670.370780,0.389353
670.682000,0.406726
670.993180,0.400282
671.304320,0.395570
671.615420,0.397727
671.926480,0.399574
672.237500,0.391926
672.548480,0.389638
672.859420,0.387062
673.170320,0.392818
673.481180,0.404417
673.792000,0.389109
674.102780,0.393537
674.413520,0.398833
674.724220,0.392740
675.034880,0.393106
675.345500,0.401896
675.656080,0.394192
675.966620,0.392143
676.277120,0.391798
676.587580,0.395066
676.898000,0.391564
677.208380,0.397043
677.518720,0.394238
677.829020,0.395418
678.139280,0.386583
678.449500,0.385815
678.759680,0.393406
679.069820,0.389963
679.379920,0.399095
679.689980,0.384701
680.000000,0.387664
680.309980,0.391611
680.619920,0.391897
680.929820,0.385218
681.239680,0.384417
681.549500,0.387037
681.859280,0.397685
682.169020,0.393137
682.478720,0.394914
682.788380,0.389443
683.098000,0.384443
683.407580,0.390244
683.717120,0.385135
684.026620,0.394578
684.336080,0.384994
684.645500,0.389824
684.954880,0.387986
685.264220,0.386938
685.573520,0.389418
685.882780,0.397775
686.192000,0.386757
686.501180,0.389709
686.810320,0.391622
687.119420,0.389966
687.428480,0.385112
687.737500,0.389486
688.046480,0.388420
688.355420,0.386269
688.664320,0.378730
688.973180,0.390505
689.282000,0.389660
689.590780,0.386503
689.899520,0.380175
690.208220,0.392966
690.516880,0.390225
690.825500,0.386415
691.134080,0.382308
691.442620,0.384909
691.751120,0.387182
692.059580,0.380971
692.368000,0.386596
692.676380,0.389313
692.984720,0.382824
693.293020,0.384498
693.601280,0.383060
693.909500,0.385168
694.217680,0.383854
694.525820,0.384235
694.833920,0.383823
695.141980,0.382568
695.450000,0.385878
695.757980,0.377387
696.065920,0.380194
696.373820,0.379908
696.681680,0.380514
696.989500,0.382092
697.297280,0.375729
697.605020,0.385317
697.912720,0.374712
698.220380,0.374656
698.528000,0.385680
698.835580,0.380482
699.143120,0.381138
699.450620,0.380270
699.758080,0.377647
700.065500,0.384278
700.372880,0.386000
700.680220,0.376546
700.987520,0.381746
701.294780,0.380779
701.602000,0.382726
701.909180,0.383943
702.216320,0.380524
702.523420,0.385556
702.830480,0.385347
703.137500,0.376072
703.444480,0.377515
703.751420,0.378304
704.058320,0.381084
704.365180,0.377760
704.672000,0.378218
704.978780,0.379243
705.285520,0.372457
705.592220,0.385882
705.898880,0.380221
706.205500,0.382238
706.512080,0.389021
706.818620,0.380805
707.125120,0.378462
707.431580,0.376710
707.738000,0.381641
708.044380,0.371285
708.350720,0.377149
708.657020,0.379054
708.963280,0.379270
709.269500,0.378474
709.575680,0.379568
709.881820,0.382862
710.187920,0.378988
710.493980,0.377424
710.800000,0.368040
711.105980,0.363328
711.411920,0.372881
711.717820,0.375049
712.023680,0.367664
712.329500,0.381703
712.635280,0.379845
712.941020,0.377271
713.246720,0.379447
713.552380,0.378728
713.858000,0.368546
714.163580,0.373717
714.469120,0.370457
714.774620,0.374655
715.080080,0.379270
715.385500,0.376898
715.690880,0.378698
715.996220,0.374406
716.301520,0.371146
716.606780,0.375000
716.912000,0.381260
717.217180,0.373903
717.522320,0.370179
717.827420,0.371847
718.132480,0.371337
718.437500,0.376274
718.742480,0.365323
719.047420,0.371359
719.352320,0.376090
719.657180,0.369583
719.962000,0.373449
720.266780,0.368509
720.571520,0.369097
720.876220,0.364157
721.180880,0.367057
721.485500,0.369829
721.790080,0.367728
722.094620,0.377358
722.399120,0.379147
722.703580,0.369481
723.008000,0.372143
723.312380,0.371072
723.616720,0.358266
723.921020,0.362061
724.225280,0.364747
724.529500,0.365587
724.833680,0.370996
725.137820,0.366520
725.441920,0.373161
725.745980,0.364653
726.050000,0.379793
726.353980,0.372690
726.657920,0.356275
726.961820,0.369863
727.265680,0.361997
727.569500,0.371115
727.873280,0.359815
728.177020,0.374482
728.480720,0.368056
728.784380,0.370127
729.088000,0.366463
729.391580,0.370914
729.695120,0.371401
729.998620,0.363767
730.302080,0.360404
730.605500,0.361475
730.908880,0.367467
731.212220,0.366797
731.515520,0.355436
731.818780,0.365534
732.122000,0.366634
732.425180,0.362247
732.728320,0.348042
733.031420,0.361404
733.334480,0.365306
733.637500,0.355847
733.940480,0.367451
734.243420,0.364934
734.546320,0.360996
734.849180,0.356921
735.152000,0.364627
735.454780,0.365702
735.757520,0.368282
736.060220,0.359663
736.362880,0.367122
736.665500,0.358747
736.968080,0.362171
737.270620,0.369080
737.573120,0.356987
737.875580,0.363386
738.178000,0.362003
738.480380,0.358378
738.782720,0.348964
739.085020,0.353524
739.387280,0.355876
739.689500,0.361268
739.991680,0.357664
740.293820,0.360973
740.595920,0.366166
740.897980,0.361378
741.200000,0.360628
741.501980,0.365616
741.803920,0.356419
742.105820,0.356458
742.407680,0.360513
742.709500,0.350000
743.011280,0.355803
743.313020,0.357681
743.614720,0.348230
743.916380,0.348837
744.218000,0.360382
744.519580,0.352053
744.821120,0.361677
745.122620,0.361294
745.424080,0.346154
745.725500,0.353651
746.026880,0.354680
746.328220,0.352651
746.629520,0.343167
746.930780,0.349877
747.232000,0.354997
747.533180,0.355705
747.834320,0.362142
748.135420,0.350528
748.436480,0.356207
748.737500,0.354540
749.038480,0.353696
749.339420,0.365899
749.640320,0.367693
749.941180,0.354154
750.242000,0.359296
750.542780,0.360422
750.843520,0.361307
751.144220,0.354487
751.444880,0.355739
751.745500,0.350649
752.046080,0.359205
752.346620,0.343428
752.647120,0.353364
752.947580,0.361578
753.248000,0.361057
753.548380,0.353286
753.848720,0.354153
754.149020,0.335268
754.449280,0.355877
754.749500,0.340411
755.049680,0.348000
755.349820,0.350901
755.649920,0.354263
755.949980,0.349701
756.250000,0.359632
756.549980,0.343894
756.849920,0.349422
757.149820,0.345309
757.449680,0.351155
757.749500,0.355828
758.049280,0.350853
758.349020,0.349791
758.648720,0.353347
758.948380,0.339519
759.248000,0.356469
759.547580,0.346335
759.847120,0.343901
760.146620,0.347091
760.446080,0.348790
760.745500,0.344056
761.044880,0.352983
761.344220,0.343550
761.643520,0.343220
761.942780,0.351994
762.242000,0.345827
762.541180,0.345070
762.840320,0.346910
763.139420,0.340366
763.438480,0.341763
763.737500,0.345968
764.036480,0.348707
764.335420,0.353564
764.634320,0.338184
764.933180,0.345205
765.232000,0.338654
765.530780,0.339649
765.829520,0.352448
766.128220,0.351427
766.426880,0.348259
766.725500,0.352296
767.024080,0.348422
767.322620,0.356846
767.621120,0.341463
767.919580,0.351536
768.218000,0.350889
768.516380,0.349561
768.814720,0.339506
769.113020,0.343901
769.411280,0.351519
769.709500,0.340325
770.007680,0.348330
770.305820,0.348208
770.603920,0.338949
770.901980,0.342213
771.200000,0.340353
771.497980,0.336461
771.795920,0.343813
772.093820,0.346925
772.391680,0.344100
772.689500,0.336486
772.987280,0.344781
773.285020,0.343131
773.582720,0.338514
773.880380,0.354152
774.178000,0.340832
774.475580,0.345613
774.773120,0.340027
775.070620,0.344151
775.368080,0.340013
775.665500,0.331766
775.962880,0.339560
776.260220,0.344549
776.557520,0.343562
776.854780,0.346180
777.152000,0.336207
777.449180,0.341200
777.746320,0.330645
778.043420,0.344475
778.340480,0.347767
778.637500,0.345504
778.934480,0.340282
779.231420,0.337178
779.528320,0.335337
779.825180,0.325428
780.122000,0.326693
780.418780,0.344049
780.715520,0.337357
781.012220,0.347260
781.308880,0.348208
781.605500,0.341096
781.902080,0.343600
782.198620,0.336295
782.495120,0.340192
782.791580,0.343879
783.088000,0.338854
783.384380,0.340440
783.680720,0.342681
783.977020,0.330351
784.273280,0.346853
784.569500,0.339623
784.865680,0.329624
785.161820,0.333333
785.457920,0.333333
785.753980,0.334264
786.050000,0.324586
786.345980,0.337500
786.641920,0.337960
786.937820,0.347578
787.233680,0.338900
787.529500,0.332871
787.825280,0.340652
788.121020,0.336402
788.416720,0.335921
788.712380,0.335684
789.008000,0.335694
789.303580,0.330035
789.599120,0.339636
789.894620,0.327798
790.190080,0.334300
790.485500,0.336933
790.780880,0.336918
791.076220,0.333333
791.371520,0.334786
791.666780,0.340364
791.962000,0.346069
792.257180,0.330893
792.552320,0.329224
792.847420,0.335517
793.142480,0.337729
793.437500,0.329233
793.732480,0.333577
794.027420,0.327893
794.322320,0.334825
794.617180,0.335067
794.912000,0.330609
795.206780,0.329605
795.501520,0.333840
795.796220,0.327407
796.090880,0.336096
796.385500,0.323838
796.680080,0.333583
796.974620,0.329341
797.269120,0.328539
797.563580,0.328244
797.858000,0.330296
798.152380,0.341841
798.446720,0.338462
798.741020,0.330508
799.035280,0.324534
799.329500,0.334873
799.623680,0.336434
