399.985280,0.500000
400.329500,0.486486
400.673680,0.531646
401.017820,0.558824
401.361920,0.469697
401.705980,0.475610
402.050000,0.415584
402.393980,0.423529
402.737920,0.528090
403.081820,0.453608
403.425680,0.453488
403.769500,0.333333
404.113280,0.494253
404.457020,0.505618
404.800720,0.532609
405.144380,0.474747
405.488000,0.483871
405.831580,0.463918
406.175120,0.436170
406.518620,0.470000
406.862080,0.484536
407.205500,0.458333
407.548880,0.479592
407.892220,0.529412
408.235520,0.436170
408.578780,0.466667
408.922000,0.442308
409.265180,0.555556
409.608320,0.494949
409.951420,0.536082
410.294480,0.539216
410.637500,0.586957
410.980480,0.500000
411.323420,0.500000
411.666320,0.486239
412.009180,0.545455
412.352000,0.455446
412.694780,0.504587
413.037520,0.477064
413.380220,0.540541
413.722880,0.473214
414.065500,0.477477
414.408080,0.477876
414.750620,0.486726
415.093120,0.479339
415.435580,0.462185
415.778000,0.500000
416.120380,0.487395
416.462720,0.539683
416.805020,0.533835
417.147280,0.500000
417.489500,0.507143
417.831680,0.500000
418.173820,0.517730
418.515920,0.503497
418.857980,0.500000
419.200000,0.525641
419.541980,0.502959
419.883920,0.460674
420.225820,0.502890
420.567680,0.508380
420.909500,0.519126
421.251280,0.520833
421.593020,0.469388
421.934720,0.469697
422.276380,0.466667
422.618000,0.500000
422.959580,0.519608
423.301120,0.493151
423.642620,0.456522
423.984080,0.493023
424.325500,0.493274
424.666880,0.478448
425.008220,0.474790
425.349520,0.495763
425.690780,0.476923
426.032000,0.462745
426.373180,0.477178
426.714320,0.515625
427.055420,0.486486
427.396480,0.509363
427.737500,0.470356
428.078480,0.454545
428.419420,0.493976
428.760320,0.494253
429.101180,0.531496
429.442000,0.513410
429.782780,0.476923
430.123520,0.486275
430.464220,0.487085
430.804880,0.505747
431.145500,0.458182
431.486080,0.498127
431.826620,0.507752
432.167120,0.477941
432.507580,0.478261
432.848000,0.446043
433.188380,0.501805
433.528720,0.501887
433.869020,0.475000
434.209280,0.473684
434.549500,0.512195
434.889680,0.478114
435.229820,0.501706
435.569920,0.467128
435.909980,0.453074
436.250000,0.491525
436.589980,0.476780
436.929920,0.463492
437.269820,0.470219
437.609680,0.473373
437.949500,0.481928
438.289280,0.475921
438.629020,0.473837
438.968720,0.494186
439.308380,0.468835
439.648000,0.473973
439.987580,0.494709
440.327120,0.509333
440.666620,0.496104
441.006080,0.475703
441.345500,0.476658
441.684880,0.478469
442.024220,0.488834
442.363520,0.469048
442.702780,0.465909
443.042000,0.477974
443.381180,0.484914
443.720320,0.473002
444.059420,0.470588
444.398480,0.479079
444.737500,0.463115
445.076480,0.466270
445.415420,0.473054
445.754320,0.471933
446.093180,0.464220
446.432000,0.483083
446.770780,0.493359
447.109520,0.492647
447.448220,0.468694
447.786880,0.481216
448.125500,0.470690
448.464080,0.466071
448.802620,0.468085
449.141120,0.465398
449.479580,0.466783
449.818000,0.485370
450.156380,0.473244
450.494720,0.464463
450.833020,0.472028
451.171280,0.460616
451.509500,0.489547
451.847680,0.468803
452.185820,0.462995
452.523920,0.460481
452.861980,0.475548
453.200000,0.465116
453.537980,0.482353
453.875920,0.475630
454.213820,0.452055
454.551680,0.463576
454.889500,0.458685
455.227280,0.457295
455.565020,0.455611
455.902720,0.470882
456.240380,0.465890
456.578000,0.479094
456.915580,0.461140
457.253120,0.478618
457.590620,0.481117
457.928080,0.469697
458.265500,0.472973
458.602880,0.465909
458.940220,0.470389
459.277520,0.470400
459.614780,0.489362
459.952000,0.464286
460.289180,0.471519
460.626320,0.461417
460.963420,0.460420
461.300480,0.467890
461.637500,0.474576
461.974480,0.477064
462.311420,0.463487
462.648320,0.455344
462.985180,0.460545
463.322000,0.477679
463.658780,0.446133
463.995520,0.458047
464.332220,0.462604
464.668880,0.466398
465.005500,0.481233
465.342080,0.462228
465.678620,0.468635
466.015120,0.465718
466.351580,0.474083
466.688000,0.459196
467.024380,0.454435
467.360720,0.471591
467.697020,0.469248
468.033280,0.464444
468.369500,0.465784
468.705680,0.464487
469.041820,0.450000
469.377920,0.457701
469.713980,0.455201
470.050000,0.460870
470.385980,0.461840
470.721920,0.453477
471.057820,0.464912
471.393680,0.452760
471.729500,0.460612
472.065280,0.463327
472.401020,0.450355
472.736720,0.458115
473.072380,0.456912
473.408000,0.452567
473.743580,0.453287
474.079120,0.465978
474.414620,0.468193
474.750080,0.444264
475.085500,0.461349
475.420880,0.451291
475.756220,0.456255
476.091520,0.454390
476.426780,0.452265
476.762000,0.449718
477.097180,0.448800
477.432320,0.444265
477.767420,0.459150
478.102480,0.463780
478.437500,0.457307
478.772480,0.449961
479.107420,0.453214
479.442320,0.452438
479.777180,0.464598
480.112000,0.450693
480.446780,0.437256
480.781520,0.443639
481.116220,0.457559
481.450880,0.444965
481.785500,0.452532
482.120080,0.448276
482.454620,0.451437
482.789120,0.453822
483.123580,0.446262
483.458000,0.453323
483.792380,0.452875
484.126720,0.443243
484.461020,0.440281
484.795280,0.444873
485.129500,0.449727
485.463680,0.448062
485.797820,0.451011
486.131920,0.446060
486.465980,0.455598
486.800000,0.449618
487.133980,0.445619
487.467920,0.451415
487.801820,0.457666
488.135680,0.448067
488.469500,0.444024
488.803280,0.444279
489.137020,0.443223
489.470720,0.445104
489.804380,0.454343
490.138000,0.456231
490.471580,0.459101
490.805120,0.458184
491.138620,0.451315
491.472080,0.444523
491.805500,0.449791
492.138880,0.446143
492.472220,0.449827
492.805520,0.456704
493.138780,0.441764
493.472000,0.446154
493.805180,0.447476
494.138320,0.454303
494.471420,0.455078
494.804480,0.441138
495.137500,0.442875
495.470480,0.446144
495.803420,0.437028
496.136320,0.447995
496.469180,0.442603
496.802000,0.443765
497.134780,0.451183
497.467520,0.458104
497.800220,0.450472
498.132880,0.445620
498.465500,0.442642
498.798080,0.446347
499.130620,0.454801
499.463120,0.453116
499.795580,0.445545
500.128000,0.439237
500.460380,0.435953
500.792720,0.444327
501.125020,0.440883
501.457280,0.449608
501.789500,0.440083
502.121680,0.445827
502.453820,0.448241
502.785920,0.451226
503.117980,0.449460
503.450000,0.445003
503.781980,0.442451
504.113920,0.434329
504.445820,0.445309
504.777680,0.438118
505.109500,0.441346
505.441280,0.454111
505.773020,0.445279
506.104720,0.438530
506.436380,0.440606
506.768000,0.437792
507.099580,0.442563
507.431120,0.443560
507.762620,0.444549
508.094080,0.437557
508.425500,0.442577
508.756880,0.449474
509.088220,0.445722
509.419520,0.447393
509.750780,0.442830
510.082000,0.432836
510.413180,0.444035
510.744320,0.443166
511.075420,0.439963
511.406480,0.449929
511.737500,0.440278
512.068480,0.440320
512.399420,0.446009
512.730320,0.433256
513.061180,0.439581
513.392000,0.437766
513.722780,0.445245
514.053520,0.441303
514.384220,0.434824
514.714880,0.442317
515.045500,0.432471
515.376080,0.434867
515.706620,0.440818
516.037120,0.437255
516.367580,0.442090
516.698000,0.430882
517.028380,0.443396
517.358720,0.436049
517.689020,0.433234
518.019280,0.434019
518.349500,0.438925
518.679680,0.433619
519.009820,0.440283
519.339920,0.435872
519.669980,0.433953
520.000000,0.434539
520.329980,0.434940
520.659920,0.437117
520.989820,0.427245
521.319680,0.444959
521.649500,0.429820
521.979280,0.446764
522.309020,0.443465
522.638720,0.437276
522.968380,0.444674
523.298000,0.437891
523.627580,0.438696
523.957120,0.432208
524.286620,0.437207
524.616080,0.441055
524.945500,0.433075
525.274880,0.439713
525.604220,0.423913
525.933520,0.434486
526.262780,0.432337
526.592000,0.439878
526.921180,0.441341
527.250320,0.439878
527.579420,0.435068
527.908480,0.443624
528.237500,0.437438
528.566480,0.441118
528.895420,0.441597
529.224320,0.438831
529.553180,0.430843
529.882000,0.449635
530.210780,0.431950
530.539520,0.430489
530.868220,0.434658
531.196880,0.429049
531.525500,0.448910
531.854080,0.423546
532.182620,0.432508
532.511120,0.430162
532.839580,0.437387
533.168000,0.435734
533.496380,0.440183
533.824720,0.432481
534.153020,0.430673
534.481280,0.426872
534.809500,0.437115
535.137680,0.435764
535.465820,0.432131
535.793920,0.436548
536.121980,0.436005
536.450000,0.425793
536.777980,0.444910
537.105920,0.436696
537.433820,0.438625
537.761680,0.436735
538.089500,0.442736
538.417280,0.435734
538.745020,0.429873
539.072720,0.443967
539.400380,0.433566
539.728000,0.432505
540.055580,0.424345
540.383120,0.437453
540.710620,0.433408
541.038080,0.437477
541.365500,0.441912
541.692880,0.430596
542.020220,0.435408
542.347520,0.440775
542.674780,0.428017
543.002000,0.431770
543.329180,0.437741
543.656320,0.438819
543.983420,0.431111
544.310480,0.426436
544.637500,0.442170
544.964480,0.429004
545.291420,0.435361
545.618320,0.433931
545.945180,0.431773
546.272000,0.426278
546.598780,0.438217
546.925520,0.430926
547.252220,0.435787
547.578880,0.430433
547.905500,0.433333
548.232080,0.427225
548.558620,0.430524
548.885120,0.429833
549.211580,0.438123
549.538000,0.428988
549.864380,0.429904
550.190720,0.435583
550.517020,0.428944
550.843280,0.434853
551.169500,0.424936
551.495680,0.427727
551.821820,0.431744
552.147920,0.427781
552.473980,0.435298
552.800000,0.423806
553.125980,0.428618
553.451920,0.430325
553.777820,0.429047
554.103680,0.431749
554.429500,0.422163
554.755280,0.429907
555.081020,0.426136
555.406720,0.425669
555.732380,0.423585
556.058000,0.436864
556.383580,0.426909
556.709120,0.421778
557.034620,0.424733
557.360080,0.424525
557.685500,0.427386
558.010880,0.423224
558.336220,0.422847
558.661520,0.430344
558.986780,0.427002
559.312000,0.428775
559.637180,0.424417
559.962320,0.419366
560.287420,0.423484
560.612480,0.424471
560.937500,0.429515
561.262480,0.422654
561.587420,0.425100
561.912320,0.422623
562.237180,0.418579
562.562000,0.420875
562.886780,0.425121
563.211520,0.421759
563.536220,0.419666
563.860880,0.425877
564.185500,0.418386
564.510080,0.428518
564.834620,0.424637
565.159120,0.421053
565.483580,0.418472
565.808000,0.418086
566.132380,0.426706
566.456720,0.421391
566.781020,0.426482
567.105280,0.426465
567.429500,0.424127
567.753680,0.426160
568.077820,0.424043
568.401920,0.426280
568.725980,0.422770
569.050000,0.426996
569.373980,0.416064
569.697920,0.418658
570.021820,0.425094
570.345680,0.422120
570.669500,0.420450
570.993280,0.415652
571.317020,0.415418
571.640720,0.427936
571.964380,0.418337
572.288000,0.421365
572.611580,0.424186
572.935120,0.416760
573.258620,0.419970
573.582080,0.419896
573.905500,0.428146
574.228880,0.427988
574.552220,0.416270
574.875520,0.424423
575.198780,0.413083
575.522000,0.420821
575.845180,0.407235
576.168320,0.416098
576.491420,0.427326
576.814480,0.420253
577.137500,0.424964
577.460480,0.418267
577.783420,0.418721
578.106320,0.421652
578.429180,0.422764
578.752000,0.423411
579.074780,0.423466
579.397520,0.418334
579.720220,0.424710
580.042880,0.422861
580.365500,0.423230
580.688080,0.420963
581.010620,0.423557
581.333120,0.421844
581.655580,0.426573
581.978000,0.423346
582.300380,0.413178
582.622720,0.423533
582.945020,0.421977
583.267280,0.418756
583.589500,0.423756
583.911680,0.424262
584.233820,0.416745
584.555920,0.422313
584.877980,0.417714
585.200000,0.414672
585.521980,0.427247
585.843920,0.416718
586.165820,0.421389
586.487680,0.416792
586.809500,0.428143
587.131280,0.412896
587.453020,0.421131
587.774720,0.420461
588.096380,0.423862
588.418000,0.424056
588.739580,0.422248
589.061120,0.418056
589.382620,0.426074
589.704080,0.416830
590.025500,0.419235
590.346880,0.425801
590.668220,0.417530
590.989520,0.414309
591.310780,0.423088
591.632000,0.421858
591.953180,0.424578
592.274320,0.416598
592.595420,0.414332
592.916480,0.420538
593.237500,0.420102
593.558480,0.421038
593.879420,0.418128
594.200320,0.416555
594.521180,0.418592
594.842000,0.423160
595.162780,0.423077
595.483520,0.416379
595.804220,0.418367
596.124880,0.425793
596.445500,0.420487
596.766080,0.423232
597.086620,0.420117
597.407120,0.419695
597.727580,0.422169
598.048000,0.416821
598.368380,0.418990
598.688720,0.415203
599.009020,0.419321
599.329280,0.416445
599.649500,0.416006
599.969680,0.419071
600.289820,0.418002
600.609920,0.421587
600.929980,0.419027
601.250000,0.412703
601.569980,0.414529
601.889920,0.414862
602.209820,0.412879
602.529680,0.420764
602.849500,0.411620
603.169280,0.416093
603.489020,0.418489
603.808720,0.414975
604.128380,0.416115
604.448000,0.406354
604.767580,0.416201
605.087120,0.413019
605.406620,0.412259
605.726080,0.416025
606.045500,0.402340
606.364880,0.413099
606.684220,0.412050
607.003520,0.406250
607.322780,0.411313
607.642000,0.407812
607.961180,0.410234
608.280320,0.412123
608.599420,0.404693
608.918480,0.416129
609.237500,0.413146
609.556480,0.414916
609.875420,0.413763
610.194320,0.411574
610.513180,0.408405
610.832000,0.409768
611.150780,0.417543
611.469520,0.404525
611.788220,0.412334
612.106880,0.408926
612.425500,0.409562
612.744080,0.411511
613.062620,0.410703
613.381120,0.415905
613.699580,0.406499
614.018000,0.412469
614.336380,0.404072
614.654720,0.411473
614.973020,0.411601
615.291280,0.408429
615.609500,0.416482
615.927680,0.407293
616.245820,0.407545
616.563920,0.412185
616.881980,0.406611
617.200000,0.407776
617.517980,0.406347
617.835920,0.402610
618.153820,0.401927
618.471680,0.403101
618.789500,0.404972
619.107280,0.405321
619.425020,0.401205
619.742720,0.406780
620.060380,0.406142
620.378000,0.408118
620.695580,0.403257
621.013120,0.405354
621.330620,0.404769
621.648080,0.393691
621.965500,0.407465
622.282880,0.403846
622.600220,0.405559
622.917520,0.405482
623.234780,0.412086
623.552000,0.406429
623.869180,0.407501
624.186320,0.405285
624.503420,0.406897
624.820480,0.404650
625.137500,0.398169
625.454480,0.403251
625.771420,0.408575
626.088320,0.402900
626.405180,0.411325
626.722000,0.404956
627.038780,0.403822
627.355520,0.403438
627.672220,0.404666
627.988880,0.400622
628.305500,0.405111
628.622080,0.409542
628.938620,0.400917
629.255120,0.401680
629.571580,0.397181
629.888000,0.405032
630.204380,0.403805
630.520720,0.404936
630.837020,0.395005
631.153280,0.404376
631.469500,0.404184
631.785680,0.405365
632.101820,0.406212
632.417920,0.398212
632.733980,0.405762
633.050000,0.406004
633.365980,0.402786
633.681920,0.403640
633.997820,0.409145
634.313680,0.399587
634.629500,0.404306
634.945280,0.396481
635.261020,0.399178
635.576720,0.402819
635.892380,0.398780
636.208000,0.400930
636.523580,0.402222
636.839120,0.400405
637.154620,0.405217
637.470080,0.395122
637.785500,0.402989
638.100880,0.399942
638.416220,0.405234
638.731520,0.399713
639.046780,0.404020
639.362000,0.400516
639.677180,0.400914
639.992320,0.405695
640.307420,0.400955
640.622480,0.399048
640.937500,0.403329
641.252480,0.403239
641.567420,0.403240
641.882320,0.402283
642.197180,0.402021
642.512000,0.395186
642.826780,0.404716
643.141520,0.406224
643.456220,0.396237
643.770880,0.399392
644.085500,0.398547
644.400080,0.402247
644.714620,0.403846
645.029120,0.397140
645.343580,0.399342
645.658000,0.399667
645.972380,0.399562
646.286720,0.395203
646.601020,0.399668
646.915280,0.395668
647.229500,0.396429
647.543680,0.395747
647.857820,0.393614
648.171920,0.399349
648.485980,0.394355
648.800000,0.395701
649.113980,0.399113
649.427920,0.396394
649.741820,0.394889
650.055680,0.402633
650.369500,0.403307
650.683280,0.398724
650.997020,0.397965
651.310720,0.392130
651.624380,0.393956
651.938000,0.401385
652.251580,0.394100
652.565120,0.391001
652.878620,0.400901
653.192080,0.401124
653.505500,0.393548
653.818880,0.398635
654.132220,0.400456
654.445520,0.392513
654.758780,0.390085
655.072000,0.393123
655.385180,0.390300
655.698320,0.387539
656.011420,0.389797
656.324480,0.393763
656.637500,0.390788
656.950480,0.391368
657.263420,0.397872
657.576320,0.390157
657.889180,0.391920
658.202000,0.394022
658.514780,0.390592
658.827520,0.392857
659.140220,0.391070
659.452880,0.389006
659.765500,0.391632
660.078080,0.383689
660.390620,0.383135
660.703120,0.390162
661.015580,0.391104
661.328000,0.393262
661.640380,0.392358
661.952720,0.385238
662.265020,0.390989
662.577280,0.387723
662.889500,0.388521
663.201680,0.387364
663.513820,0.389193
663.825920,0.385527
664.137980,0.392049
664.450000,0.380435
664.761980,0.388216
665.073920,0.384940
665.385820,0.384490
665.697680,0.389752
666.009500,0.387429
666.321280,0.389331
666.633020,0.388963
666.944720,0.392990
667.256380,0.383580
667.568000,0.378057
667.879580,0.390136
668.191120,0.391827
668.502620,0.383773
668.814080,0.389474
669.125500,0.388642
669.436880,0.384509
669.748220,0.380408
670.059520,0.382003
670.370780,0.382742
670.682000,0.388319
670.993180,0.389711
671.304320,0.382911
671.615420,0.377486
671.926480,0.380767
672.237500,0.377992
672.548480,0.375444
672.859420,0.381344
673.170320,0.375045
673.481180,0.386314
673.792000,0.374684
674.102780,0.378097
674.413520,0.382793
674.724220,0.377132
675.034880,0.381738
675.345500,0.381109
675.656080,0.382577
675.966620,0.381593
676.277120,0.380081
676.587580,0.377761
676.898000,0.380366
677.208380,0.384104
677.518720,0.378920
677.829020,0.383222
678.139280,0.376946
678.449500,0.378388
678.759680,0.376920
679.069820,0.377323
679.379920,0.369295
679.689980,0.382102
680.000000,0.385047
680.309980,0.383073
680.619920,0.380159
680.929820,0.381859
681.239680,0.370753
681.549500,0.377037
681.859280,0.380134
682.169020,0.377098
682.478720,0.378459
682.788380,0.375784
683.098000,0.383695
683.407580,0.375610
683.717120,0.376126
684.026620,0.377636
684.336080,0.373247
684.645500,0.368500
684.954880,0.369475
685.264220,0.371461
685.573520,0.376475
685.882780,0.382048
686.192000,0.372084
686.501180,0.381006
686.810320,0.372790
687.119420,0.374002
687.428480,0.372199
687.737500,0.378741
688.046480,0.380368
688.355420,0.377971
688.664320,0.368018
688.973180,0.371746
689.282000,0.380787
689.590780,0.377301
689.899520,0.368401
690.208220,0.375382
690.516880,0.375716
690.825500,0.372075
691.134080,0.365224
691.442620,0.374619
691.751120,0.377323
692.059580,0.376385
692.368000,0.374479
692.676380,0.376718
692.984720,0.373664
693.293020,0.374240
693.601280,0.366654
693.909500,0.376844
694.217680,0.375857
694.525820,0.371668
694.833920,0.365891
695.141980,0.368685
695.450000,0.369084
695.757980,0.370512
696.065920,0.368155
696.373820,0.368745
696.681680,0.369007
696.989500,0.366654
697.297280,0.365616
697.605020,0.373810
697.912720,0.363182
698.220380,0.372688
698.528000,0.370649
698.835580,0.370605
699.143120,0.367498
699.450620,0.360780
699.758080,0.362353
700.065500,0.375100
700.372880,0.376800
700.680220,0.365377
700.987520,0.375794
701.294780,0.374696
701.602000,0.369255
701.909180,0.370827
702.216320,0.363316
702.523420,0.367403
702.830480,0.369109
703.137500,0.362042
703.444480,0.367653
703.751420,0.374753
704.058320,0.365255
704.365180,0.365142
704.672000,0.366337
704.978780,0.363246
705.285520,0.366197
705.592220,0.365098
705.898880,0.365248
706.205500,0.361111
706.512080,0.367299
706.818620,0.362616
707.125120,0.360769
707.431580,0.365377
707.738000,0.371484
708.044380,0.357391
708.350720,0.367214
708.657020,0.364205
708.963280,0.363742
709.269500,0.358121
709.575680,0.367387
709.881820,0.363601
710.187920,0.364981
710.493980,0.367727
710.800000,0.361937
711.105980,0.353916
711.411920,0.363027
711.717820,0.361014
712.023680,0.354839
712.329500,0.363959
712.635280,0.366667
712.941020,0.366448
713.246720,0.367984
713.552380,0.359105
713.858000,0.361845
714.163580,0.360695
714.469120,0.356780
714.774620,0.361232
715.080080,0.365135
715.385500,0.370104
715.690880,0.361341
715.996220,0.366482
716.301520,0.362055
716.606780,0.358491
716.912000,0.367124
717.217180,0.371907
717.522320,0.365408
717.827420,0.368999
718.132480,0.360096
718.437500,0.354260
718.742480,0.352419
719.047420,0.360437
719.352320,0.361976
719.657180,0.355274
719.962000,0.356907
720.266780,0.351890
720.571520,0.363712
720.876220,0.351473
721.180880,0.360786
721.485500,0.364396
721.790080,0.360510
722.094620,0.361921
722.399120,0.364498
722.703580,0.351479
723.008000,0.355326
723.312380,0.353422
723.616720,0.353591
723.921020,0.359030
724.225280,0.355585
724.529500,0.349387
724.833680,0.359875
725.137820,0.351101
725.441920,0.361569
725.745980,0.356600
726.050000,0.352278
726.353980,0.348806
726.657920,0.348628
726.961820,0.355251
727.265680,0.353675
727.569500,0.349634
727.873280,0.342263
728.177020,0.346845
728.480720,0.349074
728.784380,0.359324
729.088000,0.359868
729.391580,0.351492
729.695120,0.357486
729.998620,0.355641
730.302080,0.353196
730.605500,0.350315
730.908880,0.350808
731.212220,0.352106
731.515520,0.347635
731.818780,0.347573
732.122000,0.347933
732.425180,0.345983
732.728320,0.344571
733.031420,0.349875
733.334480,0.353061
733.637500,0.349798
733.940480,0.350051
734.243420,0.347095
734.546320,0.347510
734.849180,0.350207
735.152000,0.350104
735.454780,0.352273
735.757520,0.351423
736.060220,0.349131
736.362880,0.344538
736.665500,0.338381
736.968080,0.349275
737.270620,0.351116
737.573120,0.350437
737.875580,0.354041
738.178000,0.353838
738.480380,0.350270
738.782720,0.348964
739.085020,0.342511
739.387280,0.349224
739.689500,0.348811
739.991680,0.341381
740.293820,0.354892
740.595920,0.348915
740.897980,0.343309
741.200000,0.349411
741.501980,0.350143
741.803920,0.346847
742.105820,0.343486
742.407680,0.352941
742.709500,0.335795
743.011280,0.342907
743.313020,0.340290
743.614720,0.324434
743.916380,0.337791
744.218000,0.348449
744.519580,0.345411
744.821120,0.340719
745.122620,0.349311
745.424080,0.335337
745.725500,0.348220
746.026880,0.349138
746.328220,0.349568
746.629520,0.334738
746.930780,0.339461
747.232000,0.335990
747.533180,0.341672
747.834320,0.337797
748.135420,0.337477
748.436480,0.334997
748.737500,0.342187
749.038480,0.334759
749.339420,0.342253
749.640320,0.348209
749.941180,0.346034
750.242000,0.332286
750.542780,0.339950
750.843520,0.336963
751.144220,0.339744
751.444880,0.344325
751.745500,0.350000
752.046080,0.347659
752.346620,0.342784
752.647120,0.344873
752.947580,0.338939
753.248000,0.335268
753.548380,0.338972
753.848720,0.341275
754.149020,0.330110
754.449280,0.347341
754.749500,0.339748
755.049680,0.332000
755.349820,0.338225
755.649920,0.335757
755.949980,0.328467
756.250000,0.336621
756.549980,0.338614
756.849920,0.333787
757.149820,0.328676
757.449680,0.337294
757.749500,0.340832
758.049280,0.331741
758.349020,0.335883
758.648720,0.338164
758.948380,0.336082
759.248000,0.337601
759.547580,0.338265
759.847120,0.335631
760.146620,0.334912
760.446080,0.334005
760.745500,0.328671
761.044880,0.339489
761.344220,0.335709
761.643520,0.341808
761.942780,0.329601
762.242000,0.331683
762.541180,0.329577
762.840320,0.336376
763.139420,0.331927
763.438480,0.334245
763.737500,0.339766
764.036480,0.327044
764.335420,0.335215
764.634320,0.328482
764.933180,0.335616
765.232000,0.337960
765.530780,0.338947
765.829520,0.336364
766.128220,0.336813
766.426880,0.331201
766.725500,0.333790
767.024080,0.334019
767.322620,0.331950
767.621120,0.333333
767.919580,0.333106
768.218000,0.337209
768.516380,0.336714
768.814720,0.333333
769.113020,0.334941
769.411280,0.341160
769.709500,0.338295
770.007680,0.327198
770.305820,0.336714
770.603920,0.326146
770.901980,0.332650
771.200000,0.328804
771.497980,0.329759
771.795920,0.332441
772.093820,0.326872
772.391680,0.327620
772.689500,0.332432
772.987280,0.323232
773.285020,0.332194
773.582720,0.320270
773.880380,0.324640
774.178000,0.327880
774.475580,0.323510
774.773120,0.321954
775.070620,0.334009
775.368080,0.327321
775.665500,0.318334
775.962880,0.330220
776.260220,0.330417
776.557520,0.324883
776.854780,0.322515
777.152000,0.320292
777.449180,0.333783
777.746320,0.319220
778.043420,0.328786
778.340480,0.334912
778.637500,0.334009
778.934480,0.330195
779.231420,0.324966
779.528320,0.329325
779.825180,0.324769
780.122000,0.322045
780.418780,0.331737
780.715520,0.325285
781.012220,0.332877
781.308880,0.324544
781.605500,0.324658
781.902080,0.325804
782.198620,0.326726
782.495120,0.327846
782.791580,0.328061
783.088000,0.318841
783.384380,0.337689
783.680720,0.326949
783.977020,0.324845
784.273280,0.325175
784.569500,0.314465
784.865680,0.331711
785.161820,0.322222
785.457920,0.313236
785.753980,0.330775
786.050000,0.321133
786.345980,0.320833
786.641920,0.329632
786.937820,0.331197
787.233680,0.319415
787.529500,0.317614
787.825280,0.324363
788.121020,0.320113
788.416720,0.319689
788.712380,0.326516
789.008000,0.322946
789.303580,0.309541
789.599120,0.324364
789.894620,0.323466
790.190080,0.318347
790.485500,0.318215
790.780880,0.308961
791.076220,0.324675
791.371520,0.325345
791.666780,0.328727
791.962000,0.311536
792.257180,0.318448
792.552320,0.323423
792.847420,0.318049
793.142480,0.323810
793.437500,0.321274
793.732480,0.319678
794.027420,0.307864
794.322320,0.320656
794.617180,0.323923
794.912000,0.323180
795.206780,0.324385
795.501520,0.327757
795.796220,0.318519
796.090880,0.318764
796.385500,0.316342
796.680080,0.320868
796.974620,0.324102
797.269120,0.311885
797.563580,0.323664
797.858000,0.319666
798.152380,0.331787
798.446720,0.326154
798.741020,0.322804
799.035280,0.326087
799.329500,0.317937
799.623680,0.328682
