399.985280,0.432432
400.329500,0.472973
400.673680,0.405063
401.017820,0.544118
401.361920,0.409091
401.705980,0.402439
402.050000,0.402597
402.393980,0.482353
402.737920,0.426966
403.081820,0.402062
403.425680,0.383721
403.769500,0.385417
404.113280,0.459770
404.457020,0.449438
404.800720,0.413043
405.144380,0.444444
405.488000,0.440860
405.831580,0.443299
406.175120,0.404255
406.518620,0.450000
406.862080,0.453608
407.205500,0.437500
407.548880,0.438776
407.892220,0.441176
408.235520,0.500000
408.578780,0.447619
408.922000,0.432692
409.265180,0.464646
409.608320,0.404040
409.951420,0.515464
410.294480,0.450980
410.637500,0.532609
410.980480,0.470588
411.323420,0.469388
411.666320,0.458716
412.009180,0.490909
412.352000,0.376238
412.694780,0.513761
413.037520,0.440367
413.380220,0.486486
413.722880,0.482143
414.065500,0.477477
414.408080,0.451327
414.750620,0.504425
415.093120,0.462810
415.435580,0.462185
415.778000,0.454545
416.120380,0.478992
416.462720,0.468254
416.805020,0.496241
417.147280,0.455224
417.489500,0.442857
417.831680,0.410959
418.173820,0.475177
418.515920,0.503497
418.857980,0.443038
419.200000,0.442308
419.541980,0.467456
419.883920,0.426966
420.225820,0.479769
420.567680,0.463687
420.909500,0.469945
421.251280,0.473958
421.593020,0.474490
421.934720,0.464646
422.276380,0.492308
422.618000,0.460784
422.959580,0.490196
423.301120,0.465753
423.642620,0.447826
423.984080,0.441860
424.325500,0.412556
424.666880,0.456897
425.008220,0.453782
425.349520,0.453390
425.690780,0.411538
426.032000,0.435294
426.373180,0.464730
426.714320,0.441406
427.055420,0.447876
427.396480,0.441948
427.737500,0.422925
428.078480,0.442688
428.419420,0.421687
428.760320,0.406130
429.101180,0.464567
429.442000,0.478927
429.782780,0.442308
430.123520,0.454902
430.464220,0.453875
430.804880,0.475096
431.145500,0.440000
431.486080,0.464419
431.826620,0.468992
432.167120,0.441176
432.507580,0.449275
432.848000,0.449640
433.188380,0.472924
433.528720,0.467925
433.869020,0.446429
434.209280,0.414035
434.549500,0.439024
434.889680,0.444444
435.229820,0.436860
435.569920,0.432526
435.909980,0.420712
436.250000,0.444068
436.589980,0.399381
436.929920,0.441270
437.269820,0.426332
437.609680,0.420118
437.949500,0.436747
438.289280,0.430595
438.629020,0.444767
438.968720,0.421512
439.308380,0.430894
439.648000,0.441096
439.987580,0.444444
440.327120,0.429333
440.666620,0.431169
441.006080,0.424552
441.345500,0.420147
441.684880,0.418660
442.024220,0.424318
442.363520,0.438095
442.702780,0.425000
443.042000,0.400881
443.381180,0.441810
443.720320,0.449244
444.059420,0.418067
444.398480,0.410042
444.737500,0.418033
445.076480,0.418651
445.415420,0.419162
445.754320,0.432432
446.093180,0.423853
446.432000,0.445489
446.770780,0.432638
447.109520,0.437500
447.448220,0.423971
447.786880,0.409660
448.125500,0.424138
448.464080,0.423214
448.802620,0.434397
449.141120,0.429066
449.479580,0.440559
449.818000,0.440620
450.156380,0.421405
450.494720,0.428099
450.833020,0.421329
451.171280,0.422945
451.509500,0.442509
451.847680,0.423272
452.185820,0.421687
452.523920,0.434708
452.861980,0.430017
453.200000,0.415282
453.537980,0.418487
453.875920,0.435294
454.213820,0.412671
454.551680,0.413907
454.889500,0.418212
455.227280,0.411032
455.565020,0.427136
455.902720,0.425957
456.240380,0.414309
456.578000,0.433798
456.915580,0.440415
457.253120,0.434211
457.590620,0.410509
457.928080,0.432660
458.265500,0.440878
458.602880,0.423701
458.940220,0.417936
459.277520,0.419200
459.614780,0.430442
459.952000,0.403727
460.289180,0.427215
460.626320,0.428346
460.963420,0.423263
461.300480,0.423547
461.637500,0.417565
461.974480,0.420489
462.311420,0.417288
462.648320,0.409956
462.985180,0.413199
463.322000,0.412202
463.658780,0.410221
463.995520,0.403026
464.332220,0.422438
464.668880,0.418011
465.005500,0.422252
465.342080,0.423816
465.678620,0.410824
466.015120,0.413972
466.351580,0.423515
466.688000,0.423873
467.024380,0.414338
467.360720,0.406818
467.697020,0.408884
468.033280,0.412222
468.369500,0.433775
468.705680,0.410372
469.041820,0.416667
469.377920,0.403471
469.713980,0.416066
470.050000,0.413527
470.385980,0.409002
470.721920,0.409403
471.057820,0.415205
471.393680,0.395697
471.729500,0.402224
472.065280,0.410555
472.401020,0.410461
472.736720,0.415358
473.072380,0.411131
473.408000,0.410792
473.743580,0.405709
474.079120,0.417743
474.414620,0.423240
474.750080,0.402766
475.085500,0.412007
475.420880,0.412157
475.756220,0.403925
476.091520,0.413470
476.426780,0.404531
476.762000,0.403862
477.097180,0.407200
477.432320,0.409532
477.767420,0.404412
478.102480,0.404724
478.437500,0.415435
478.772480,0.404255
479.107420,0.409276
479.442320,0.410072
479.777180,0.416866
480.112000,0.390601
480.446780,0.400624
480.781520,0.406602
481.116220,0.411479
481.450880,0.402030
481.785500,0.401899
482.120080,0.396552
482.454620,0.394716
482.789120,0.412420
483.123580,0.404206
483.458000,0.404272
483.792380,0.411342
484.126720,0.405405
484.461020,0.398126
484.795280,0.393986
485.129500,0.409197
485.463680,0.395349
485.797820,0.407465
486.131920,0.399388
486.465980,0.401544
486.800000,0.409924
487.133980,0.391994
487.467920,0.410865
487.801820,0.406560
488.135680,0.408643
488.469500,0.389561
488.803280,0.398217
489.137020,0.400733
489.470720,0.390950
489.804380,0.403118
490.138000,0.403561
490.471580,0.408990
490.805120,0.409578
491.138620,0.401564
491.472080,0.407774
491.805500,0.399582
492.138880,0.403753
492.472220,0.397924
492.805520,0.398743
493.138780,0.403170
493.472000,0.395987
493.805180,0.399727
494.138320,0.409606
494.471420,0.391927
494.804480,0.402329
495.137500,0.394095
495.470480,0.395793
495.803420,0.406171
496.136320,0.404135
496.469180,0.397790
496.802000,0.395477
497.134780,0.412978
497.467520,0.404893
497.800220,0.403302
498.132880,0.406820
498.465500,0.392236
498.798080,0.393836
499.130620,0.399775
499.463120,0.392476
499.795580,0.397140
500.128000,0.398910
500.460380,0.388052
500.792720,0.387063
501.125020,0.391487
501.457280,0.393734
501.789500,0.391012
502.121680,0.396060
502.453820,0.388577
502.785920,0.398199
503.117980,0.394504
503.450000,0.401808
503.781980,0.395615
504.113920,0.388810
504.445820,0.390374
504.777680,0.395294
505.109500,0.391827
505.441280,0.396750
505.773020,0.381869
506.104720,0.391427
506.436380,0.398012
506.768000,0.386342
507.099580,0.393593
507.431120,0.397190
507.762620,0.393327
508.094080,0.387420
508.425500,0.394491
508.756880,0.390489
509.088220,0.392364
509.419520,0.398976
509.750780,0.393627
510.082000,0.393657
510.413180,0.398434
510.744320,0.386562
511.075420,0.388176
511.406480,0.391631
511.737500,0.387500
512.068480,0.386278
512.399420,0.392488
512.730320,0.380600
513.061180,0.389153
513.392000,0.392333
513.722780,0.393372
514.053520,0.390034
514.384220,0.387726
514.714880,0.385831
515.045500,0.379789
515.376080,0.391768
515.706620,0.382854
516.037120,0.394608
516.367580,0.381469
516.698000,0.371569
517.028380,0.385799
517.358720,0.387654
517.689020,0.397132
518.019280,0.382840
518.349500,0.389255
518.679680,0.384654
519.009820,0.384615
519.339920,0.386774
519.669980,0.382722
520.000000,0.384106
520.329980,0.385692
520.659920,0.378834
520.989820,0.388545
521.319680,0.384774
521.649500,0.378920
521.979280,0.381002
522.309020,0.382780
522.638720,0.374808
522.968380,0.388314
523.298000,0.385177
523.627580,0.373513
523.957120,0.382857
524.286620,0.389786
524.616080,0.394519
524.945500,0.385013
525.274880,0.395074
525.604220,0.381988
525.933520,0.384172
526.262780,0.372529
526.592000,0.377473
526.921180,0.370239
527.250320,0.380518
527.579420,0.375947
527.908480,0.380108
528.237500,0.387289
528.566480,0.386228
528.895420,0.384919
529.224320,0.382863
529.553180,0.386024
529.882000,0.393674
530.210780,0.380792
530.539520,0.383030
530.868220,0.375778
531.196880,0.378882
531.525500,0.389346
531.854080,0.379925
532.182620,0.384400
532.511120,0.376334
532.839580,0.382940
533.168000,0.375570
533.496380,0.376712
533.824720,0.382234
534.153020,0.393223
534.481280,0.376211
534.809500,0.381706
535.137680,0.375434
535.465820,0.376289
535.793920,0.386210
536.121980,0.383550
536.450000,0.386047
536.777980,0.385840
537.105920,0.383147
537.433820,0.373159
537.761680,0.382857
538.089500,0.386483
538.417280,0.381616
538.745020,0.388273
539.072720,0.385006
539.400380,0.379953
539.728000,0.386233
540.055580,0.384644
540.383120,0.377885
540.710620,0.383557
541.038080,0.379565
541.365500,0.380882
541.692880,0.384811
542.020220,0.379993
542.347520,0.382986
542.674780,0.377911
543.002000,0.374388
543.329180,0.386531
543.656320,0.382911
543.983420,0.377778
544.310480,0.375127
544.637500,0.385534
544.964480,0.372476
545.291420,0.379860
545.618320,0.384462
545.945180,0.378378
546.272000,0.379751
546.598780,0.378564
546.925520,0.384438
547.252220,0.375041
547.578880,0.383513
547.905500,0.376797
548.232080,0.382391
548.558620,0.383013
548.885120,0.384037
549.211580,0.376728
549.538000,0.379702
549.864380,0.371061
550.190720,0.371650
550.517020,0.382660
550.843280,0.385016
551.169500,0.370865
551.495680,0.375164
551.821820,0.382430
552.147920,0.374105
552.473980,0.376029
552.800000,0.374101
553.125980,0.375246
553.451920,0.372263
553.777820,0.382079
554.103680,0.377486
554.429500,0.374623
554.755280,0.381842
555.081020,0.372326
555.406720,0.374196
555.732380,0.373433
556.058000,0.374067
556.383580,0.377610
556.709120,0.365265
557.034620,0.372029
557.360080,0.372021
557.685500,0.375173
558.010880,0.366378
558.336220,0.367311
558.661520,0.375753
558.986780,0.371368
559.312000,0.368946
559.637180,0.371993
559.962320,0.374155
560.287420,0.372355
560.612480,0.372802
560.937500,0.368209
561.262480,0.368768
561.587420,0.364164
561.912320,0.375829
562.237180,0.374907
562.562000,0.370370
562.886780,0.376068
563.211520,0.365872
563.536220,0.365121
563.860880,0.376084
564.185500,0.370732
564.510080,0.380737
564.834620,0.365463
565.159120,0.368045
565.483580,0.370582
565.808000,0.374196
566.132380,0.363297
566.456720,0.369615
566.781020,0.362716
567.105280,0.369754
567.429500,0.372534
567.753680,0.367856
568.077820,0.363742
568.401920,0.367456
568.725980,0.367362
569.050000,0.366920
569.373980,0.366578
569.697920,0.359120
570.021820,0.371910
570.345680,0.367011
570.669500,0.365128
570.993280,0.365449
571.317020,0.361710
571.640720,0.366432
571.964380,0.364514
572.288000,0.367953
572.611580,0.364657
572.935120,0.365133
573.258620,0.364996
573.582080,0.367735
573.905500,0.365227
574.228880,0.369339
574.552220,0.360572
574.875520,0.364483
575.198780,0.359957
575.522000,0.358504
575.845180,0.362822
576.168320,0.363996
576.491420,0.374637
576.814480,0.368897
577.137500,0.364719
577.460480,0.362813
577.783420,0.362987
578.106320,0.370014
578.429180,0.361965
578.752000,0.365057
579.074780,0.371544
579.397520,0.369916
579.720220,0.358108
580.042880,0.367030
580.365500,0.364659
580.688080,0.367028
581.010620,0.366183
581.333120,0.365063
581.655580,0.369630
581.978000,0.367476
582.300380,0.363518
582.622720,0.372116
582.945020,0.367360
583.267280,0.358190
583.589500,0.369181
583.911680,0.364878
584.233820,0.361032
584.555920,0.364639
584.877980,0.368719
585.200000,0.364334
585.521980,0.367933
585.843920,0.362721
586.165820,0.363803
586.487680,0.365032
586.809500,0.363936
587.131280,0.367051
587.453020,0.366667
587.774720,0.368421
588.096380,0.360268
588.418000,0.364062
588.739580,0.367059
589.061120,0.364290
589.382620,0.366189
589.704080,0.362132
590.025500,0.370434
590.346880,0.366498
590.668220,0.363204
590.989520,0.360510
591.310780,0.365369
591.632000,0.362568
591.953180,0.365347
592.274320,0.366093
592.595420,0.363147
592.916480,0.364032
593.237500,0.366748
593.558480,0.364541
593.879420,0.362557
594.200320,0.364050
594.521180,0.367331
594.842000,0.365395
595.162780,0.365919
595.483520,0.367455
595.804220,0.360902
596.124880,0.368772
596.445500,0.361278
596.766080,0.368379
597.086620,0.363854
597.407120,0.362296
597.727580,0.367011
598.048000,0.364983
598.368380,0.361915
598.688720,0.357798
599.009020,0.358546
599.329280,0.362161
599.649500,0.362388
599.969680,0.364049
600.289820,0.368857
600.609920,0.359872
600.929980,0.362908
601.250000,0.362162
601.569980,0.355928
601.889920,0.359262
602.209820,0.361201
602.529680,0.360615
602.849500,0.358156
603.169280,0.362910
603.489020,0.358428
603.808720,0.359572
604.128380,0.365618
604.448000,0.355249
604.767580,0.359497
605.087120,0.356787
605.406620,0.354604
605.726080,0.362988
606.045500,0.356924
606.364880,0.356394
606.684220,0.360651
607.003520,0.355505
607.322780,0.356168
607.642000,0.359276
607.961180,0.353859
608.280320,0.354698
608.599420,0.350232
608.918480,0.352493
609.237500,0.355927
609.556480,0.357798
609.875420,0.357354
610.194320,0.353115
610.513180,0.353655
610.832000,0.355271
611.150780,0.355963
611.469520,0.356259
611.788220,0.356106
612.106880,0.354041
612.425500,0.348051
612.744080,0.359187
613.062620,0.351988
613.381120,0.348873
613.699580,0.351625
614.018000,0.355651
614.336380,0.355953
614.654720,0.354109
614.973020,0.352977
615.291280,0.354199
615.609500,0.355626
615.927680,0.350742
616.245820,0.346630
616.563920,0.353435
616.881980,0.351107
617.200000,0.346190
617.517980,0.346297
617.835920,0.351973
618.153820,0.348150
618.471680,0.346667
618.789500,0.352738
619.107280,0.356182
619.425020,0.354900
619.742720,0.353421
620.060380,0.346600
620.378000,0.352738
620.695580,0.351213
621.013120,0.350236
621.330620,0.350800
621.648080,0.347634
621.965500,0.347553
622.282880,0.346469
622.600220,0.347757
622.917520,0.351607
623.234780,0.354227
623.552000,0.351687
623.869180,0.347936
624.186320,0.349570
624.503420,0.351724
624.820480,0.350927
625.137500,0.352068
625.454480,0.346671
625.771420,0.346784
626.088320,0.343947
626.405180,0.349098
626.722000,0.347867
627.038780,0.349311
627.355520,0.346875
627.672220,0.349922
627.988880,0.344012
628.305500,0.355251
628.622080,0.350062
628.938620,0.346789
629.255120,0.353765
629.571580,0.352743
629.888000,0.344891
630.204380,0.341209
630.520720,0.344302
630.837020,0.338267
631.153280,0.339628
631.469500,0.339903
631.785680,0.345690
632.101820,0.351025
632.417920,0.343964
632.733980,0.345438
633.050000,0.349303
633.365980,0.347362
633.681920,0.347255
633.997820,0.349970
634.313680,0.344146
634.629500,0.346505
634.945280,0.346334
635.261020,0.345172
635.576720,0.347915
635.892380,0.341563
636.208000,0.345729
636.523580,0.350482
636.839120,0.350318
637.154620,0.345797
637.470080,0.344907
637.785500,0.350234
638.100880,0.350130
638.416220,0.346563
638.731520,0.338682
639.046780,0.348675
639.362000,0.344610
639.677180,0.343518
639.992320,0.343107
640.307420,0.340264
640.622480,0.339681
640.937500,0.340361
641.252480,0.344038
641.567420,0.346974
641.882320,0.342428
642.197180,0.347558
642.512000,0.338371
642.826780,0.346741
643.141520,0.345096
643.456220,0.347261
643.770880,0.347706
644.085500,0.344326
644.400080,0.346629
644.714620,0.342252
645.029120,0.345985
645.343580,0.344213
645.658000,0.346378
645.972380,0.348315
646.286720,0.336059
646.601020,0.347080
646.915280,0.340554
647.229500,0.346154
647.543680,0.339133
647.857820,0.342141
648.171920,0.338578
648.485980,0.340641
648.800000,0.337007
649.113980,0.342018
649.427920,0.347018
649.741820,0.342127
650.055680,0.340099
650.369500,0.343610
650.683280,0.341010
650.997020,0.342409
651.310720,0.338470
651.624380,0.336813
651.938000,0.344044
652.251580,0.337323
652.565120,0.332868
652.878620,0.340653
653.192080,0.338764
653.505500,0.336606
653.818880,0.339494
654.132220,0.339504
654.445520,0.339762
654.758780,0.332861
655.072000,0.328080
655.385180,0.331812
655.698320,0.336096
656.011420,0.336199
656.324480,0.338677
656.637500,0.334878
656.950480,0.335878
657.263420,0.333727
657.576320,0.335606
657.889180,0.340313
658.202000,0.331824
658.514780,0.335219
658.827520,0.338836
659.140220,0.340126
659.452880,0.335246
659.765500,0.335340
660.078080,0.328318
660.390620,0.334555
660.703120,0.340972
661.015580,0.338650
661.328000,0.340050
661.640380,0.338925
661.952720,0.336032
662.265020,0.334909
662.577280,0.333333
662.889500,0.331126
663.201680,0.331844
663.513820,0.329688
663.825920,0.333974
664.137980,0.334842
664.450000,0.323210
664.761980,0.331260
665.073920,0.325219
665.385820,0.328207
665.697680,0.337190
666.009500,0.338543
666.321280,0.333665
666.633020,0.327793
666.944720,0.327267
667.256380,0.325707
667.568000,0.328804
667.879580,0.334694
668.191120,0.326580
668.502620,0.327285
668.814080,0.334737
669.125500,0.329456
669.436880,0.321577
669.748220,0.326757
670.059520,0.332283
670.370780,0.327418
670.682000,0.331327
670.993180,0.333333
671.304320,0.322785
671.615420,0.325994
671.926480,0.328247
672.237500,0.324044
672.548480,0.321150
672.859420,0.332738
673.170320,0.327893
673.481180,0.327299
673.792000,0.327804
674.102780,0.326391
674.413520,0.328472
674.724220,0.325227
675.034880,0.335534
675.345500,0.325310
675.656080,0.323412
675.966620,0.324482
676.277120,0.327719
676.587580,0.328792
676.898000,0.326988
677.208380,0.330129
677.518720,0.328592
677.829020,0.325942
678.139280,0.331357
678.449500,0.323060
678.759680,0.324466
679.069820,0.323792
679.379920,0.321388
679.689980,0.326030
680.000000,0.317757
680.309980,0.319970
680.619920,0.325634
680.929820,0.322882
681.239680,0.317208
681.549500,0.321852
681.859280,0.328230
682.169020,0.321895
682.478720,0.320120
682.788380,0.321890
683.098000,0.328721
683.407580,0.319325
683.717120,0.325450
684.026620,0.321536
684.336080,0.321334
684.645500,0.317621
684.954880,0.318852
685.264220,0.320876
685.573520,0.325847
685.882780,0.329498
686.192000,0.322423
686.501180,0.321983
686.810320,0.322444
687.119420,0.318510
687.428480,0.328523
687.737500,0.312740
688.046480,0.319018
688.355420,0.319125
688.664320,0.324407
688.973180,0.325038
689.282000,0.318287
689.590780,0.319018
689.899520,0.317129
690.208220,0.322248
690.516880,0.322260
690.825500,0.313208
691.134080,0.313591
691.442620,0.314405
691.751120,0.315889
692.059580,0.319450
692.368000,0.312382
692.676380,0.319084
692.984720,0.314885
693.293020,0.319529
693.601280,0.322778
693.909500,0.312524
694.217680,0.315308
694.525820,0.326733
694.833920,0.318199
695.141980,0.320864
695.450000,0.317557
695.757980,0.320092
696.065920,0.314563
696.373820,0.316782
696.681680,0.310318
696.989500,0.321883
697.297280,0.311941
697.605020,0.320238
697.912720,0.306687
698.220380,0.316804
698.528000,0.311313
698.835580,0.315685
699.143120,0.308652
699.450620,0.314638
699.758080,0.319216
700.065500,0.318436
700.372880,0.319200
700.680220,0.313123
700.987520,0.319048
701.294780,0.324412
701.602000,0.320127
701.909180,0.312798
702.216320,0.310911
702.523420,0.309392
702.830480,0.317228
703.137500,0.308262
703.444480,0.316371
703.751420,0.316371
704.058320,0.307875
704.365180,0.312303
704.672000,0.311287
704.978780,0.307452
705.285520,0.314163
705.592220,0.308627
705.898880,0.310875
706.205500,0.309859
706.512080,0.311611
706.818620,0.313854
707.125120,0.307308
707.431580,0.313013
707.738000,0.309766
708.044380,0.306831
708.350720,0.308368
708.657020,0.314185
708.963280,0.307842
709.269500,0.306849
709.575680,0.313556
709.881820,0.311321
710.187920,0.315175
710.493980,0.310318
710.800000,0.312738
711.105980,0.301581
711.411920,0.305873
711.717820,0.309162
712.023680,0.305480
712.329500,0.307965
712.635280,0.314341
712.941020,0.306533
713.246720,0.309486
713.552380,0.315149
713.858000,0.310209
714.163580,0.310971
714.469120,0.307542
714.774620,0.307540
715.080080,0.305850
715.385500,0.312950
715.690880,0.304142
715.996220,0.306260
716.301520,0.310277
716.606780,0.306211
716.912000,0.310582
717.217180,0.315243
717.522320,0.305368
717.827420,0.305533
718.132480,0.306704
718.437500,0.304933
718.742480,0.304839
719.047420,0.305825
719.352320,0.308012
719.657180,0.306623
719.962000,0.311001
720.266780,0.298297
720.571520,0.300331
720.876220,0.299100
721.180880,0.306856
721.485500,0.315504
721.790080,0.304883
722.094620,0.313465
722.399120,0.306333
722.703580,0.305186
723.008000,0.302717
723.312380,0.304348
723.616720,0.302592
723.921020,0.304028
724.225280,0.304974
724.529500,0.297723
724.833680,0.301157
725.137820,0.304846
725.441920,0.305840
725.745980,0.299329
726.050000,0.304465
726.353980,0.300586
726.657920,0.301395
726.961820,0.303196
727.265680,0.306056
727.569500,0.300731
727.873280,0.298845
728.177020,0.303547
728.480720,0.302778
728.784380,0.303899
729.088000,0.304757
729.391580,0.306490
729.695120,0.303263
729.998620,0.304971
730.302080,0.293128
730.605500,0.308588
730.908880,0.302793
731.212220,0.297258
731.515520,0.304242
731.818780,0.293204
732.122000,0.301181
732.425180,0.300148
732.728320,0.302925
733.031420,0.299248
733.334480,0.302551
733.637500,0.295363
733.940480,0.295292
734.243420,0.299185
734.546320,0.298755
734.849180,0.294421
735.152000,0.295643
735.454780,0.293905
735.757520,0.299262
736.060220,0.302264
736.362880,0.295693
736.665500,0.295561
736.968080,0.298764
737.270620,0.298312
737.573120,0.294214
737.875580,0.304013
738.178000,0.298857
738.480380,0.306486
738.782720,0.299346
739.085020,0.299009
739.387280,0.288803
739.689500,0.299547
739.991680,0.299270
740.293820,0.300166
740.595920,0.293823
740.897980,0.297572
741.200000,0.294448
741.501980,0.299713
741.803920,0.293919
742.105820,0.293852
742.407680,0.298195
742.709500,0.285795
743.011280,0.293083
743.313020,0.296232
743.614720,0.286129
743.916380,0.290116
744.218000,0.301909
744.519580,0.303140
744.821120,0.301198
745.122620,0.294787
745.424080,0.287260
745.725500,0.296922
746.026880,0.296798
746.328220,0.290382
746.629520,0.289585
746.930780,0.289216
747.232000,0.286941
747.533180,0.300793
747.834320,0.290323
748.135420,0.288999
748.436480,0.290705
748.737500,0.290303
749.038480,0.289554
749.339420,0.301182
749.640320,0.285984
749.941180,0.287320
750.242000,0.288317
750.542780,0.287841
750.843520,0.288277
751.144220,0.288462
751.444880,0.288523
751.745500,0.288961
752.046080,0.293137
752.346620,0.285438
752.647120,0.294579
752.947580,0.287193
753.248000,0.286912
753.548380,0.289525
753.848720,0.285254
754.149020,0.286267
754.449280,0.284964
754.749500,0.289317
755.049680,0.294667
755.349820,0.286858
755.649920,0.286847
755.949980,0.287989
756.250000,0.294543
756.549980,0.285809
756.849920,0.294358
757.149820,0.286760
757.449680,0.287129
757.749500,0.284254
758.049280,0.294881
758.349020,0.287204
758.648720,0.293996
758.948380,0.289347
759.248000,0.291105
759.547580,0.291863
759.847120,0.290145
760.146620,0.279432
760.446080,0.286290
760.745500,0.276923
761.044880,0.286222
761.344220,0.288667
761.643520,0.288136
761.942780,0.282715
762.242000,0.287129
762.541180,0.291549
762.840320,0.285815
763.139420,0.286217
763.438480,0.279563
763.737500,0.282564
764.036480,0.298393
764.335420,0.287932
764.634320,0.289674
764.933180,0.287671
765.232000,0.290076
765.530780,0.284912
765.829520,0.295804
766.128220,0.284621
766.426880,0.285714
766.725500,0.284441
767.024080,0.277778
767.322620,0.287690
767.621120,0.285908
767.919580,0.278498
768.218000,0.285226
768.516380,0.286004
768.814720,0.281893
769.113020,0.281875
769.411280,0.290055
769.709500,0.278755
770.007680,0.284254
770.305820,0.287356
770.603920,0.285040
770.901980,0.286885
771.200000,0.277174
771.497980,0.278150
771.795920,0.286288
772.093820,0.283422
772.391680,0.280817
772.689500,0.277027
772.987280,0.284175
773.285020,0.285031
773.582720,0.280405
773.880380,0.283459
774.178000,0.283572
774.475580,0.283992
774.773120,0.278447
775.070620,0.279919
775.368080,0.281229
775.665500,0.278711
775.962880,0.283522
776.260220,0.279273
776.557520,0.272849
776.854780,0.281947
777.152000,0.277188
777.449180,0.284558
777.746320,0.276882
778.043420,0.278308
778.340480,0.281461
778.637500,0.288032
778.934480,0.279085
779.231420,0.276119
779.528320,0.277221
779.825180,0.278656
780.122000,0.277556
780.418780,0.286594
780.715520,0.276995
781.012220,0.282877
781.308880,0.282623
781.605500,0.271233
781.902080,0.284736
782.198620,0.278195
782.495120,0.282579
782.791580,0.281293
783.088000,0.285024
783.384380,0.286795
783.680720,0.277018
783.977020,0.271851
784.273280,0.290909
784.569500,0.272537
784.865680,0.285814
785.161820,0.272222
785.457920,0.270270
785.753980,0.277739
786.050000,0.274171
786.345980,0.274306
786.641920,0.283831
786.937820,0.285613
787.233680,0.279749
787.529500,0.271151
787.825280,0.276912
788.121020,0.279745
788.416720,0.274524
788.712380,0.273625
789.008000,0.270538
789.303580,0.274912
789.599120,0.274909
789.894620,0.283032
790.190080,0.277012
790.485500,0.275018
790.780880,0.274552
791.076220,0.266234
791.371520,0.278867
791.666780,0.287273
791.962000,0.277002
792.257180,0.268668
792.552320,0.275562
792.847420,0.279476
793.142480,0.279853
793.437500,0.274964
793.732480,0.278713
794.027420,0.270772
794.322320,0.281879
794.617180,0.270431
794.912000,0.264487
795.206780,0.274422
795.501520,0.276046
795.796220,0.274074
796.090880,0.275810
796.385500,0.271364
796.680080,0.276739
796.974620,0.267216
797.269120,0.270250
797.563580,0.275573
797.858000,0.271830
798.152380,0.282289
798.446720,0.273077
798.741020,0.272727
799.035280,0.272516
799.329500,0.269438
799.623680,0.272868
