399.985280,0.378378
400.329500,0.391892
400.673680,0.417722
401.017820,0.426471
401.361920,0.424242
401.705980,0.390244
402.050000,0.376623
402.393980,0.447059
402.737920,0.438202
403.081820,0.360825
403.425680,0.430233
403.769500,0.364583
404.113280,0.436782
404.457020,0.438202
404.800720,0.380435
405.144380,0.444444
405.488000,0.397849
405.831580,0.381443
406.175120,0.393617
406.518620,0.430000
406.862080,0.432990
407.205500,0.375000
407.548880,0.418367
407.892220,0.421569
408.235520,0.436170
408.578780,0.457143
408.922000,0.365385
409.265180,0.474747
409.608320,0.444444
409.951420,0.474227
410.294480,0.470588
410.637500,0.423913
410.980480,0.392157
411.323420,0.408163
411.666320,0.449541
412.009180,0.418182
412.352000,0.386139
412.694780,0.440367
413.037520,0.422018
413.380220,0.414414
413.722880,0.428571
414.065500,0.414414
414.408080,0.424779
414.750620,0.424779
415.093120,0.338843
415.435580,0.487395
415.778000,0.424242
416.120380,0.453782
416.462720,0.412698
416.805020,0.443609
417.147280,0.402985
417.489500,0.442857
417.831680,0.376712
418.173820,0.404255
418.515920,0.405594
418.857980,0.430380
419.200000,0.442308
419.541980,0.431953
419.883920,0.415730
420.225820,0.439306
420.567680,0.402235
420.909500,0.448087
421.251280,0.411458
421.593020,0.413265
421.934720,0.404040
422.276380,0.394872
422.618000,0.397059
422.959580,0.426471
423.301120,0.442922
423.642620,0.413043
423.984080,0.418605
424.325500,0.417040
424.666880,0.413793
425.008220,0.415966
425.349520,0.406780
425.690780,0.388462
426.032000,0.380392
426.373180,0.402490
426.714320,0.406250
427.055420,0.386100
427.396480,0.408240
427.737500,0.383399
428.078480,0.391304
428.419420,0.437751
428.760320,0.409962
429.101180,0.437008
429.442000,0.421456
429.782780,0.403846
430.123520,0.419608
430.464220,0.387454
430.804880,0.444444
431.145500,0.392727
431.486080,0.434457
431.826620,0.406977
432.167120,0.393382
432.507580,0.405797
432.848000,0.406475
433.188380,0.400722
433.528720,0.400000
433.869020,0.421429
434.209280,0.396491
434.549500,0.428571
434.889680,0.410774
435.229820,0.399317
435.569920,0.349481
435.909980,0.407767
436.250000,0.410169
436.589980,0.396285
436.929920,0.384127
437.269820,0.391850
437.609680,0.390533
437.949500,0.403614
438.289280,0.396601
438.629020,0.409884
438.968720,0.395349
439.308380,0.392954
439.648000,0.402740
439.987580,0.396825
440.327120,0.400000
440.666620,0.400000
441.006080,0.419437
441.345500,0.410319
441.684880,0.373206
442.024220,0.406948
442.363520,0.385714
442.702780,0.395455
443.042000,0.400881
443.381180,0.403017
443.720320,0.406048
444.059420,0.399160
444.398480,0.391213
444.737500,0.397541
445.076480,0.382937
445.415420,0.393214
445.754320,0.407484
446.093180,0.392661
446.432000,0.407895
446.770780,0.392789
447.109520,0.400735
447.448220,0.398927
447.786880,0.409660
448.125500,0.398276
448.464080,0.394643
448.802620,0.393617
449.141120,0.387543
449.479580,0.393357
449.818000,0.392427
450.156380,0.399666
450.494720,0.386777
450.833020,0.386364
451.171280,0.376712
451.509500,0.385017
451.847680,0.396290
452.185820,0.387263
452.523920,0.391753
452.861980,0.377740
453.200000,0.373754
453.537980,0.363025
453.875920,0.381513
454.213820,0.385274
454.551680,0.389073
454.889500,0.384486
455.227280,0.380783
455.565020,0.386935
455.902720,0.394343
456.240380,0.362729
456.578000,0.369338
456.915580,0.366149
457.253120,0.370066
457.590620,0.395731
457.928080,0.388889
458.265500,0.395270
458.602880,0.379870
458.940220,0.390863
459.277520,0.372800
459.614780,0.389525
459.952000,0.375776
460.289180,0.393987
460.626320,0.376378
460.963420,0.373183
461.300480,0.379205
461.637500,0.388290
461.974480,0.397554
462.311420,0.384501
462.648320,0.374817
462.985180,0.371593
463.322000,0.377976
463.658780,0.381215
463.995520,0.382393
464.332220,0.369806
464.668880,0.387097
465.005500,0.386059
465.342080,0.372599
465.678620,0.372694
466.015120,0.371281
466.351580,0.393173
466.688000,0.375152
467.024380,0.391252
467.360720,0.363636
467.697020,0.376993
468.033280,0.373333
468.369500,0.378587
468.705680,0.369786
469.041820,0.379167
469.377920,0.376356
469.713980,0.376931
470.050000,0.377778
470.385980,0.372798
470.721920,0.369246
471.057820,0.379142
471.393680,0.355472
471.729500,0.374421
472.065280,0.383721
472.401020,0.375887
472.736720,0.374346
473.072380,0.383303
473.408000,0.364665
473.743580,0.365052
474.079120,0.379845
474.414620,0.372349
474.750080,0.363710
475.085500,0.373355
475.420880,0.378851
475.756220,0.367130
476.091520,0.369139
476.426780,0.372168
476.762000,0.358809
477.097180,0.372000
477.432320,0.362682
477.767420,0.367647
478.102480,0.366142
478.437500,0.370279
478.772480,0.364066
479.107420,0.360456
479.442320,0.361311
479.777180,0.370724
480.112000,0.361325
480.446780,0.363211
480.781520,0.367955
481.116220,0.364592
481.450880,0.358314
481.785500,0.365506
482.120080,0.370690
482.454620,0.371406
482.789120,0.367834
483.123580,0.354361
483.458000,0.359968
483.792380,0.372204
484.126720,0.355985
484.461020,0.359875
484.795280,0.358520
485.129500,0.353079
485.463680,0.360465
485.797820,0.367807
486.131920,0.355777
486.465980,0.369884
486.800000,0.368702
487.133980,0.354985
487.467920,0.358837
487.801820,0.367658
488.135680,0.359363
488.469500,0.360061
488.803280,0.357355
489.137020,0.355311
489.470720,0.356825
489.804380,0.360802
490.138000,0.360534
490.471580,0.363301
490.805120,0.362402
491.138620,0.361763
491.472080,0.361131
491.805500,0.370293
492.138880,0.364837
492.472220,0.354325
492.805520,0.362430
493.138780,0.361130
493.472000,0.344482
493.805180,0.365621
494.138320,0.358906
494.471420,0.356771
494.804480,0.355110
495.137500,0.358793
495.470480,0.362651
495.803420,0.358942
496.136320,0.356516
496.469180,0.351750
496.802000,0.345966
497.134780,0.357186
497.467520,0.359021
497.800220,0.359670
498.132880,0.348618
498.465500,0.355736
498.798080,0.350457
499.130620,0.356541
499.463120,0.354857
499.795580,0.355336
500.128000,0.360763
500.460380,0.353068
500.792720,0.359491
501.125020,0.357331
501.457280,0.361880
501.789500,0.349690
502.121680,0.367548
502.453820,0.355431
502.785920,0.356178
503.117980,0.346909
503.450000,0.371170
503.781980,0.361734
504.113920,0.351351
504.445820,0.355372
504.777680,0.351059
505.109500,0.355288
505.441280,0.351816
505.773020,0.352748
506.104720,0.352803
506.436380,0.357785
506.768000,0.349392
507.099580,0.345995
507.431120,0.347073
507.762620,0.350094
508.094080,0.348222
508.425500,0.352941
508.756880,0.348422
509.088220,0.352806
509.419520,0.354749
509.750780,0.345829
510.082000,0.351679
510.413180,0.355136
510.744320,0.347446
511.075420,0.356554
511.406480,0.350259
511.737500,0.338426
512.068480,0.349624
512.399420,0.347887
512.730320,0.346882
513.061180,0.350143
513.392000,0.345480
513.722780,0.347262
514.053520,0.349305
514.384220,0.351570
514.714880,0.346577
515.045500,0.347222
515.376080,0.347215
515.706620,0.347297
516.037120,0.347549
516.367580,0.351897
516.698000,0.337745
517.028380,0.348560
517.358720,0.350617
517.689020,0.346686
518.019280,0.344706
518.349500,0.349214
518.679680,0.348814
519.009820,0.344130
519.339920,0.348196
519.669980,0.341537
520.000000,0.355069
520.329980,0.348367
520.659920,0.339468
520.989820,0.343137
521.319680,0.351337
521.649500,0.346530
521.979280,0.345511
522.309020,0.342842
522.638720,0.346134
522.968380,0.347466
523.298000,0.341858
523.627580,0.344025
523.957120,0.344416
524.286620,0.342887
524.616080,0.341779
524.945500,0.342636
525.274880,0.342227
525.604220,0.339545
525.933520,0.339623
526.262780,0.331475
526.592000,0.334348
526.921180,0.336719
527.250320,0.341451
527.579420,0.348661
527.908480,0.338257
528.237500,0.345581
528.566480,0.343313
528.895420,0.341055
529.224320,0.341753
529.553180,0.339759
529.882000,0.339659
530.210780,0.337355
530.539520,0.348993
530.868220,0.342269
531.196880,0.344482
531.525500,0.350605
531.854080,0.327392
532.182620,0.340028
532.511120,0.346636
532.839580,0.342559
533.168000,0.340474
533.496380,0.348402
533.824720,0.340511
534.153020,0.338832
534.481280,0.344493
534.809500,0.340369
535.137680,0.340278
535.465820,0.332045
535.793920,0.334179
536.121980,0.340747
536.450000,0.343340
536.777980,0.342271
537.105920,0.344126
537.433820,0.337561
537.761680,0.341633
538.089500,0.346823
538.417280,0.340231
538.745020,0.345880
539.072720,0.337759
539.400380,0.342657
539.728000,0.338815
540.055580,0.332959
540.383120,0.337305
540.710620,0.331845
541.038080,0.338252
541.365500,0.338603
541.692880,0.341570
542.020220,0.338971
542.347520,0.335607
542.674780,0.340861
543.002000,0.334500
543.329180,0.343038
543.656320,0.339311
543.983420,0.339145
544.310480,0.336731
544.637500,0.338110
544.964480,0.339166
545.291420,0.337654
545.618320,0.343293
545.945180,0.339815
546.272000,0.335845
546.598780,0.333333
546.925520,0.334652
547.252220,0.336415
547.578880,0.336592
547.905500,0.336601
548.232080,0.337232
548.558620,0.328669
548.885120,0.338240
549.211580,0.336548
549.538000,0.334630
549.864380,0.334405
550.190720,0.334194
550.517020,0.340939
550.843280,0.337785
551.169500,0.334288
551.495680,0.334100
551.821820,0.340300
552.147920,0.338321
552.473980,0.328943
552.800000,0.328973
553.125980,0.337917
553.451920,0.341075
553.777820,0.335110
554.103680,0.337378
554.429500,0.329093
554.755280,0.335447
555.081020,0.332553
555.406720,0.332543
555.732380,0.328024
556.058000,0.331297
556.383580,0.330366
556.709120,0.331840
557.034620,0.335171
557.360080,0.327116
557.685500,0.327455
558.010880,0.331369
558.336220,0.327592
558.661520,0.334633
558.986780,0.336641
559.312000,0.329416
559.637180,0.326750
559.962320,0.327519
560.287420,0.328279
560.612480,0.331539
560.937500,0.329295
561.262480,0.328079
561.587420,0.330432
561.912320,0.328298
562.237180,0.331236
562.562000,0.332211
562.886780,0.329989
563.211520,0.327496
563.536220,0.323562
563.860880,0.336477
564.185500,0.327205
564.510080,0.327690
564.834620,0.326386
565.159120,0.331579
565.483580,0.324971
565.808000,0.325009
566.132380,0.326371
566.456720,0.331822
566.781020,0.322956
567.105280,0.325898
567.429500,0.333460
567.753680,0.334100
568.077820,0.327406
568.401920,0.333461
568.725980,0.323719
569.050000,0.328517
569.373980,0.323944
569.697920,0.322336
570.021820,0.326217
570.345680,0.321087
570.669500,0.325448
570.993280,0.328904
571.317020,0.317501
571.640720,0.328270
571.964380,0.322940
572.288000,0.323071
572.611580,0.332460
572.935120,0.323981
573.258620,0.326477
573.582080,0.328241
573.905500,0.325391
574.228880,0.326652
574.552220,0.330524
574.875520,0.329859
575.198780,0.328515
575.522000,0.325513
575.845180,0.321633
576.168320,0.320158
576.491420,0.329942
576.814480,0.328752
577.137500,0.325397
577.460480,0.322218
577.783420,0.324402
578.106320,0.323006
578.429180,0.325203
578.752000,0.318166
579.074780,0.323668
579.397520,0.323112
579.720220,0.330438
580.042880,0.324414
580.365500,0.322303
580.688080,0.330393
581.010620,0.328046
581.333120,0.328991
581.655580,0.327339
581.978000,0.331227
582.300380,0.322947
582.622720,0.323995
582.945020,0.329324
583.267280,0.324650
583.589500,0.321669
583.911680,0.320737
584.233820,0.323576
584.555920,0.322723
584.877980,0.322864
585.200000,0.321670
585.521980,0.327155
585.843920,0.321538
586.165820,0.324802
586.487680,0.321396
586.809500,0.321932
587.131280,0.321503
587.453020,0.328571
587.774720,0.326434
588.096380,0.319428
588.418000,0.326310
588.739580,0.325668
589.061120,0.324324
589.382620,0.320630
589.704080,0.320056
590.025500,0.326484
590.346880,0.323496
590.668220,0.325119
590.989520,0.318636
591.310780,0.323115
591.632000,0.322678
591.953180,0.318295
592.274320,0.321867
592.595420,0.323006
592.916480,0.325183
593.237500,0.323632
593.558480,0.323110
593.879420,0.324251
594.200320,0.322529
594.521180,0.325100
594.842000,0.324825
595.162780,0.318376
595.483520,0.320659
595.804220,0.324382
596.124880,0.326139
596.445500,0.318313
596.766080,0.326701
597.086620,0.321921
597.407120,0.317536
597.727580,0.324582
598.048000,0.318170
598.368380,0.316938
598.688720,0.320315
599.009020,0.319798
599.329280,0.320649
599.649500,0.317221
599.969680,0.321848
600.289820,0.323184
600.609920,0.316858
600.929980,0.323891
601.250000,0.323784
601.569980,0.314070
601.889920,0.314087
602.209820,0.315747
602.529680,0.318319
602.849500,0.319967
603.169280,0.317443
603.489020,0.319956
603.808720,0.317334
604.128380,0.321192
604.448000,0.311602
604.767580,0.319832
605.087120,0.316066
605.406620,0.320459
605.726080,0.319076
606.045500,0.317359
606.364880,0.314715
606.684220,0.313250
607.003520,0.314220
607.322780,0.318363
607.642000,0.319931
607.961180,0.310494
608.280320,0.314675
608.599420,0.311124
608.918480,0.317595
609.237500,0.316901
609.556480,0.316366
609.875420,0.313644
610.194320,0.317390
610.513180,0.313110
610.832000,0.312686
611.150780,0.315110
611.469520,0.317345
611.788220,0.313482
612.106880,0.311520
612.425500,0.308770
612.744080,0.317328
613.062620,0.311621
613.381120,0.308653
613.699580,0.311465
614.018000,0.313882
614.336380,0.313387
614.654720,0.309147
614.973020,0.306695
615.291280,0.310815
615.609500,0.319493
615.927680,0.311496
616.245820,0.309215
616.563920,0.304632
616.881980,0.313377
617.200000,0.311042
617.517980,0.306472
617.835920,0.306617
618.153820,0.307118
618.471680,0.306667
618.789500,0.303965
619.107280,0.312050
619.425020,0.312718
619.742720,0.308223
620.060380,0.308994
620.378000,0.310887
620.695580,0.310664
621.013120,0.309921
621.330620,0.312833
621.648080,0.306309
621.965500,0.312422
622.282880,0.303594
622.600220,0.304801
622.917520,0.308129
623.234780,0.317261
623.552000,0.312540
623.869180,0.304444
624.186320,0.312003
624.503420,0.311912
624.820480,0.312598
625.137500,0.309441
625.454480,0.304158
625.771420,0.306747
626.088320,0.312421
626.405180,0.310205
626.722000,0.307089
627.038780,0.307644
627.355520,0.308125
627.672220,0.309487
627.988880,0.306376
628.305500,0.307261
628.622080,0.310409
628.938620,0.311315
629.255120,0.308650
629.571580,0.304321
629.888000,0.304081
630.204380,0.308684
630.520720,0.306216
630.837020,0.302189
631.153280,0.308453
631.469500,0.308065
631.785680,0.312538
632.101820,0.306393
632.417920,0.308197
632.733980,0.303121
633.050000,0.307459
633.365980,0.312092
633.681920,0.307279
633.997820,0.307830
634.313680,0.309643
634.629500,0.307579
634.945280,0.307918
635.261020,0.307015
635.576720,0.306812
635.892380,0.301772
636.208000,0.307670
636.523580,0.305466
636.839120,0.306601
637.154620,0.302899
637.470080,0.303300
637.785500,0.302462
638.100880,0.308138
638.416220,0.307449
638.731520,0.304871
639.046780,0.303525
639.362000,0.300745
639.677180,0.306396
639.992320,0.303073
640.307420,0.305985
640.622480,0.303836
640.937500,0.299029
641.252480,0.302150
641.567420,0.304916
641.882320,0.302339
642.197180,0.300674
642.512000,0.304786
642.826780,0.305687
643.141520,0.303140
643.456220,0.301328
643.770880,0.301271
644.085500,0.304080
644.400080,0.299719
644.714620,0.303512
645.029120,0.305556
645.343580,0.306089
645.658000,0.297807
645.972380,0.301727
646.286720,0.301445
646.601020,0.304733
646.915280,0.304908
647.229500,0.306319
647.543680,0.299641
647.857820,0.305257
648.171920,0.304666
648.485980,0.300904
648.800000,0.300909
649.113980,0.304878
649.427920,0.307628
649.741820,0.302556
650.055680,0.302249
650.369500,0.300729
650.683280,0.301887
650.997020,0.301980
651.310720,0.301871
651.624380,0.296429
651.938000,0.301939
652.251580,0.297245
652.565120,0.295137
652.878620,0.296453
653.192080,0.297472
653.505500,0.296774
653.818880,0.305090
654.132220,0.301339
654.445520,0.299773
654.758780,0.293484
655.072000,0.292837
655.385180,0.297575
655.698320,0.294084
656.011420,0.296073
656.324480,0.295541
656.637500,0.294902
656.950480,0.296829
657.263420,0.292935
657.576320,0.297658
657.889180,0.293424
658.202000,0.296800
658.514780,0.296815
658.827520,0.297719
659.140220,0.294876
659.452880,0.293265
659.765500,0.296809
660.078080,0.296118
660.390620,0.292698
660.703120,0.297892
661.015580,0.296933
661.328000,0.294081
661.640380,0.298851
661.952720,0.294612
662.265020,0.294581
662.577280,0.295165
662.889500,0.292337
663.201680,0.295150
663.513820,0.292055
663.825920,0.292667
664.137980,0.294118
664.450000,0.286125
664.761980,0.289689
665.073920,0.287569
665.385820,0.296139
665.697680,0.291901
666.009500,0.291985
666.321280,0.297217
666.633020,0.294215
666.944720,0.293563
667.256380,0.291050
667.568000,0.282269
667.879580,0.296939
668.191120,0.295673
668.502620,0.285861
668.814080,0.292982
669.125500,0.289771
669.436880,0.286653
669.748220,0.290412
670.059520,0.288165
670.370780,0.289144
670.682000,0.290265
670.993180,0.284708
671.304320,0.286217
671.615420,0.282670
671.926480,0.291696
672.237500,0.285816
672.548480,0.285664
672.859420,0.289135
673.170320,0.288720
673.481180,0.293628
673.792000,0.283448
674.102780,0.288330
674.413520,0.288370
674.724220,0.284936
675.034880,0.286762
675.345500,0.284099
675.656080,0.288929
675.966620,0.278283
676.277120,0.287074
676.587580,0.288660
676.898000,0.290407
677.208380,0.288355
677.518720,0.286652
677.829020,0.280118
678.139280,0.283914
678.449500,0.290382
678.759680,0.288872
679.069820,0.279554
679.379920,0.286684
679.689980,0.280728
680.000000,0.286355
680.309980,0.288419
680.619920,0.281711
680.929820,0.287421
681.239680,0.283973
681.549500,0.291852
681.859280,0.286408
682.169020,0.276016
682.478720,0.289454
682.788380,0.289037
683.098000,0.280479
683.407580,0.285553
683.717120,0.276652
684.026620,0.280497
684.336080,0.280409
684.645500,0.275720
684.954880,0.281073
685.264220,0.280861
685.573520,0.284735
685.882780,0.285386
686.192000,0.280662
686.501180,0.285282
686.810320,0.285165
687.119420,0.278981
687.428480,0.279149
687.737500,0.284344
688.046480,0.282209
688.355420,0.278008
688.664320,0.281561
688.973180,0.286753
689.282000,0.283179
689.590780,0.281058
689.899520,0.279529
690.208220,0.282875
690.516880,0.284460
690.825500,0.282264
691.134080,0.279803
691.442620,0.274771
691.751120,0.281380
692.059580,0.282002
692.368000,0.276410
692.676380,0.280153
692.984720,0.280916
693.293020,0.279635
693.601280,0.278138
693.909500,0.283012
694.217680,0.278370
694.525820,0.284844
694.833920,0.282717
695.141980,0.279213
695.450000,0.277099
695.757980,0.279985
696.065920,0.270291
696.373820,0.270978
696.681680,0.273878
696.989500,0.278657
697.297280,0.274212
697.605020,0.278175
697.912720,0.275173
698.220380,0.275876
698.528000,0.282832
698.835580,0.281707
699.143120,0.274747
699.450620,0.278441
699.758080,0.272941
700.065500,0.283719
700.372880,0.272400
700.680220,0.277623
700.987520,0.273810
701.294780,0.274939
701.602000,0.275753
701.909180,0.277424
702.216320,0.276105
702.523420,0.278216
702.830480,0.276436
703.137500,0.275526
703.444480,0.280079
703.751420,0.273373
704.058320,0.276217
704.365180,0.271688
704.672000,0.275248
704.978780,0.270776
705.285520,0.274648
705.592220,0.270588
705.898880,0.279748
706.205500,0.272692
706.512080,0.275671
706.818620,0.275155
707.125120,0.279231
707.431580,0.276280
707.738000,0.281250
708.044380,0.279043
708.350720,0.271303
708.657020,0.281360
708.963280,0.272904
709.269500,0.265362
709.575680,0.274263
709.881820,0.268868
710.187920,0.273930
710.493980,0.275019
710.800000,0.275362
711.105980,0.271837
711.411920,0.272369
711.717820,0.267446
712.023680,0.267781
712.329500,0.280363
712.635280,0.271318
712.941020,0.277155
713.246720,0.273518
713.552380,0.270408
713.858000,0.273551
714.163580,0.269534
714.469120,0.270809
714.774620,0.272009
715.080080,0.272870
715.385500,0.274980
715.690880,0.269428
715.996220,0.269017
716.301520,0.269170
716.606780,0.268475
716.912000,0.272213
717.217180,0.273743
717.522320,0.266799
717.827420,0.275427
718.132480,0.268968
718.437500,0.271504
718.742480,0.271371
719.047420,0.265777
719.352320,0.275218
719.657180,0.273099
719.962000,0.270058
720.266780,0.270046
720.571520,0.265534
720.876220,0.265548
721.180880,0.265886
721.485500,0.268282
721.790080,0.269639
722.094620,0.268439
722.399120,0.273589
722.703580,0.263609
723.008000,0.269082
723.312380,0.271201
723.616720,0.258819
723.921020,0.260286
724.225280,0.266143
724.529500,0.270578
724.833680,0.271352
725.137820,0.264758
725.441920,0.265716
725.745980,0.266219
726.050000,0.264321
726.353980,0.262280
726.657920,0.263158
726.961820,0.267580
727.265680,0.266297
727.569500,0.272395
727.873280,0.261432
728.177020,0.265776
728.480720,0.259259
728.784380,0.263974
729.088000,0.266604
729.391580,0.265751
729.695120,0.265355
729.998620,0.259560
730.302080,0.266218
730.605500,0.265890
730.908880,0.261636
731.212220,0.258080
731.515520,0.266212
731.818780,0.267961
732.122000,0.268209
732.425180,0.259241
732.728320,0.264750
733.031420,0.258145
733.334480,0.268878
733.637500,0.257056
733.940480,0.258444
734.243420,0.265036
734.546320,0.264523
734.849180,0.256198
735.152000,0.253112
735.454780,0.263946
735.757520,0.262381
736.060220,0.258031
736.362880,0.259454
736.665500,0.257441
736.968080,0.265986
737.270620,0.264017
737.573120,0.263100
737.875580,0.264431
738.178000,0.260207
738.480380,0.260541
738.782720,0.258997
739.085020,0.267070
739.387280,0.256098
739.689500,0.254813
739.991680,0.263897
740.293820,0.255943
740.595920,0.260434
740.897980,0.263128
741.200000,0.258553
741.501980,0.257880
741.803920,0.253941
742.105820,0.257191
742.407680,0.260338
742.709500,0.254545
743.011280,0.254982
743.313020,0.255652
743.614720,0.252467
743.916380,0.260465
744.218000,0.261337
744.519580,0.269324
744.821120,0.261078
745.122620,0.252846
745.424080,0.257812
745.725500,0.265540
746.026880,0.264163
746.328220,0.256473
746.629520,0.257074
746.930780,0.258578
747.232000,0.250766
747.533180,0.252593
747.834320,0.262325
748.135420,0.254817
748.436480,0.254523
748.737500,0.255713
749.038480,0.255956
749.339420,0.258245
749.640320,0.255814
749.941180,0.258588
750.242000,0.253141
750.542780,0.254963
750.843520,0.263933
751.144220,0.264103
751.444880,0.253646
751.745500,0.250000
752.046080,0.255292
752.346620,0.250644
752.647120,0.258654
752.947580,0.254851
753.248000,0.254674
753.548380,0.258295
753.848720,0.252415
754.149020,0.248227
754.449280,0.252134
754.749500,0.254147
755.049680,0.250667
755.349820,0.249500
755.649920,0.259088
755.949980,0.251493
756.250000,0.251151
756.549980,0.254785
756.849920,0.254249
757.149820,0.249501
757.449680,0.252805
757.749500,0.260395
758.049280,0.247782
758.349020,0.259388
758.648720,0.259489
758.948380,0.254983
759.248000,0.255391
759.547580,0.252186
759.847120,0.247416
760.146620,0.257104
760.446080,0.254032
760.745500,0.255944
761.044880,0.252841
761.344220,0.258731
761.643520,0.258475
761.942780,0.259622
762.242000,0.256011
762.541180,0.249296
762.840320,0.252107
763.139420,0.255274
763.438480,0.249487
763.737500,0.259821
764.036480,0.256464
764.335420,0.252646
764.634320,0.249480
764.933180,0.252740
765.232000,0.251214
765.530780,0.251930
765.829520,0.251748
766.128220,0.254001
766.426880,0.251599
766.725500,0.254969
767.024080,0.249657
767.322620,0.246196
767.621120,0.254743
767.919580,0.251877
768.218000,0.246922
768.516380,0.255578
768.814720,0.247599
769.113020,0.250172
769.411280,0.254834
769.709500,0.244926
770.007680,0.241309
770.305820,0.255578
770.603920,0.250674
770.901980,0.253415
771.200000,0.250679
771.497980,0.245308
771.795920,0.251505
772.093820,0.243316
772.391680,0.247858
772.689500,0.243919
772.987280,0.244444
773.285020,0.246070
773.582720,0.253378
773.880380,0.251887
774.178000,0.244717
774.475580,0.253851
774.773120,0.243641
775.070620,0.254226
775.368080,0.249165
775.665500,0.244459
775.962880,0.245497
776.260220,0.253028
776.557520,0.244163
776.854780,0.252197
777.152000,0.250663
777.449180,0.244100
777.746320,0.241935
778.043420,0.247613
778.340480,0.241543
778.637500,0.248817
778.934480,0.247478
779.231420,0.252374
779.528320,0.245825
779.825180,0.238472
780.122000,0.241036
780.418780,0.251026
780.715520,0.247485
781.012220,0.254110
781.308880,0.248141
781.605500,0.239726
781.902080,0.242300
782.198620,0.241285
782.495120,0.249657
782.791580,0.251032
783.088000,0.247067
783.384380,0.243466
783.680720,0.240082
783.977020,0.243634
784.273280,0.243357
784.569500,0.243885
784.865680,0.245480
785.161820,0.248611
785.457920,0.241857
785.753980,0.242149
786.050000,0.238950
786.345980,0.236806
786.641920,0.241499
786.937820,0.243590
787.233680,0.241475
787.529500,0.237171
787.825280,0.249292
788.121020,0.243626
788.416720,0.240649
788.712380,0.244006
789.008000,0.241501
789.303580,0.246643
789.599120,0.253091
789.894620,0.250542
790.190080,0.233503
790.485500,0.242621
790.780880,0.240143
791.076220,0.243146
791.371520,0.241830
791.666780,0.243636
791.962000,0.246143
792.257180,0.232796
792.552320,0.243655
792.847420,0.249636
793.142480,0.249084
793.437500,0.243126
793.732480,0.243599
794.027420,0.234421
794.322320,0.239374
794.617180,0.239227
794.912000,0.239970
795.206780,0.242356
795.501520,0.241065
795.796220,0.236296
796.090880,0.239638
796.385500,0.237631
796.680080,0.230366
796.974620,0.234281
797.269120,0.233157
797.563580,0.243511
797.858000,0.238421
798.152380,0.245940
798.446720,0.250769
798.741020,0.232666
799.035280,0.239130
799.329500,0.240955
799.623680,0.240310
