399.985280,0.364865
400.329500,0.418919
400.673680,0.367089
401.017820,0.323529
401.361920,0.363636
401.705980,0.304878
402.050000,0.311688
402.393980,0.352941
402.737920,0.370787
403.081820,0.340206
403.425680,0.453488
403.769500,0.364583
404.113280,0.379310
404.457020,0.393258
404.800720,0.369565
405.144380,0.444444
405.488000,0.451613
405.831580,0.371134
406.175120,0.414894
406.518620,0.430000
406.862080,0.402062
407.205500,0.302083
407.548880,0.377551
407.892220,0.362745
408.235520,0.404255
408.578780,0.333333
408.922000,0.336538
409.265180,0.414141
409.608320,0.353535
409.951420,0.474227
410.294480,0.441176
410.637500,0.369565
410.980480,0.392157
411.323420,0.387755
411.666320,0.467890
412.009180,0.445455
412.352000,0.346535
412.694780,0.440367
413.037520,0.394495
413.380220,0.423423
413.722880,0.446429
414.065500,0.441441
414.408080,0.398230
414.750620,0.415929
415.093120,0.421488
415.435580,0.394958
415.778000,0.416667
416.120380,0.378151
416.462720,0.380952
416.805020,0.413534
417.147280,0.373134
417.489500,0.471429
417.831680,0.404110
418.173820,0.375887
418.515920,0.398601
418.857980,0.379747
419.200000,0.358974
419.541980,0.426036
419.883920,0.376404
420.225820,0.381503
420.567680,0.391061
420.909500,0.382514
421.251280,0.390625
421.593020,0.413265
421.934720,0.398990
422.276380,0.400000
422.618000,0.387255
422.959580,0.411765
423.301120,0.401826
423.642620,0.378261
423.984080,0.390698
424.325500,0.394619
424.666880,0.392241
425.008220,0.403361
425.349520,0.389831
425.690780,0.353846
426.032000,0.372549
426.373180,0.398340
426.714320,0.371094
427.055420,0.382239
427.396480,0.411985
427.737500,0.359684
428.078480,0.375494
428.419420,0.381526
428.760320,0.383142
429.101180,0.413386
429.442000,0.398467
429.782780,0.361538
430.123520,0.392157
430.464220,0.361624
430.804880,0.390805
431.145500,0.360000
431.486080,0.382022
431.826620,0.375969
432.167120,0.375000
432.507580,0.394928
432.848000,0.370504
433.188380,0.382671
433.528720,0.384906
433.869020,0.385714
434.209280,0.378947
434.549500,0.397213
434.889680,0.390572
435.229820,0.385666
435.569920,0.370242
435.909980,0.362460
436.250000,0.389831
436.589980,0.349845
436.929920,0.393651
437.269820,0.398119
437.609680,0.393491
437.949500,0.382530
438.289280,0.359773
438.629020,0.389535
438.968720,0.386628
439.308380,0.365854
439.648000,0.380822
439.987580,0.373016
440.327120,0.365333
440.666620,0.384416
441.006080,0.375959
441.345500,0.380835
441.684880,0.368421
442.024220,0.387097
442.363520,0.371429
442.702780,0.370455
443.042000,0.378855
443.381180,0.364224
443.720320,0.388769
444.059420,0.363445
444.398480,0.374477
444.737500,0.366803
445.076480,0.365079
445.415420,0.369261
445.754320,0.359667
446.093180,0.365138
446.432000,0.374060
446.770780,0.375712
447.109520,0.389706
447.448220,0.366726
447.786880,0.364937
448.125500,0.374138
448.464080,0.364286
448.802620,0.365248
449.141120,0.358131
449.479580,0.374126
449.818000,0.371773
450.156380,0.367893
450.494720,0.368595
450.833020,0.365385
451.171280,0.361301
451.509500,0.369338
451.847680,0.364250
452.185820,0.364888
452.523920,0.379725
452.861980,0.376054
453.200000,0.368771
453.537980,0.342857
453.875920,0.363025
454.213820,0.345890
454.551680,0.346026
454.889500,0.377740
455.227280,0.352313
455.565020,0.371859
455.902720,0.364393
456.240380,0.349418
456.578000,0.365854
456.915580,0.369603
457.253120,0.356908
457.590620,0.364532
457.928080,0.377104
458.265500,0.375000
458.602880,0.370130
458.940220,0.360406
459.277520,0.372800
459.614780,0.376432
459.952000,0.354037
460.289180,0.373418
460.626320,0.379528
460.963420,0.360258
461.300480,0.353211
461.637500,0.359014
461.974480,0.370031
462.311420,0.366617
462.648320,0.354319
462.985180,0.361549
463.322000,0.367560
463.658780,0.341160
463.995520,0.343879
464.332220,0.351801
464.668880,0.353495
465.005500,0.359249
465.342080,0.348271
465.678620,0.364084
466.015120,0.360931
466.351580,0.351454
466.688000,0.353228
467.024380,0.356015
467.360720,0.360227
467.697020,0.354214
468.033280,0.356667
468.369500,0.363135
468.705680,0.359639
469.041820,0.353125
469.377920,0.353579
469.713980,0.346035
470.050000,0.359420
470.385980,0.342466
470.721920,0.351616
471.057820,0.356725
471.393680,0.336763
471.729500,0.347544
472.065280,0.347048
472.401020,0.359043
472.736720,0.358639
473.072380,0.357271
473.408000,0.342907
473.743580,0.348616
474.079120,0.348837
474.414620,0.348601
474.750080,0.335232
475.085500,0.347039
475.420880,0.353872
475.756220,0.349141
476.091520,0.344416
476.426780,0.344660
476.762000,0.353982
477.097180,0.352000
477.432320,0.351373
477.767420,0.347222
478.102480,0.342520
478.437500,0.346470
478.772480,0.334909
479.107420,0.341741
479.442320,0.340528
479.777180,0.352426
480.112000,0.324345
480.446780,0.332814
480.781520,0.337359
481.116220,0.336297
481.450880,0.334114
481.785500,0.348892
482.120080,0.336991
482.454620,0.341880
482.789120,0.339968
483.123580,0.334112
483.458000,0.337025
483.792380,0.344249
484.126720,0.333591
484.461020,0.345043
484.795280,0.346955
485.129500,0.342946
485.463680,0.334109
485.797820,0.353033
486.131920,0.335119
486.465980,0.338224
486.800000,0.335878
487.133980,0.330060
487.467920,0.343535
487.801820,0.342487
488.135680,0.338893
488.469500,0.336611
488.803280,0.338782
489.137020,0.324542
489.470720,0.331602
489.804380,0.337788
490.138000,0.341988
490.471580,0.344141
490.805120,0.332380
491.138620,0.334044
491.472080,0.335689
491.805500,0.337517
492.138880,0.342599
492.472220,0.341176
492.805520,0.339385
493.138780,0.340455
493.472000,0.337793
493.805180,0.343111
494.138320,0.341561
494.471420,0.334635
494.804480,0.329237
495.137500,0.339538
495.470480,0.344806
495.803420,0.338161
496.136320,0.337719
496.469180,0.334561
496.802000,0.333741
497.134780,0.335961
497.467520,0.335168
497.800220,0.333726
498.132880,0.329806
498.465500,0.342410
498.798080,0.328767
499.130620,0.338574
499.463120,0.331836
499.795580,0.325633
500.128000,0.334060
500.460380,0.342304
500.792720,0.330859
501.125020,0.331582
501.457280,0.327937
501.789500,0.336777
502.121680,0.340591
502.453820,0.323814
502.785920,0.336168
503.117980,0.337095
503.450000,0.341035
503.781980,0.336821
504.113920,0.329066
504.445820,0.335440
504.777680,0.323765
505.109500,0.339904
505.441280,0.332218
505.773020,0.332081
506.104720,0.332077
506.436380,0.332702
506.768000,0.333957
507.099580,0.327689
507.431120,0.327869
507.762620,0.327538
508.094080,0.333637
508.425500,0.329132
508.756880,0.334705
509.088220,0.330267
509.419520,0.332402
509.750780,0.327085
510.082000,0.331157
510.413180,0.331644
510.744320,0.333180
511.075420,0.325848
511.406480,0.334274
511.737500,0.324537
512.068480,0.333177
512.399420,0.329108
512.730320,0.319169
513.061180,0.331113
513.392000,0.323710
513.722780,0.332853
514.053520,0.325347
514.384220,0.321598
514.714880,0.328865
515.045500,0.319923
515.376080,0.328814
515.706620,0.328300
516.037120,0.331373
516.367580,0.326269
516.698000,0.325980
517.028380,0.324727
517.358720,0.322963
517.689020,0.323442
518.019280,0.321124
518.349500,0.326913
518.679680,0.320040
519.009820,0.320344
519.339920,0.330661
519.669980,0.328980
520.000000,0.328579
520.329980,0.324002
520.659920,0.322597
520.989820,0.323529
521.319680,0.325103
521.649500,0.316710
521.979280,0.327766
522.309020,0.320021
522.638720,0.315924
522.968380,0.324716
523.298000,0.317328
523.627580,0.322297
523.957120,0.324156
524.286620,0.321001
524.616080,0.320062
524.945500,0.326615
525.274880,0.330426
525.604220,0.321429
525.933520,0.324423
526.262780,0.322859
526.592000,0.315068
526.921180,0.321991
527.250320,0.321157
527.579420,0.321374
527.908480,0.325455
528.237500,0.325720
528.566480,0.326347
528.895420,0.326269
529.224320,0.317484
529.553180,0.320000
529.882000,0.325547
530.210780,0.324324
530.539520,0.322148
530.868220,0.322164
531.196880,0.311515
531.525500,0.326392
531.854080,0.315197
532.182620,0.318076
532.511120,0.316473
532.839580,0.314882
533.168000,0.316317
533.496380,0.321461
533.824720,0.317631
534.153020,0.316986
534.481280,0.320264
534.809500,0.322339
535.137680,0.315972
535.465820,0.313144
535.793920,0.319374
536.121980,0.316828
536.450000,0.324736
536.777980,0.320067
537.105920,0.320880
537.433820,0.313421
537.761680,0.322449
538.089500,0.315662
538.417280,0.321130
538.745020,0.318938
539.072720,0.312768
539.400380,0.319736
539.728000,0.317017
540.055580,0.318727
540.383120,0.321668
540.710620,0.322917
541.038080,0.317226
541.365500,0.320956
541.692880,0.315770
542.020220,0.316301
542.347520,0.318019
542.674780,0.318278
543.002000,0.314206
543.329180,0.318485
543.656320,0.321730
543.983420,0.315897
544.310480,0.312606
544.637500,0.315933
544.964480,0.311911
545.291420,0.315387
545.618320,0.317397
545.945180,0.312459
546.272000,0.310944
546.598780,0.316945
546.925520,0.319815
547.252220,0.319577
547.578880,0.312480
547.905500,0.315033
548.232080,0.316764
548.558620,0.315327
548.885120,0.317305
549.211580,0.317261
549.538000,0.316472
549.864380,0.309325
550.190720,0.310946
550.517020,0.314863
550.843280,0.315635
551.169500,0.307888
551.495680,0.315046
551.821820,0.307969
552.147920,0.309369
552.473980,0.310833
552.800000,0.315566
553.125980,0.316306
553.451920,0.313537
553.777820,0.315123
554.103680,0.317829
554.429500,0.306327
554.755280,0.309079
555.081020,0.306818
555.406720,0.312902
555.732380,0.310742
556.058000,0.315003
556.383580,0.314618
556.709120,0.311854
557.034620,0.310369
557.360080,0.309499
557.685500,0.309820
558.010880,0.312305
558.336220,0.308963
558.661520,0.307338
558.986780,0.307583
559.312000,0.309117
559.637180,0.308438
559.962320,0.306871
560.287420,0.309591
560.612480,0.301041
560.937500,0.314611
561.262480,0.312317
561.587420,0.306493
561.912320,0.310612
562.237180,0.307920
562.562000,0.317247
562.886780,0.307692
563.211520,0.307004
563.536220,0.308349
563.860880,0.310072
564.185500,0.305066
564.510080,0.312265
564.834620,0.302940
565.159120,0.306767
565.483580,0.301786
565.808000,0.301930
566.132380,0.304737
566.456720,0.303099
566.781020,0.306452
567.105280,0.307372
567.429500,0.305008
567.753680,0.312620
568.077820,0.310398
568.401920,0.308633
568.725980,0.305882
569.050000,0.303802
569.373980,0.305672
569.697920,0.303754
570.021820,0.302622
570.345680,0.301569
570.669500,0.307898
570.993280,0.305279
571.317020,0.304713
571.640720,0.304928
571.964380,0.305122
572.288000,0.305638
572.611580,0.304755
572.935120,0.301160
573.258620,0.307779
573.582080,0.303651
573.905500,0.303797
574.228880,0.308463
574.552220,0.308171
574.875520,0.306776
575.198780,0.303578
575.522000,0.297287
575.845180,0.298352
576.168320,0.295005
576.491420,0.310683
576.814480,0.309584
577.137500,0.308442
577.460480,0.307720
577.783420,0.306538
578.106320,0.310541
578.429180,0.303641
578.752000,0.301494
579.074780,0.306811
579.397520,0.302776
579.720220,0.299871
580.042880,0.303601
580.365500,0.299471
580.688080,0.308345
581.010620,0.303746
581.333120,0.301937
581.655580,0.304362
581.978000,0.302295
582.300380,0.303148
582.622720,0.304219
582.945020,0.300390
583.267280,0.303484
583.589500,0.300482
583.911680,0.308034
584.233820,0.299969
584.555920,0.308226
584.877980,0.307789
585.200000,0.296194
585.521980,0.304912
585.843920,0.300488
586.165820,0.303169
586.487680,0.297924
586.809500,0.299730
587.131280,0.299615
587.453020,0.305357
587.774720,0.300710
588.096380,0.299883
588.418000,0.306994
588.739580,0.303823
589.061120,0.306498
589.382620,0.298854
589.704080,0.301543
590.025500,0.305651
590.346880,0.302136
590.668220,0.309717
590.989520,0.295064
591.310780,0.298536
591.632000,0.298634
591.953180,0.301688
592.274320,0.299208
592.595420,0.297414
592.916480,0.302907
593.237500,0.302344
593.558480,0.302125
593.879420,0.298624
594.200320,0.299223
594.521180,0.302789
594.842000,0.303600
595.162780,0.296474
595.483520,0.301250
595.804220,0.300215
596.124880,0.305622
596.445500,0.298926
596.766080,0.299543
597.086620,0.306794
597.407120,0.299895
597.727580,0.302572
598.048000,0.299392
598.368380,0.297738
598.688720,0.300393
599.009020,0.301221
599.329280,0.297233
599.649500,0.291337
599.969680,0.297009
600.289820,0.302350
600.609920,0.305103
600.929980,0.296366
601.250000,0.294595
601.569980,0.294896
601.889920,0.293772
602.209820,0.296266
602.529680,0.301291
602.849500,0.294599
603.169280,0.294296
603.489020,0.296153
603.808720,0.297312
604.128380,0.299945
604.448000,0.294199
604.767580,0.293296
605.087120,0.291690
605.406620,0.292751
605.726080,0.297690
606.045500,0.297019
606.364880,0.295435
606.684220,0.294403
607.003520,0.295298
607.322780,0.290790
607.642000,0.296094
607.961180,0.291703
608.280320,0.293503
608.599420,0.289108
608.918480,0.293842
609.237500,0.294308
609.556480,0.294170
609.875420,0.296515
610.194320,0.292589
610.513180,0.289731
610.832000,0.290947
611.150780,0.298889
611.469520,0.290799
611.788220,0.293229
612.106880,0.286188
612.425500,0.291413
612.744080,0.290859
613.062620,0.288073
613.381120,0.290067
613.699580,0.293072
614.018000,0.295455
614.336380,0.296730
614.654720,0.289922
614.973020,0.288183
615.291280,0.296560
615.609500,0.290650
615.927680,0.288319
616.245820,0.288188
616.563920,0.288157
616.881980,0.286872
617.200000,0.287403
617.517980,0.286559
617.835920,0.285803
618.153820,0.287535
618.471680,0.288062
618.789500,0.286029
619.107280,0.291393
619.425020,0.286711
619.742720,0.289391
620.060380,0.281103
620.378000,0.292008
620.695580,0.296935
621.013120,0.287559
621.330620,0.292124
621.648080,0.284543
621.965500,0.286700
622.282880,0.281841
622.600220,0.286797
622.917520,0.286704
623.234780,0.290582
623.552000,0.294398
623.869180,0.287110
624.186320,0.284623
624.503420,0.284326
624.820480,0.285894
625.137500,0.290180
625.454480,0.285402
625.771420,0.285939
626.088320,0.292245
626.405180,0.291848
626.722000,0.289523
627.038780,0.285714
627.355520,0.286250
627.672220,0.291446
627.988880,0.284292
628.305500,0.289810
628.622080,0.292131
628.938620,0.286850
629.255120,0.287492
629.571580,0.282562
629.888000,0.288125
630.204380,0.286591
630.520720,0.287325
630.837020,0.284305
631.153280,0.284472
631.469500,0.287750
631.785680,0.289030
632.101820,0.288299
632.417920,0.287928
632.733980,0.283914
633.050000,0.287447
633.365980,0.281565
633.681920,0.286098
633.997820,0.283323
634.313680,0.282807
634.629500,0.281333
634.945280,0.282111
635.261020,0.286763
635.576720,0.280094
635.892380,0.283764
636.208000,0.280941
636.523580,0.284420
636.839120,0.282860
637.154620,0.285217
637.470080,0.286083
637.785500,0.288394
638.100880,0.284101
638.416220,0.286166
638.731520,0.281375
639.046780,0.281969
639.362000,0.277523
639.677180,0.279555
639.992320,0.285593
640.307420,0.282383
640.622480,0.281994
640.937500,0.287379
641.252480,0.287071
641.567420,0.287866
641.882320,0.283408
642.197180,0.286356
642.512000,0.276798
642.826780,0.280721
643.141520,0.281467
643.456220,0.279469
643.770880,0.280265
644.085500,0.280604
644.400080,0.286798
644.714620,0.283166
645.029120,0.281903
645.343580,0.278387
645.658000,0.280600
645.972380,0.283913
646.286720,0.279095
646.601020,0.282314
646.915280,0.283521
647.229500,0.284341
647.543680,0.285280
647.857820,0.277181
648.171920,0.286218
648.485980,0.284461
648.800000,0.270322
649.113980,0.280488
649.427920,0.282663
649.741820,0.278923
650.055680,0.283873
650.369500,0.287276
650.683280,0.280244
650.997020,0.280803
651.310720,0.281783
651.624380,0.275824
651.938000,0.276177
652.251580,0.281380
652.565120,0.276691
652.878620,0.280124
653.192080,0.280618
653.505500,0.274614
653.818880,0.278931
654.132220,0.284819
654.445520,0.278503
654.758780,0.273371
655.072000,0.274212
655.385180,0.272468
655.698320,0.275221
656.011420,0.276010
656.324480,0.279219
656.637500,0.272016
656.950480,0.273928
657.263420,0.280816
657.576320,0.277794
657.889180,0.277204
658.202000,0.276570
658.514780,0.271807
658.827520,0.274910
659.140220,0.272700
659.452880,0.271217
659.765500,0.275738
660.078080,0.273548
660.390620,0.271311
660.703120,0.273755
661.015580,0.270859
661.328000,0.274559
661.640380,0.271513
661.952720,0.274992
662.265020,0.273472
662.577280,0.275445
662.889500,0.275623
663.201680,0.273133
663.513820,0.273721
663.825920,0.275696
664.137980,0.275048
664.450000,0.265985
664.761980,0.272668
665.073920,0.266472
665.385820,0.271270
665.697680,0.272727
666.009500,0.276023
666.321280,0.275348
666.633020,0.275598
666.944720,0.270644
667.256380,0.267833
667.568000,0.262908
667.879580,0.273129
668.191120,0.272321
668.502620,0.269086
668.814080,0.267018
669.125500,0.266507
669.436880,0.266598
669.748220,0.265836
670.059520,0.270658
670.370780,0.268267
670.682000,0.267257
670.993180,0.264975
671.304320,0.270745
671.615420,0.265270
671.926480,0.266856
672.237500,0.265095
672.548480,0.270050
672.859420,0.267334
673.170320,0.266957
673.481180,0.268284
673.792000,0.263613
674.102780,0.264273
674.413520,0.264309
674.724220,0.266425
675.034880,0.265493
675.345500,0.268782
675.656080,0.270780
675.966620,0.264824
676.277120,0.265837
676.587580,0.265832
676.898000,0.268010
677.208380,0.263216
677.518720,0.268053
677.829020,0.270140
678.139280,0.265011
678.449500,0.268102
678.759680,0.266392
679.069820,0.265056
679.379920,0.268578
679.689980,0.269959
680.000000,0.263178
680.309980,0.264291
680.619920,0.266187
680.929820,0.262785
681.239680,0.261448
681.549500,0.261852
681.859280,0.265870
682.169020,0.262962
682.478720,0.264398
682.788380,0.266519
683.098000,0.262154
683.407580,0.260038
683.717120,0.261261
684.026620,0.262801
684.336080,0.264115
684.645500,0.257763
684.954880,0.261050
685.264220,0.258211
685.573520,0.267225
685.882780,0.272727
686.192000,0.259594
686.501180,0.263715
686.810320,0.267871
687.119420,0.261878
687.428480,0.260160
687.737500,0.263239
688.046480,0.260736
688.355420,0.259147
688.664320,0.264346
688.973180,0.261485
689.282000,0.265432
689.590780,0.264187
689.899520,0.252564
690.208220,0.262615
690.516880,0.256968
690.825500,0.264151
691.134080,0.255505
691.442620,0.255335
691.751120,0.257490
692.059580,0.261368
692.368000,0.258614
692.676380,0.265267
692.984720,0.256870
693.293020,0.261018
693.601280,0.259824
693.909500,0.259175
694.217680,0.255522
694.525820,0.262757
694.833920,0.258680
695.141980,0.259159
695.450000,0.256870
695.757980,0.258212
696.065920,0.263301
696.373820,0.263664
696.681680,0.252397
696.989500,0.254342
697.297280,0.252042
697.605020,0.265079
697.912720,0.255188
698.220380,0.259740
698.528000,0.267405
698.835580,0.253655
699.143120,0.261107
699.450620,0.259348
699.758080,0.256471
700.065500,0.255786
700.372880,0.258000
700.680220,0.258875
700.987520,0.254365
701.294780,0.259530
701.602000,0.256339
701.909180,0.259539
702.216320,0.249120
702.523420,0.254933
702.830480,0.260198
703.137500,0.256041
703.444480,0.260355
703.751420,0.250099
704.058320,0.256035
704.365180,0.263407
704.672000,0.260594
704.978780,0.253219
705.285520,0.250782
705.592220,0.253333
705.898880,0.252167
706.205500,0.256651
706.512080,0.257899
706.818620,0.254257
707.125120,0.255769
707.431580,0.261039
707.738000,0.256250
708.044380,0.256658
708.350720,0.256783
708.657020,0.260258
708.963280,0.253494
709.269500,0.257143
709.575680,0.256974
709.881820,0.257075
710.187920,0.257588
710.493980,0.254073
710.800000,0.252098
711.105980,0.249623
711.411920,0.252266
711.717820,0.256920
712.023680,0.247571
712.329500,0.255521
712.635280,0.248450
712.941020,0.251256
713.246720,0.249802
713.552380,0.258634
713.858000,0.253449
714.163580,0.256117
714.469120,0.250098
714.774620,0.256613
715.080080,0.251669
715.385500,0.249800
715.690880,0.249704
715.996220,0.257924
716.301520,0.249802
716.606780,0.252358
716.912000,0.251212
717.217180,0.255387
717.522320,0.250497
717.827420,0.257526
718.132480,0.252509
718.437500,0.253975
718.742480,0.249597
719.047420,0.245146
719.352320,0.253217
719.657180,0.256337
719.962000,0.255170
720.266780,0.246365
720.571520,0.250621
720.876220,0.246727
721.180880,0.247074
721.485500,0.246970
721.790080,0.249682
722.094620,0.256861
722.399120,0.254632
722.703580,0.250750
723.008000,0.249677
723.312380,0.245372
723.616720,0.242669
723.921020,0.249459
724.225280,0.247382
724.529500,0.242119
724.833680,0.258897
725.137820,0.248018
725.441920,0.245207
725.745980,0.250559
726.050000,0.249887
726.353980,0.247859
726.657920,0.246064
726.961820,0.248858
727.265680,0.245955
727.569500,0.245430
727.873280,0.244804
728.177020,0.246430
728.480720,0.250463
728.784380,0.250822
729.088000,0.246350
729.391580,0.251540
729.695120,0.253839
729.998620,0.251434
730.302080,0.247477
730.605500,0.247453
730.908880,0.246448
731.212220,0.252693
731.515520,0.239883
731.818780,0.246602
732.122000,0.243602
732.425180,0.241005
732.728320,0.245910
733.031420,0.240100
733.334480,0.241327
733.637500,0.237903
733.940480,0.250768
734.243420,0.247706
734.546320,0.250000
734.849180,0.241219
735.152000,0.244295
735.454780,0.240186
735.757520,0.242360
736.060220,0.248552
736.362880,0.245798
736.665500,0.240209
736.968080,0.238044
737.270620,0.244965
737.573120,0.245087
737.875580,0.248488
738.178000,0.238977
738.480380,0.238919
738.782720,0.243184
739.085020,0.235683
739.387280,0.236696
739.689500,0.245187
739.991680,0.242560
740.293820,0.245439
740.595920,0.243183
740.897980,0.245059
741.200000,0.240045
741.501980,0.245272
741.803920,0.237613
742.105820,0.239143
742.407680,0.244030
742.709500,0.232955
743.011280,0.249707
743.313020,0.238261
743.614720,0.235055
743.916380,0.236047
744.218000,0.242243
744.519580,0.237319
744.821120,0.241916
745.122620,0.242061
745.424080,0.234976
745.725500,0.241400
746.026880,0.237685
746.328220,0.239211
746.629520,0.232390
746.930780,0.245098
747.232000,0.237891
747.533180,0.239780
747.834320,0.238588
748.135420,0.238658
748.436480,0.243294
748.737500,0.235948
749.038480,0.237019
749.339420,0.243311
749.640320,0.241358
749.941180,0.237976
750.242000,0.243090
750.542780,0.241315
750.843520,0.244715
751.144220,0.238462
751.444880,0.233989
751.745500,0.238312
752.046080,0.239897
752.346620,0.233247
752.647120,0.237100
752.947580,0.238680
753.248000,0.242424
753.548380,0.230969
753.848720,0.238249
754.149020,0.237266
754.449280,0.245568
754.749500,0.232250
755.049680,0.242000
755.349820,0.238826
755.649920,0.230007
755.949980,0.238885
756.250000,0.232742
756.549980,0.232343
756.849920,0.239973
757.149820,0.230872
757.449680,0.243564
757.749500,0.239945
758.049280,0.235495
758.349020,0.226008
758.648720,0.238785
758.948380,0.233677
759.248000,0.235849
759.547580,0.234028
759.847120,0.232254
760.146620,0.234100
760.446080,0.237231
760.745500,0.235664
761.044880,0.237216
761.344220,0.238061
761.643520,0.241525
761.942780,0.235129
762.242000,0.243281
762.541180,0.234507
762.840320,0.234551
763.139420,0.236287
763.438480,0.227614
763.737500,0.227429
764.036480,0.225017
764.335420,0.231475
764.634320,0.227997
764.933180,0.226712
765.232000,0.228314
765.530780,0.232281
765.829520,0.237063
766.128220,0.229645
766.426880,0.231699
766.725500,0.236463
767.024080,0.241427
767.322620,0.231674
767.621120,0.233740
767.919580,0.234812
768.218000,0.229822
768.516380,0.233266
768.814720,0.237997
769.113020,0.235700
769.411280,0.236188
769.709500,0.228011
770.007680,0.224267
770.305820,0.224476
770.603920,0.229111
770.901980,0.237022
771.200000,0.231658
771.497980,0.228552
771.795920,0.226756
772.093820,0.233957
772.391680,0.228741
772.689500,0.227703
772.987280,0.225589
773.285020,0.231032
773.582720,0.228378
773.880380,0.239533
774.178000,0.226312
774.475580,0.235767
774.773120,0.224230
775.070620,0.231237
775.368080,0.232465
775.665500,0.223640
775.962880,0.234156
776.260220,0.236205
776.557520,0.229486
776.854780,0.234618
777.152000,0.227454
777.449180,0.228591
777.746320,0.217742
778.043420,0.232606
778.340480,0.224628
778.637500,0.224476
778.934480,0.233356
779.231420,0.226594
779.528320,0.225117
779.825180,0.222661
780.122000,0.223772
780.418780,0.229822
780.715520,0.228706
781.012220,0.241096
781.308880,0.230561
781.605500,0.232877
781.902080,0.225873
782.198620,0.225564
782.495120,0.227709
782.791580,0.231774
783.088000,0.227053
783.384380,0.234525
783.680720,0.224350
783.977020,0.226428
784.273280,0.228671
784.569500,0.227114
784.865680,0.230876
785.161820,0.221528
785.457920,0.227304
785.753980,0.230984
786.050000,0.220994
786.345980,0.229861
786.641920,0.222068
786.937820,0.235755
787.233680,0.218511
787.529500,0.221221
787.825280,0.234419
788.121020,0.232295
788.416720,0.230064
788.712380,0.222144
789.008000,0.237252
789.303580,0.225442
789.599120,0.230545
789.894620,0.236823
790.190080,0.224075
790.485500,0.228942
790.780880,0.222222
791.076220,0.227994
791.371520,0.224401
791.666780,0.232727
791.962000,0.216018
792.257180,0.224012
792.552320,0.227701
792.847420,0.224163
793.142480,0.223443
793.437500,0.221418
793.732480,0.227505
794.027420,0.221068
794.322320,0.228934
794.617180,0.228826
794.912000,0.224368
795.206780,0.225951
795.501520,0.222814
795.796220,0.228889
796.090880,0.220799
796.385500,0.222639
796.680080,0.221391
796.974620,0.230539
797.269120,0.227858
797.563580,0.222901
797.858000,0.221716
798.152380,0.222738
798.446720,0.230000
798.741020,0.220339
799.035280,0.220497
799.329500,0.230947
799.623680,0.226357
