399.985280,0.310811
400.329500,0.364865
400.673680,0.341772
401.017820,0.382353
401.361920,0.409091
401.705980,0.341463
402.050000,0.285714
402.393980,0.376471
402.737920,0.359551
403.081820,0.371134
403.425680,0.395349
403.769500,0.406250
404.113280,0.390805
404.457020,0.393258
404.800720,0.336957
405.144380,0.383838
405.488000,0.333333
405.831580,0.371134
406.175120,0.319149
406.518620,0.370000
406.862080,0.422680
407.205500,0.427083
407.548880,0.377551
407.892220,0.343137
408.235520,0.404255
408.578780,0.361905
408.922000,0.355769
409.265180,0.383838
409.608320,0.393939
409.951420,0.412371
410.294480,0.401961
410.637500,0.347826
410.980480,0.401961
411.323420,0.387755
411.666320,0.357798
412.009180,0.418182
412.352000,0.376238
412.694780,0.366972
413.037520,0.357798
413.380220,0.405405
413.722880,0.392857
414.065500,0.387387
414.408080,0.327434
414.750620,0.345133
415.093120,0.322314
415.435580,0.428571
415.778000,0.416667
416.120380,0.394958
416.462720,0.396825
416.805020,0.406015
417.147280,0.365672
417.489500,0.371429
417.831680,0.390411
418.173820,0.361702
418.515920,0.391608
418.857980,0.392405
419.200000,0.346154
419.541980,0.431953
419.883920,0.359551
420.225820,0.387283
420.567680,0.340782
420.909500,0.371585
421.251280,0.411458
421.593020,0.367347
421.934720,0.348485
422.276380,0.400000
422.618000,0.377451
422.959580,0.367647
423.301120,0.388128
423.642620,0.369565
423.984080,0.395349
424.325500,0.349776
424.666880,0.379310
425.008220,0.399160
425.349520,0.372881
425.690780,0.353846
426.032000,0.352941
426.373180,0.360996
426.714320,0.371094
427.055420,0.355212
427.396480,0.367041
427.737500,0.359684
428.078480,0.367589
428.419420,0.349398
428.760320,0.390805
429.101180,0.381890
429.442000,0.383142
429.782780,0.365385
430.123520,0.376471
430.464220,0.372694
430.804880,0.406130
431.145500,0.378182
431.486080,0.378277
431.826620,0.391473
432.167120,0.352941
432.507580,0.373188
432.848000,0.359712
433.188380,0.350181
433.528720,0.369811
433.869020,0.367857
434.209280,0.347368
434.549500,0.358885
434.889680,0.367003
435.229820,0.372014
435.569920,0.363322
435.909980,0.352751
436.250000,0.342373
436.589980,0.340557
436.929920,0.377778
437.269820,0.376176
437.609680,0.349112
437.949500,0.349398
438.289280,0.348442
438.629020,0.357558
438.968720,0.345930
439.308380,0.336043
439.648000,0.361644
439.987580,0.365079
440.327120,0.354667
440.666620,0.345455
441.006080,0.370844
441.345500,0.383292
441.684880,0.368421
442.024220,0.347395
442.363520,0.364286
442.702780,0.359091
443.042000,0.359031
443.381180,0.357759
443.720320,0.371490
444.059420,0.342437
444.398480,0.364017
444.737500,0.358607
445.076480,0.355159
445.415420,0.353293
445.754320,0.336798
446.093180,0.337615
446.432000,0.351504
446.770780,0.358634
447.109520,0.360294
447.448220,0.345259
447.786880,0.348837
448.125500,0.344828
448.464080,0.346429
448.802620,0.370567
449.141120,0.356401
449.479580,0.344406
449.818000,0.364888
450.156380,0.356187
450.494720,0.348760
450.833020,0.339161
451.171280,0.335616
451.509500,0.364111
451.847680,0.352445
452.185820,0.349398
452.523920,0.360825
452.861980,0.345700
453.200000,0.350498
453.537980,0.342857
453.875920,0.341176
454.213820,0.340753
454.551680,0.334437
454.889500,0.338954
455.227280,0.339858
455.565020,0.353434
455.902720,0.366057
456.240380,0.331115
456.578000,0.346690
456.915580,0.362694
457.253120,0.333882
457.590620,0.359606
457.928080,0.365320
458.265500,0.356419
458.602880,0.332792
458.940220,0.350254
459.277520,0.328000
459.614780,0.355155
459.952000,0.333851
460.289180,0.356013
460.626320,0.333858
460.963420,0.332795
461.300480,0.344037
461.637500,0.326656
461.974480,0.351682
462.311420,0.354694
462.648320,0.329429
462.985180,0.332855
463.322000,0.337798
463.658780,0.325967
463.995520,0.330124
464.332220,0.331025
464.668880,0.342742
465.005500,0.355228
465.342080,0.332907
465.678620,0.339483
466.015120,0.336352
466.351580,0.337547
466.688000,0.342266
467.024380,0.339004
467.360720,0.340909
467.697020,0.339408
468.033280,0.341111
468.369500,0.343267
468.705680,0.337091
469.041820,0.343750
469.377920,0.328633
469.713980,0.324408
470.050000,0.330435
470.385980,0.341487
470.721920,0.333007
471.057820,0.338207
471.393680,0.331151
471.729500,0.331789
472.065280,0.324687
472.401020,0.334220
472.736720,0.326353
473.072380,0.325853
473.408000,0.322889
473.743580,0.326125
474.079120,0.332472
474.414620,0.324852
474.750080,0.320586
475.085500,0.324013
475.420880,0.328893
475.756220,0.334424
476.091520,0.333333
476.426780,0.336570
476.762000,0.309735
477.097180,0.329600
477.432320,0.328756
477.767420,0.330882
478.102480,0.328346
478.437500,0.334975
478.772480,0.322301
479.107420,0.322213
479.442320,0.321343
479.777180,0.328560
480.112000,0.315871
480.446780,0.320343
480.781520,0.324477
481.116220,0.322555
481.450880,0.308353
481.785500,0.326741
482.120080,0.325235
482.454620,0.325563
482.789120,0.324045
483.123580,0.318536
483.458000,0.319620
483.792380,0.327476
484.126720,0.330502
484.461020,0.323185
484.795280,0.326908
485.129500,0.328917
485.463680,0.319380
485.797820,0.330482
486.131920,0.321347
486.465980,0.330502
486.800000,0.326718
487.133980,0.319486
487.467920,0.328233
487.801820,0.324180
488.135680,0.322972
488.469500,0.322239
488.803280,0.321694
489.137020,0.316484
489.470720,0.331602
489.804380,0.331849
490.138000,0.323442
490.471580,0.315402
490.805120,0.316655
491.138620,0.314144
491.472080,0.311661
491.805500,0.320781
492.138880,0.325226
492.472220,0.322491
492.805520,0.315642
493.138780,0.321847
493.472000,0.321070
493.805180,0.322647
494.138320,0.322215
494.471420,0.313151
494.804480,0.321475
495.137500,0.315789
495.470480,0.321224
495.803420,0.316751
496.136320,0.319549
496.469180,0.308165
496.802000,0.315403
497.134780,0.320800
497.467520,0.324159
497.800220,0.324882
498.132880,0.317460
498.465500,0.323291
498.798080,0.319064
499.130620,0.320606
499.463120,0.325660
499.795580,0.317382
500.128000,0.318801
500.460380,0.319160
500.792720,0.314952
501.125020,0.311088
501.457280,0.313838
501.789500,0.311983
502.121680,0.323484
502.453820,0.309026
502.785920,0.313657
503.117980,0.308636
503.450000,0.320442
503.781980,0.318386
504.113920,0.312945
504.445820,0.313077
504.777680,0.309176
505.109500,0.313462
505.441280,0.320268
505.773020,0.313293
506.104720,0.312765
506.436380,0.309039
506.768000,0.311974
507.099580,0.309382
507.431120,0.316628
507.762620,0.318609
508.094080,0.313127
508.425500,0.311391
508.756880,0.304984
509.088220,0.306808
509.419520,0.315177
509.750780,0.312559
510.082000,0.312500
510.413180,0.311377
510.744320,0.309710
511.075420,0.306599
511.406480,0.316408
511.737500,0.306944
512.068480,0.308271
512.399420,0.309859
512.730320,0.304850
513.061180,0.303996
513.392000,0.311879
513.722780,0.311239
514.053520,0.310494
514.384220,0.305423
514.714880,0.309718
515.045500,0.305077
515.376080,0.309927
515.706620,0.309303
516.037120,0.306863
516.367580,0.304091
516.698000,0.304412
517.028380,0.312314
517.358720,0.306667
517.689020,0.305638
518.019280,0.302559
518.349500,0.303092
518.679680,0.308935
519.009820,0.304150
519.339920,0.308116
519.669980,0.303365
520.000000,0.303107
520.329980,0.306895
520.659920,0.300102
520.989820,0.311662
521.319680,0.310185
521.649500,0.295116
521.979280,0.305324
522.309020,0.296162
522.638720,0.302099
522.968380,0.306618
523.298000,0.298017
523.627580,0.301604
523.957120,0.308052
524.286620,0.310057
524.616080,0.298862
524.945500,0.306460
525.274880,0.309389
525.604220,0.302795
525.933520,0.309748
526.262780,0.299037
526.592000,0.311517
526.921180,0.303200
527.250320,0.298833
527.579420,0.302173
527.908480,0.304284
528.237500,0.302880
528.566480,0.306886
528.895420,0.307048
529.224320,0.302130
529.553180,0.302651
529.882000,0.305596
530.210780,0.297297
530.539520,0.298658
530.868220,0.299665
531.196880,0.299570
531.525500,0.306053
531.854080,0.297373
532.182620,0.297992
532.511120,0.303016
532.839580,0.302632
533.168000,0.310848
533.496380,0.303196
533.824720,0.302826
534.153020,0.305840
534.481280,0.297797
534.809500,0.308707
535.137680,0.302083
535.465820,0.303265
535.793920,0.301607
536.121980,0.303819
536.450000,0.304440
536.777980,0.306242
537.105920,0.299709
537.433820,0.302373
537.761680,0.299184
538.089500,0.304330
538.417280,0.291285
538.745020,0.299921
539.072720,0.300273
539.400380,0.299534
539.728000,0.299044
540.055580,0.295131
540.383120,0.295979
540.710620,0.297619
541.038080,0.302840
541.365500,0.297426
541.692880,0.298328
542.020220,0.299388
542.347520,0.304738
542.674780,0.296754
543.002000,0.296011
543.329180,0.302701
543.656320,0.305204
543.983420,0.292308
544.310480,0.299694
544.637500,0.300921
544.964480,0.298452
545.291420,0.299767
545.618320,0.305777
545.945180,0.296309
546.272000,0.293906
546.598780,0.299246
546.925520,0.303989
547.252220,0.294487
547.578880,0.299772
547.905500,0.296732
548.232080,0.295322
548.558620,0.301985
548.885120,0.295715
549.211580,0.299904
549.538000,0.301232
549.864380,0.294534
550.190720,0.294479
550.517020,0.296936
550.843280,0.299023
551.169500,0.291349
551.495680,0.298620
551.821820,0.299151
552.147920,0.297658
552.473980,0.296345
552.800000,0.293656
553.125980,0.296988
553.451920,0.297943
553.777820,0.298468
554.103680,0.297607
554.429500,0.287245
554.755280,0.294726
555.081020,0.288436
555.406720,0.298341
555.732380,0.290071
556.058000,0.295995
556.383580,0.293050
556.709120,0.293935
557.034620,0.298312
557.360080,0.290501
557.685500,0.288036
558.010880,0.293241
558.336220,0.288928
558.661520,0.290677
558.986780,0.293763
559.312000,0.290954
559.637180,0.291562
559.962320,0.290495
560.287420,0.295487
560.612480,0.289559
560.937500,0.289648
561.262480,0.296554
561.587420,0.290896
561.912320,0.290715
562.237180,0.289415
562.562000,0.291807
562.886780,0.293571
563.211520,0.285768
563.536220,0.292764
563.860880,0.295737
564.185500,0.295310
564.510080,0.294206
564.834620,0.285448
565.159120,0.281955
565.483580,0.287723
565.808000,0.279228
566.132380,0.281611
566.456720,0.290249
566.781020,0.289572
567.105280,0.286200
567.429500,0.292489
567.753680,0.287303
568.077820,0.296482
568.401920,0.292590
568.725980,0.289564
569.050000,0.291635
569.373980,0.287400
569.697920,0.278726
570.021820,0.280524
570.345680,0.286261
570.669500,0.290729
570.993280,0.284238
571.317020,0.287176
571.640720,0.290107
571.964380,0.287676
572.288000,0.286350
572.611580,0.287533
572.935120,0.288814
573.258620,0.286088
573.582080,0.287630
573.905500,0.288161
574.228880,0.287676
574.552220,0.294980
574.875520,0.293001
575.198780,0.285146
575.522000,0.286657
575.845180,0.284742
576.168320,0.284585
576.491420,0.293605
576.814480,0.285353
577.137500,0.285714
577.460480,0.286336
577.783420,0.285102
578.106320,0.288105
578.429180,0.284199
578.752000,0.284821
579.074780,0.285233
579.397520,0.286959
579.720220,0.282497
580.042880,0.285431
580.365500,0.282263
580.688080,0.291045
581.010620,0.283159
581.333120,0.286239
581.655580,0.289377
581.978000,0.284669
582.300380,0.277183
582.622720,0.286091
582.945020,0.287711
583.267280,0.282318
583.589500,0.290530
583.911680,0.283265
584.233820,0.285489
584.555920,0.286165
584.877980,0.282977
585.200000,0.285451
585.521980,0.287921
585.843920,0.285540
586.165820,0.283973
586.487680,0.287692
586.809500,0.285329
587.131280,0.284827
587.453020,0.287202
587.774720,0.283560
588.096380,0.282672
588.418000,0.286216
588.739580,0.284565
589.061120,0.287234
589.382620,0.286533
589.704080,0.286396
590.025500,0.290811
590.346880,0.284992
590.668220,0.285354
590.989520,0.282862
591.310780,0.285004
591.632000,0.283880
591.953180,0.287296
592.274320,0.282282
592.595420,0.287716
592.916480,0.282532
593.237500,0.289679
593.558480,0.284907
593.879420,0.282708
594.200320,0.289044
594.521180,0.286587
594.842000,0.292316
595.162780,0.289263
595.483520,0.287158
595.804220,0.286520
596.124880,0.290168
596.445500,0.277443
596.766080,0.286636
597.086620,0.286890
597.407120,0.283307
597.727580,0.287987
598.048000,0.280614
598.368380,0.278275
598.688720,0.280996
599.009020,0.284236
599.329280,0.281799
599.649500,0.280771
599.969680,0.281250
600.289820,0.281250
600.609920,0.280256
600.929980,0.279797
601.250000,0.285676
601.569980,0.278693
601.889920,0.278802
602.209820,0.278680
602.529680,0.287833
602.849500,0.271959
603.169280,0.282447
603.489020,0.283975
603.808720,0.281953
604.128380,0.279249
604.448000,0.277624
604.767580,0.280726
605.087120,0.277562
605.406620,0.284915
605.726080,0.279156
606.045500,0.278629
606.364880,0.277006
606.684220,0.277270
607.003520,0.274083
607.322780,0.279704
607.642000,0.279150
607.961180,0.276959
608.280320,0.276972
608.599420,0.273175
608.918480,0.282991
609.237500,0.273768
609.556480,0.282036
609.875420,0.273479
610.194320,0.275170
610.513180,0.272566
610.832000,0.279035
611.150780,0.274557
611.469520,0.275415
611.788220,0.277509
612.106880,0.277141
612.425500,0.271620
612.744080,0.278855
613.062620,0.274618
613.381120,0.269348
613.699580,0.274678
614.018000,0.274877
614.336380,0.272980
614.654720,0.279070
614.973020,0.269361
615.291280,0.280136
615.609500,0.277971
615.927680,0.271941
616.245820,0.277675
616.563920,0.275723
616.881980,0.276894
617.200000,0.274961
617.517980,0.275980
617.835920,0.268406
618.153820,0.267019
618.471680,0.270388
618.789500,0.277533
619.107280,0.275117
619.425020,0.277831
619.742720,0.273384
620.060380,0.267314
620.378000,0.275016
620.695580,0.277458
621.013120,0.263937
621.330620,0.273612
621.648080,0.266877
621.965500,0.271016
622.282880,0.266709
622.600220,0.269741
622.917520,0.266856
623.234780,0.277081
623.552000,0.273393
623.869180,0.271982
624.186320,0.273480
624.503420,0.274608
624.820480,0.266415
625.137500,0.268709
625.454480,0.269459
625.771420,0.272068
626.088320,0.265132
626.405180,0.271313
626.722000,0.265056
627.038780,0.265351
627.355520,0.271250
627.672220,0.269984
627.988880,0.271229
628.305500,0.272982
628.622080,0.275713
628.938620,0.271254
629.255120,0.275358
629.571580,0.270610
629.888000,0.266339
630.204380,0.264805
630.520720,0.272700
630.837020,0.268887
631.153280,0.273082
631.469500,0.271680
631.785680,0.270042
632.101820,0.270808
632.417920,0.270343
632.733980,0.268307
633.050000,0.268344
633.365980,0.266746
633.681920,0.264916
633.997820,0.268679
634.313680,0.266883
634.629500,0.265998
634.945280,0.270381
635.261020,0.267097
635.576720,0.265414
635.892380,0.266337
636.208000,0.271644
636.523580,0.267758
636.839120,0.264621
637.154620,0.263188
637.470080,0.269440
637.785500,0.268757
638.100880,0.271069
638.416220,0.269485
638.731520,0.263897
639.046780,0.267405
639.362000,0.266628
639.677180,0.265563
639.992320,0.268114
640.307420,0.268334
640.622480,0.265472
640.937500,0.266297
641.252480,0.270874
641.567420,0.266837
641.882320,0.263363
642.197180,0.272600
642.512000,0.264764
642.826780,0.265465
643.141520,0.268964
643.456220,0.266740
643.770880,0.267828
644.085500,0.268865
644.400080,0.265169
644.714620,0.269231
645.029120,0.264301
645.343580,0.264948
645.658000,0.265057
645.972380,0.266648
646.286720,0.268193
646.601020,0.265984
646.915280,0.268440
647.229500,0.266209
647.543680,0.265949
647.857820,0.270025
648.171920,0.259902
648.485980,0.265278
648.800000,0.260402
649.113980,0.263027
649.427920,0.266574
649.741820,0.261610
650.055680,0.267142
650.369500,0.266256
650.683280,0.263319
650.997020,0.261001
651.310720,0.266648
651.624380,0.264560
651.938000,0.266482
652.251580,0.265795
652.565120,0.261040
652.878620,0.264358
653.192080,0.265730
653.505500,0.264236
653.818880,0.264146
654.132220,0.264882
654.445520,0.261770
654.758780,0.263173
655.072000,0.261605
655.385180,0.252782
655.698320,0.257502
656.011420,0.261106
656.324480,0.260857
656.637500,0.260718
656.950480,0.263359
657.263420,0.259237
657.576320,0.258524
657.889180,0.258921
658.202000,0.259964
658.514780,0.259303
658.827520,0.257803
659.140220,0.256818
659.452880,0.261854
659.765500,0.255569
660.078080,0.257899
660.390620,0.253896
660.703120,0.256645
661.015580,0.260429
661.328000,0.260705
661.640380,0.259397
661.952720,0.263469
662.265020,0.258979
662.577280,0.256679
662.889500,0.260486
663.201680,0.257179
663.513820,0.259247
663.825920,0.250720
664.137980,0.261474
664.450000,0.254476
664.761980,0.258592
665.073920,0.254787
665.385820,0.255236
665.697680,0.253554
666.009500,0.260060
666.321280,0.254473
666.633020,0.254322
666.944720,0.261207
667.256380,0.257066
667.568000,0.258152
667.879580,0.256122
668.191120,0.259272
668.502620,0.254023
668.814080,0.253333
669.125500,0.254191
669.436880,0.254495
669.748220,0.253375
670.059520,0.255252
670.370780,0.253305
670.682000,0.252035
670.993180,0.260747
671.304320,0.254219
671.615420,0.248224
671.926480,0.252661
672.237500,0.252947
672.548480,0.250177
672.859420,0.255540
673.170320,0.248458
673.481180,0.254888
673.792000,0.252795
674.102780,0.242729
674.413520,0.248633
674.724220,0.249365
675.034880,0.256326
675.345500,0.246535
675.656080,0.250454
675.966620,0.250637
676.277120,0.248993
676.587580,0.253314
676.898000,0.254199
677.208380,0.251756
677.518720,0.249453
677.829020,0.250924
678.139280,0.247961
678.449500,0.248422
678.759680,0.255901
679.069820,0.252416
679.379920,0.251980
679.689980,0.245451
680.000000,0.251215
680.309980,0.254269
680.619920,0.253313
680.929820,0.249720
681.239680,0.242984
681.549500,0.250370
681.859280,0.247946
682.169020,0.250280
682.478720,0.253927
682.788380,0.248062
683.098000,0.250187
683.407580,0.250657
683.717120,0.249249
684.026620,0.245105
684.336080,0.245926
684.645500,0.247662
684.954880,0.248206
685.264220,0.248018
685.573520,0.255424
685.882780,0.254315
686.192000,0.249436
686.501180,0.246311
686.810320,0.255188
687.119420,0.244774
687.428480,0.244208
687.737500,0.249808
688.046480,0.242715
688.355420,0.246322
688.664320,0.248279
688.973180,0.248086
689.282000,0.249614
689.590780,0.246933
689.899520,0.238511
690.208220,0.252294
690.516880,0.250095
690.825500,0.243774
691.134080,0.241458
691.442620,0.248857
691.751120,0.246871
692.059580,0.242262
692.368000,0.247255
692.676380,0.244275
692.984720,0.240840
693.293020,0.238602
693.601280,0.242655
693.909500,0.242527
694.217680,0.244859
694.525820,0.244478
694.833920,0.241511
695.141980,0.240648
695.450000,0.248855
695.757980,0.247135
696.065920,0.241553
696.373820,0.249423
696.681680,0.246644
696.989500,0.252412
697.297280,0.245819
697.605020,0.244841
697.912720,0.239816
698.220380,0.242818
698.528000,0.248022
698.835580,0.246938
699.143120,0.240842
699.450620,0.242243
699.758080,0.238039
700.065500,0.247007
700.372880,0.242800
700.680220,0.245313
700.987520,0.246032
701.294780,0.248986
701.602000,0.243265
701.909180,0.238871
702.216320,0.245600
702.523420,0.241121
702.830480,0.241980
703.137500,0.241231
703.444480,0.242604
703.751420,0.247337
704.058320,0.245746
704.365180,0.246451
704.672000,0.245941
704.978780,0.242294
705.285520,0.240219
705.592220,0.242745
705.898880,0.240741
706.205500,0.241393
706.512080,0.237757
706.818620,0.244582
707.125120,0.242308
707.431580,0.243064
707.738000,0.240625
708.044380,0.238132
708.350720,0.237677
708.657020,0.246190
708.963280,0.239907
709.269500,0.241487
709.575680,0.242436
709.881820,0.237814
710.187920,0.239300
710.493980,0.243212
710.800000,0.237223
711.105980,0.233434
711.411920,0.239653
711.717820,0.240546
712.023680,0.239798
712.329500,0.241719
712.635280,0.248062
712.941020,0.234248
713.246720,0.240711
713.552380,0.239011
713.858000,0.238865
714.163580,0.238753
714.469120,0.236030
714.774620,0.240032
715.080080,0.241853
715.385500,0.243006
715.690880,0.237870
715.996220,0.238906
716.301520,0.239921
716.606780,0.235849
716.912000,0.240711
717.217180,0.243416
717.522320,0.234990
717.827420,0.237185
718.132480,0.233641
718.437500,0.234815
718.742480,0.237500
719.047420,0.236246
719.352320,0.234952
719.657180,0.239166
719.962000,0.234078
720.266780,0.240548
720.571520,0.240679
720.876220,0.231588
721.180880,0.234950
721.485500,0.234016
721.790080,0.237792
722.094620,0.237564
722.399120,0.233089
722.703580,0.232319
723.008000,0.228978
723.312380,0.232458
723.616720,0.234594
723.921020,0.229537
724.225280,0.226440
724.529500,0.226795
724.833680,0.238434
725.137820,0.233040
725.441920,0.231832
725.745980,0.238479
726.050000,0.238160
726.353980,0.232988
726.657920,0.236167
726.961820,0.234247
727.265680,0.237171
727.569500,0.231718
727.873280,0.233718
728.177020,0.237678
728.480720,0.238426
728.784380,0.232504
729.088000,0.229863
729.391580,0.229749
729.695120,0.228887
729.998620,0.235182
730.302080,0.232580
730.605500,0.231926
730.908880,0.228809
731.212220,0.232615
731.515520,0.231107
731.818780,0.233495
732.122000,0.238189
732.425180,0.229177
732.728320,0.230540
733.031420,0.232581
733.334480,0.227041
733.637500,0.225302
733.940480,0.230297
734.243420,0.235984
734.546320,0.235996
734.849180,0.233988
735.152000,0.227697
735.454780,0.221074
735.757520,0.227608
736.060220,0.226435
736.362880,0.230567
736.665500,0.222977
736.968080,0.230521
737.270620,0.230811
737.573120,0.227620
737.875580,0.231996
738.178000,0.229722
738.480380,0.226486
738.782720,0.226827
739.085020,0.225220
739.387280,0.226164
739.689500,0.227067
739.991680,0.225716
740.293820,0.233831
740.595920,0.224819
740.897980,0.235460
741.200000,0.227706
741.501980,0.235530
741.803920,0.229167
742.105820,0.229554
742.407680,0.232382
742.709500,0.227841
743.011280,0.230363
743.313020,0.227826
743.614720,0.226930
743.916380,0.230233
744.218000,0.229117
744.519580,0.227053
744.821120,0.238323
745.122620,0.231276
745.424080,0.222356
745.725500,0.226916
746.026880,0.233374
746.328220,0.228113
746.629520,0.225166
746.930780,0.224877
747.232000,0.230533
747.533180,0.222087
747.834320,0.228241
748.135420,0.227470
748.436480,0.225203
748.737500,0.224830
749.038480,0.226634
749.339420,0.225887
749.640320,0.228787
749.941180,0.222361
750.242000,0.221106
750.542780,0.222705
750.843520,0.230621
751.144220,0.231410
751.444880,0.225111
751.745500,0.227273
752.046080,0.226427
752.346620,0.224227
752.647120,0.218158
752.947580,0.222510
753.248000,0.225661
753.548380,0.227066
753.848720,0.226014
754.149020,0.226306
754.449280,0.224557
754.749500,0.226277
755.049680,0.224000
755.349820,0.225484
755.649920,0.225380
755.949980,0.218978
756.250000,0.223537
756.549980,0.221782
756.849920,0.219579
757.149820,0.216234
757.449680,0.228383
757.749500,0.224267
758.049280,0.222526
758.349020,0.219054
758.648720,0.233954
758.948380,0.231615
759.248000,0.224394
759.547580,0.216543
759.847120,0.222605
760.146620,0.225304
760.446080,0.219758
760.745500,0.222378
761.044880,0.227983
761.344220,0.224519
761.643520,0.219633
761.942780,0.222533
762.242000,0.219943
762.541180,0.222535
762.840320,0.226124
763.139420,0.219409
763.438480,0.216678
763.737500,0.212957
764.036480,0.218728
764.335420,0.216655
764.634320,0.221067
764.933180,0.217123
765.232000,0.223456
765.530780,0.221754
765.829520,0.220979
766.128220,0.225470
766.426880,0.217484
766.725500,0.220699
767.024080,0.218107
767.322620,0.219917
767.621120,0.214092
767.919580,0.215017
768.218000,0.222298
768.516380,0.223124
768.814720,0.212620
769.113020,0.219159
769.411280,0.223066
769.709500,0.220568
770.007680,0.220177
770.305820,0.224476
770.603920,0.214960
770.901980,0.221995
771.200000,0.214674
771.497980,0.209786
771.795920,0.220736
772.093820,0.203209
772.391680,0.223467
772.689500,0.210811
772.987280,0.220202
773.285020,0.211210
773.582720,0.214189
773.880380,0.222375
774.178000,0.209271
774.475580,0.216343
774.773120,0.219545
775.070620,0.221095
775.368080,0.215765
775.665500,0.218267
775.962880,0.216144
776.260220,0.218035
776.557520,0.217478
776.854780,0.221095
777.152000,0.212202
777.449180,0.215779
777.746320,0.213710
778.043420,0.221010
778.340480,0.215156
778.637500,0.212306
778.934480,0.225286
779.231420,0.216418
779.528320,0.211089
779.825180,0.214756
780.122000,0.214475
780.418780,0.220246
780.715520,0.215962
781.012220,0.226712
781.308880,0.217039
781.605500,0.218493
781.902080,0.216290
782.198620,0.222830
782.495120,0.216735
782.791580,0.220083
783.088000,0.218081
783.384380,0.220083
783.680720,0.214774
783.977020,0.213352
784.273280,0.223077
784.569500,0.211740
784.865680,0.215577
785.161820,0.221528
785.457920,0.213444
785.753980,0.212142
786.050000,0.212707
786.345980,0.213889
786.641920,0.219986
786.937820,0.212963
787.233680,0.204593
787.529500,0.211512
787.825280,0.222380
788.121020,0.213881
788.416720,0.204658
788.712380,0.212271
789.008000,0.218130
789.303580,0.211307
789.599120,0.213818
789.894620,0.209386
790.190080,0.215373
790.485500,0.205184
790.780880,0.213620
791.076220,0.215729
791.371520,0.217865
791.666780,0.221091
791.962000,0.216752
792.257180,0.214495
792.552320,0.219724
792.847420,0.211790
793.142480,0.213187
793.437500,0.208394
793.732480,0.209949
794.027420,0.215134
794.322320,0.211782
794.617180,0.214710
794.912000,0.210253
795.206780,0.211782
795.501520,0.212928
795.796220,0.207407
796.090880,0.214017
796.385500,0.209145
796.680080,0.216156
796.974620,0.211078
797.269120,0.211961
797.563580,0.209160
797.858000,0.216401
798.152380,0.219644
798.446720,0.213846
798.741020,0.207242
799.035280,0.206522
799.329500,0.217090
799.623680,0.214729
