399.985280,0.378378
400.329500,0.378378
400.673680,0.367089
401.017820,0.338235
401.361920,0.348485
401.705980,0.317073
402.050000,0.324675
402.393980,0.376471
402.737920,0.370787
403.081820,0.412371
403.425680,0.302326
403.769500,0.312500
404.113280,0.333333
404.457020,0.370787
404.800720,0.315217
405.144380,0.414141
405.488000,0.333333
405.831580,0.391753
406.175120,0.361702
406.518620,0.360000
406.862080,0.360825
407.205500,0.333333
407.548880,0.418367
407.892220,0.352941
408.235520,0.340426
408.578780,0.352381
408.922000,0.326923
409.265180,0.373737
409.608320,0.383838
409.951420,0.402062
410.294480,0.401961
410.637500,0.391304
410.980480,0.421569
411.323420,0.397959
411.666320,0.366972
412.009180,0.363636
412.352000,0.336634
412.694780,0.394495
413.037520,0.321101
413.380220,0.414414
413.722880,0.357143
414.065500,0.423423
414.408080,0.327434
414.750620,0.353982
415.093120,0.330579
415.435580,0.327731
415.778000,0.371212
416.120380,0.336134
416.462720,0.341270
416.805020,0.406015
417.147280,0.380597
417.489500,0.350000
417.831680,0.356164
418.173820,0.390071
418.515920,0.384615
418.857980,0.360759
419.200000,0.371795
419.541980,0.360947
419.883920,0.314607
420.225820,0.375723
420.567680,0.357542
420.909500,0.355191
421.251280,0.343750
421.593020,0.372449
421.934720,0.363636
422.276380,0.333333
422.618000,0.382353
422.959580,0.372549
423.301120,0.356164
423.642620,0.304348
423.984080,0.367442
424.325500,0.322870
424.666880,0.366379
425.008220,0.344538
425.349520,0.330508
425.690780,0.334615
426.032000,0.321569
426.373180,0.369295
426.714320,0.351562
427.055420,0.328185
427.396480,0.344569
427.737500,0.328063
428.078480,0.343874
428.419420,0.369478
428.760320,0.337165
429.101180,0.350394
429.442000,0.363985
429.782780,0.357692
430.123520,0.360784
430.464220,0.350554
430.804880,0.360153
431.145500,0.360000
431.486080,0.348315
431.826620,0.341085
432.167120,0.349265
432.507580,0.355072
432.848000,0.345324
433.188380,0.342960
433.528720,0.354717
433.869020,0.335714
434.209280,0.322807
434.549500,0.355401
434.889680,0.346801
435.229820,0.334471
435.569920,0.314879
435.909980,0.323625
436.250000,0.335593
436.589980,0.315789
436.929920,0.358730
437.269820,0.338558
437.609680,0.363905
437.949500,0.355422
438.289280,0.337110
438.629020,0.357558
438.968720,0.331395
439.308380,0.330623
439.648000,0.334247
439.987580,0.314815
440.327120,0.352000
440.666620,0.335065
441.006080,0.345269
441.345500,0.346437
441.684880,0.332536
442.024220,0.339950
442.363520,0.328571
442.702780,0.336364
443.042000,0.339207
443.381180,0.351293
443.720320,0.345572
444.059420,0.321429
444.398480,0.334728
444.737500,0.329918
445.076480,0.335317
445.415420,0.319361
445.754320,0.324324
446.093180,0.311927
446.432000,0.323308
446.770780,0.332068
447.109520,0.327206
447.448220,0.332737
447.786880,0.327370
448.125500,0.322414
448.464080,0.328571
448.802620,0.338652
449.141120,0.330450
449.479580,0.335664
449.818000,0.339071
450.156380,0.337793
450.494720,0.325620
450.833020,0.326923
451.171280,0.321918
451.509500,0.332753
451.847680,0.327150
452.185820,0.335628
452.523920,0.340206
452.861980,0.320405
453.200000,0.328904
453.537980,0.315966
453.875920,0.329412
454.213820,0.321918
454.551680,0.314570
454.889500,0.318718
455.227280,0.298932
455.565020,0.318258
455.902720,0.324459
456.240380,0.309484
456.578000,0.334495
456.915580,0.326425
457.253120,0.317434
457.590620,0.328407
457.928080,0.324916
458.265500,0.324324
458.602880,0.326299
458.940220,0.318105
459.277520,0.316800
459.614780,0.342062
459.952000,0.310559
460.289180,0.308544
460.626320,0.303937
460.963420,0.311793
461.300480,0.325688
461.637500,0.315871
461.974480,0.328746
462.311420,0.332340
462.648320,0.308931
462.985180,0.305595
463.322000,0.318452
463.658780,0.305249
463.995520,0.308116
464.332220,0.331025
464.668880,0.314516
465.005500,0.316354
465.342080,0.311140
465.678620,0.312423
466.015120,0.319534
466.351580,0.323641
466.688000,0.314251
467.024380,0.318348
467.360720,0.307955
467.697020,0.316629
468.033280,0.320000
468.369500,0.316777
468.705680,0.319053
469.041820,0.315625
469.377920,0.319957
469.713980,0.308960
470.050000,0.313043
470.385980,0.324853
470.721920,0.313418
471.057820,0.322612
471.393680,0.308700
471.729500,0.313253
472.065280,0.321109
472.401020,0.311170
472.736720,0.316754
473.072380,0.304309
473.408000,0.306353
473.743580,0.305363
474.079120,0.313523
474.414620,0.301951
474.750080,0.300244
475.085500,0.316612
475.420880,0.312240
475.756220,0.311529
476.091520,0.308610
476.426780,0.308252
476.762000,0.307321
477.097180,0.302400
477.432320,0.312601
477.767420,0.312092
478.102480,0.300000
478.437500,0.307882
478.772480,0.301024
479.107420,0.296176
479.442320,0.307754
479.777180,0.311854
480.112000,0.295069
480.446780,0.293063
480.781520,0.301127
481.116220,0.308003
481.450880,0.303669
481.785500,0.300633
482.120080,0.309561
482.454620,0.310023
482.789120,0.309713
483.123580,0.302181
483.458000,0.306171
483.792380,0.309904
484.126720,0.307336
484.461020,0.297424
484.795280,0.296839
485.129500,0.309431
485.463680,0.301550
485.797820,0.309487
486.131920,0.299158
486.465980,0.303475
486.800000,0.306107
487.133980,0.294562
487.467920,0.302984
487.801820,0.306636
488.135680,0.299469
488.469500,0.296520
488.803280,0.303863
489.137020,0.300366
489.470720,0.296736
489.804380,0.301411
490.138000,0.307122
490.471580,0.313191
490.805120,0.293066
491.138620,0.299929
491.472080,0.303180
491.805500,0.297768
492.138880,0.302293
492.472220,0.303806
492.805520,0.301676
493.138780,0.299793
493.472000,0.296321
493.805180,0.304229
494.138320,0.299533
494.471420,0.300781
494.804480,0.293014
495.137500,0.297176
495.470480,0.295730
495.803420,0.291562
496.136320,0.295739
496.469180,0.297115
496.802000,0.296455
497.134780,0.295331
497.467520,0.303364
497.800220,0.305425
498.132880,0.303939
498.465500,0.299537
498.798080,0.289384
499.130620,0.299270
499.463120,0.300955
499.795580,0.293729
500.128000,0.299183
500.460380,0.293864
500.792720,0.294274
501.125020,0.296374
501.457280,0.288251
501.789500,0.293905
502.121680,0.294971
502.453820,0.297807
502.785920,0.292146
503.117980,0.290481
503.450000,0.301356
503.781980,0.293473
504.113920,0.290659
504.445820,0.288284
504.777680,0.291765
505.109500,0.293750
505.441280,0.287763
505.773020,0.294504
506.104720,0.289213
506.436380,0.293895
506.768000,0.290926
507.099580,0.291991
507.431120,0.290867
507.762620,0.293233
508.094080,0.289881
508.425500,0.298786
508.756880,0.292181
509.088220,0.292088
509.419520,0.299348
509.750780,0.295689
510.082000,0.284049
510.413180,0.289728
510.744320,0.291302
511.075420,0.282310
511.406480,0.287259
511.737500,0.285185
512.068480,0.290883
512.399420,0.286385
512.730320,0.281293
513.061180,0.294006
513.392000,0.284903
513.722780,0.289625
514.053520,0.290369
514.384220,0.286394
514.714880,0.289612
515.045500,0.288314
515.376080,0.291525
515.706620,0.288358
516.037120,0.294608
516.367580,0.292262
516.698000,0.285294
517.028380,0.285998
517.358720,0.290864
517.689020,0.288328
518.019280,0.288008
518.349500,0.287380
518.679680,0.285209
519.009820,0.284413
519.339920,0.291082
519.669980,0.281266
520.000000,0.286296
520.329980,0.284603
520.659920,0.294479
520.989820,0.287926
521.319680,0.292695
521.649500,0.281748
521.979280,0.291232
522.309020,0.282676
522.638720,0.274450
522.968380,0.286970
523.298000,0.281315
523.627580,0.281945
523.957120,0.281039
524.286620,0.283481
524.616080,0.282834
524.945500,0.281654
525.274880,0.280144
525.604220,0.287785
525.933520,0.286688
526.262780,0.280284
526.592000,0.287164
526.921180,0.284916
527.250320,0.282598
527.579420,0.287014
527.908480,0.283604
528.237500,0.281033
528.566480,0.284431
528.895420,0.284377
529.224320,0.280832
529.553180,0.277108
529.882000,0.292944
530.210780,0.281371
530.539520,0.279482
530.868220,0.288176
531.196880,0.276159
531.525500,0.284262
531.854080,0.277205
532.182620,0.281644
532.511120,0.277958
532.839580,0.284936
533.168000,0.277575
533.496380,0.285388
533.824720,0.283535
534.153020,0.280428
534.481280,0.284141
534.809500,0.277924
535.137680,0.276042
535.465820,0.280069
535.793920,0.278342
536.121980,0.275703
536.450000,0.284567
536.777980,0.284457
537.105920,0.279369
537.433820,0.281097
537.761680,0.280816
538.089500,0.282072
538.417280,0.273776
538.745020,0.281696
539.072720,0.279969
539.400380,0.279720
539.728000,0.276864
540.055580,0.276404
540.383120,0.277736
540.710620,0.284970
541.038080,0.282553
541.365500,0.281250
541.692880,0.275073
542.020220,0.280317
542.347520,0.283202
542.674780,0.278758
543.002000,0.273268
543.329180,0.282357
543.656320,0.280591
543.983420,0.278291
544.310480,0.272851
544.637500,0.282497
544.964480,0.281292
545.291420,0.274177
545.618320,0.274236
545.945180,0.277192
546.272000,0.277523
546.598780,0.280236
546.925520,0.277283
547.252220,0.281611
547.578880,0.275334
547.905500,0.281046
548.232080,0.279727
548.558620,0.278555
548.885120,0.279359
549.211580,0.275474
549.538000,0.274319
549.864380,0.275884
550.190720,0.275751
550.517020,0.275750
550.843280,0.275570
551.169500,0.272901
551.495680,0.274967
551.821820,0.270085
552.147920,0.272609
552.473980,0.270662
552.800000,0.278940
553.125980,0.278651
553.451920,0.274054
553.777820,0.273817
554.103680,0.278059
554.429500,0.273853
554.755280,0.271362
555.081020,0.277072
555.406720,0.271588
555.732380,0.274822
556.058000,0.277665
556.383580,0.271825
556.709120,0.266713
557.034620,0.275233
557.360080,0.272539
557.685500,0.268672
558.010880,0.272097
558.336220,0.266081
558.661520,0.274725
558.986780,0.274982
559.312000,0.273860
559.637180,0.268941
559.962320,0.268067
560.287420,0.277504
560.612480,0.267313
560.937500,0.271659
561.262480,0.278959
561.587420,0.272035
561.912320,0.269713
562.237180,0.270170
562.562000,0.268238
562.886780,0.273504
563.211520,0.269374
563.536220,0.265677
563.860880,0.269710
564.185500,0.268293
564.510080,0.278781
564.834620,0.268329
565.159120,0.268421
565.483580,0.269099
565.808000,0.272039
566.132380,0.268557
566.456720,0.273243
566.781020,0.268192
567.105280,0.267675
567.429500,0.267451
567.753680,0.266590
568.077820,0.266718
568.401920,0.267762
568.725980,0.274004
569.050000,0.271103
569.373980,0.270651
569.697920,0.265832
570.021820,0.269288
570.345680,0.263682
570.669500,0.267455
570.993280,0.263566
571.317020,0.267081
571.640720,0.268247
571.964380,0.267632
572.288000,0.268917
572.611580,0.266941
572.935120,0.268612
573.258620,0.269260
573.582080,0.264531
573.905500,0.270663
574.228880,0.269859
574.552220,0.263833
574.875520,0.264706
575.198780,0.263101
575.522000,0.263930
575.845180,0.259670
576.168320,0.266259
576.491420,0.261265
576.814480,0.267269
577.137500,0.264069
577.460480,0.268576
577.783420,0.265809
578.106320,0.267450
578.429180,0.265465
578.752000,0.267801
579.074780,0.266352
579.397520,0.266946
579.720220,0.264157
580.042880,0.267922
580.365500,0.268365
580.688080,0.270014
581.010620,0.264934
581.333120,0.269539
581.655580,0.269397
581.978000,0.269371
582.300380,0.261928
582.622720,0.263349
582.945020,0.266580
583.267280,0.268968
583.589500,0.269342
583.911680,0.267069
584.233820,0.266289
584.555920,0.266625
584.877980,0.267274
585.200000,0.262124
585.521980,0.267223
585.843920,0.265101
586.165820,0.267824
586.487680,0.265423
586.809500,0.265827
587.131280,0.262053
587.453020,0.272619
587.774720,0.270550
588.096380,0.265753
588.418000,0.264267
588.739580,0.260707
589.061120,0.268833
589.382620,0.263324
589.704080,0.264516
590.025500,0.271119
590.346880,0.265599
590.668220,0.265192
590.989520,0.261509
591.310780,0.266225
591.632000,0.265847
591.953180,0.266261
592.274320,0.263718
592.595420,0.265356
592.916480,0.264602
593.237500,0.264349
593.558480,0.264730
593.879420,0.264095
594.200320,0.267881
594.521180,0.264276
594.842000,0.268135
595.162780,0.264156
595.483520,0.262430
595.804220,0.262352
596.124880,0.266187
596.445500,0.258056
596.766080,0.271041
597.086620,0.263535
597.407120,0.258031
597.727580,0.267833
598.048000,0.261042
598.368380,0.265650
598.688720,0.261337
599.009020,0.264597
599.329280,0.259180
599.649500,0.258320
599.969680,0.259615
600.289820,0.259882
600.609920,0.259952
600.929980,0.259487
601.250000,0.263514
601.569980,0.263840
601.889920,0.259556
602.209820,0.261364
602.529680,0.263938
602.849500,0.262139
603.169280,0.262882
603.489020,0.262109
603.808720,0.263577
604.128380,0.255795
604.448000,0.261050
604.767580,0.255866
605.087120,0.255402
605.406620,0.262804
605.726080,0.268321
606.045500,0.255782
606.364880,0.258293
606.684220,0.259280
607.003520,0.256881
607.322780,0.258101
607.642000,0.255887
607.961180,0.254120
608.280320,0.256381
608.599420,0.256663
608.918480,0.255425
609.237500,0.259977
609.556480,0.258952
609.875420,0.257236
610.194320,0.253322
610.513180,0.254217
610.832000,0.257892
611.150780,0.260439
611.469520,0.255204
611.788220,0.262696
612.106880,0.253920
612.425500,0.254568
612.744080,0.255463
613.062620,0.255963
613.381120,0.255941
613.699580,0.256591
614.018000,0.254300
614.336380,0.258174
614.654720,0.254264
614.973020,0.253625
615.291280,0.253486
615.609500,0.258954
615.927680,0.250309
616.245820,0.254793
616.563920,0.255207
616.881980,0.253508
617.200000,0.254743
617.517980,0.255134
617.835920,0.253806
618.153820,0.251477
618.471680,0.250233
618.789500,0.254877
619.107280,0.252895
619.425020,0.251824
619.742720,0.252668
620.060380,0.251018
620.378000,0.248584
620.695580,0.258301
621.013120,0.248189
621.330620,0.255099
621.648080,0.248580
621.965500,0.251882
622.282880,0.255675
622.600220,0.249526
622.917520,0.252363
623.234780,0.251045
623.552000,0.256525
623.869180,0.250552
624.186320,0.252467
624.503420,0.252038
624.820480,0.247879
625.137500,0.255131
625.454480,0.250391
625.771420,0.251892
626.088320,0.250000
626.405180,0.252022
626.722000,0.253137
627.038780,0.252193
627.355520,0.245312
627.672220,0.248834
627.988880,0.253188
628.305500,0.251792
628.622080,0.251239
628.938620,0.247401
629.255120,0.251400
629.571580,0.251609
629.888000,0.251611
630.204380,0.249770
630.520720,0.246496
630.837020,0.248844
631.153280,0.250899
631.469500,0.252274
631.785680,0.251658
632.101820,0.254524
632.417920,0.253055
632.733980,0.254502
633.050000,0.245603
633.365980,0.251037
633.681920,0.250000
633.997820,0.252540
634.313680,0.253613
634.629500,0.244471
634.945280,0.250733
635.261020,0.252715
635.576720,0.249853
635.892380,0.246587
636.208000,0.246659
636.523580,0.246127
636.839120,0.248408
637.154620,0.253333
637.470080,0.250502
637.785500,0.248535
638.100880,0.254851
638.416220,0.250216
638.731520,0.252149
639.046780,0.249636
639.362000,0.251433
639.677180,0.249857
639.992320,0.244150
640.307420,0.244170
640.622480,0.250630
640.937500,0.252150
641.252480,0.247696
641.567420,0.242114
641.882320,0.248051
642.197180,0.250983
642.512000,0.246572
642.826780,0.246879
643.141520,0.250347
643.456220,0.242391
643.770880,0.248756
644.085500,0.245668
644.400080,0.253652
644.714620,0.249721
645.029120,0.247800
645.343580,0.249589
645.658000,0.247849
645.972380,0.247739
646.286720,0.245298
646.601020,0.244395
646.915280,0.245681
647.229500,0.243681
647.543680,0.247722
647.857820,0.252959
648.171920,0.246066
648.485980,0.244451
648.800000,0.244420
649.113980,0.244457
649.427920,0.249931
649.741820,0.241275
650.055680,0.247394
650.369500,0.245796
650.683280,0.245283
650.997020,0.244774
651.310720,0.244909
651.624380,0.242033
651.938000,0.243213
652.251580,0.241303
652.565120,0.237563
652.878620,0.242117
653.192080,0.245506
653.505500,0.238990
653.818880,0.245664
654.132220,0.243236
654.445520,0.240783
654.758780,0.236261
655.072000,0.246705
655.385180,0.236234
655.698320,0.240926
656.011420,0.243050
656.324480,0.241329
656.637500,0.241889
656.950480,0.239577
657.263420,0.240319
657.576320,0.239846
657.889180,0.244471
658.202000,0.241244
658.514780,0.238762
658.827520,0.240396
659.140220,0.237639
659.452880,0.240109
659.765500,0.237207
660.078080,0.237436
660.390620,0.240452
660.703120,0.242591
661.015580,0.240798
661.328000,0.239610
661.640380,0.242933
661.952720,0.237932
662.265020,0.241021
662.577280,0.241094
662.889500,0.236518
663.201680,0.236120
663.513820,0.241235
663.825920,0.243356
664.137980,0.239819
664.450000,0.235934
664.761980,0.234370
665.073920,0.234340
665.385820,0.237565
665.697680,0.241653
666.009500,0.241437
666.321280,0.242545
666.633020,0.241356
666.944720,0.238288
667.256380,0.235532
667.568000,0.237432
667.879580,0.233333
668.191120,0.239354
668.502620,0.234166
668.814080,0.238596
669.125500,0.239822
669.436880,0.236860
669.748220,0.234683
670.059520,0.237745
670.370780,0.234864
670.682000,0.235398
670.993180,0.235729
671.304320,0.238397
671.615420,0.230114
671.926480,0.233854
672.237500,0.229368
672.548480,0.232434
672.859420,0.234096
673.170320,0.238303
673.481180,0.235699
673.792000,0.226830
674.102780,0.230880
674.413520,0.235873
674.724220,0.235209
675.034880,0.235424
675.345500,0.230489
675.656080,0.234846
675.966620,0.239724
676.277120,0.235079
676.587580,0.236745
676.898000,0.226950
677.208380,0.232532
677.518720,0.234500
677.829020,0.233186
678.139280,0.234248
678.449500,0.230227
678.759680,0.227801
679.069820,0.232714
679.379920,0.228593
679.689980,0.227627
680.000000,0.234019
680.309980,0.230883
680.619920,0.231352
680.929820,0.228817
681.239680,0.227105
681.549500,0.232222
681.859280,0.233383
682.169020,0.236106
682.478720,0.233732
682.788380,0.231451
683.098000,0.227001
683.407580,0.232645
683.717120,0.228979
684.026620,0.230422
684.336080,0.231527
684.645500,0.226337
684.954880,0.225916
685.264220,0.230653
685.573520,0.230301
685.882780,0.233602
686.192000,0.232506
686.501180,0.227393
686.810320,0.232129
687.119420,0.232991
687.428480,0.225978
687.737500,0.227936
688.046480,0.222009
688.355420,0.224821
688.664320,0.230681
688.973180,0.223966
689.282000,0.233410
689.590780,0.228528
689.899520,0.222560
690.208220,0.231269
690.516880,0.232913
690.825500,0.233585
691.134080,0.224753
691.442620,0.226753
691.751120,0.225635
692.059580,0.225831
692.368000,0.229459
692.676380,0.229771
692.984720,0.224046
693.293020,0.224924
693.601280,0.227776
693.909500,0.223231
694.217680,0.226200
694.525820,0.228865
694.833920,0.224342
695.141980,0.220980
695.450000,0.225191
695.757980,0.226891
696.065920,0.229126
696.373820,0.223634
696.681680,0.217875
696.989500,0.230027
697.297280,0.229094
697.605020,0.228571
697.912720,0.223674
698.220380,0.228257
698.528000,0.227057
698.835580,0.228368
699.143120,0.225253
699.450620,0.225139
699.758080,0.223529
700.065500,0.221468
700.372880,0.222800
700.680220,0.220183
700.987520,0.220238
701.294780,0.223844
701.602000,0.230586
701.909180,0.226550
702.216320,0.219398
702.523420,0.224546
702.830480,0.226931
703.137500,0.221746
703.444480,0.228402
703.751420,0.224063
704.058320,0.227147
704.365180,0.227129
704.672000,0.230099
704.978780,0.222005
705.285520,0.221831
705.592220,0.218824
705.898880,0.223798
706.205500,0.223005
706.512080,0.230648
706.818620,0.232585
707.125120,0.222308
707.431580,0.224697
707.738000,0.222266
708.044380,0.219220
708.350720,0.224685
708.657020,0.223916
708.963280,0.224767
709.269500,0.221135
709.575680,0.220825
709.881820,0.224057
710.187920,0.229572
710.493980,0.225369
710.800000,0.221968
711.105980,0.219503
711.411920,0.216003
711.717820,0.221442
712.023680,0.223475
712.329500,0.222003
712.635280,0.229070
712.941020,0.223425
713.246720,0.223715
713.552380,0.222920
713.858000,0.225069
714.163580,0.223757
714.469120,0.220399
714.774620,0.222661
715.080080,0.223400
715.385500,0.222222
715.690880,0.215779
715.996220,0.217908
716.301520,0.220949
716.606780,0.224843
716.912000,0.218094
717.217180,0.220271
717.522320,0.220278
717.827420,0.227421
718.132480,0.219189
718.437500,0.215654
718.742480,0.217742
719.047420,0.219256
719.352320,0.227895
719.657180,0.223222
719.962000,0.216294
720.266780,0.221437
720.571520,0.217481
720.876220,0.217267
721.180880,0.212793
721.485500,0.218972
721.790080,0.218684
722.094620,0.217839
722.399120,0.224041
722.703580,0.219031
723.008000,0.213023
723.312380,0.215239
723.616720,0.215895
723.921020,0.216111
724.225280,0.219023
724.529500,0.218476
724.833680,0.223754
725.137820,0.218062
725.441920,0.218012
725.745980,0.217897
726.050000,0.220117
726.353980,0.206850
726.657920,0.211426
726.961820,0.215982
727.265680,0.217753
727.569500,0.220750
727.873280,0.213395
728.177020,0.222018
728.480720,0.214815
728.784380,0.218882
729.088000,0.214319
729.391580,0.217432
729.695120,0.218330
729.998620,0.217495
730.302080,0.217684
730.605500,0.207181
730.908880,0.212641
731.212220,0.216454
731.515520,0.214529
731.818780,0.213592
732.122000,0.218504
732.425180,0.215377
732.728320,0.214179
733.031420,0.210025
733.334480,0.219388
733.637500,0.213206
733.940480,0.211361
734.243420,0.215596
734.546320,0.217324
734.849180,0.212293
735.152000,0.215768
735.454780,0.209194
735.757520,0.212329
736.060220,0.214323
736.362880,0.215336
736.665500,0.210966
736.968080,0.218162
737.270620,0.215569
737.573120,0.215066
737.875580,0.221550
738.178000,0.212847
738.480380,0.211351
738.782720,0.215376
739.085020,0.213656
739.387280,0.206763
739.689500,0.214043
739.991680,0.215609
740.293820,0.219458
740.595920,0.213133
740.897980,0.209486
741.200000,0.208637
741.501980,0.215473
741.803920,0.211712
742.105820,0.210378
742.407680,0.214327
742.709500,0.209659
743.011280,0.217468
743.313020,0.212174
743.614720,0.209518
743.916380,0.209302
744.218000,0.209427
744.519580,0.213768
744.821120,0.224551
745.122620,0.215099
745.424080,0.212740
745.725500,0.214243
746.026880,0.213670
746.328220,0.213933
746.629520,0.205900
746.930780,0.212010
747.232000,0.216432
747.533180,0.212325
747.834320,0.207547
748.135420,0.207582
748.436480,0.212102
748.737500,0.208153
749.038480,0.205254
749.339420,0.212197
749.640320,0.209931
749.941180,0.202998
750.242000,0.199749
750.542780,0.211538
750.843520,0.212044
751.144220,0.210256
751.444880,0.212429
751.745500,0.209740
752.046080,0.212957
752.346620,0.201675
752.647120,0.202482
752.947580,0.206339
753.248000,0.210187
753.548380,0.205595
753.848720,0.206053
754.149020,0.202450
754.449280,0.209455
754.749500,0.205707
755.049680,0.206667
755.349820,0.208139
755.649920,0.209518
755.949980,0.209688
756.250000,0.216305
756.549980,0.205281
756.849920,0.208022
757.149820,0.204923
757.449680,0.207261
757.749500,0.212679
758.049280,0.206826
758.349020,0.200974
758.648720,0.207729
758.948380,0.204811
759.248000,0.211590
759.547580,0.204438
759.847120,0.208132
760.146620,0.199594
760.446080,0.209005
760.745500,0.206294
761.044880,0.208807
761.344220,0.210976
761.643520,0.206921
761.942780,0.208537
762.242000,0.206506
762.541180,0.207042
762.840320,0.213483
763.139420,0.197609
763.438480,0.208476
763.737500,0.201930
764.036480,0.210342
764.335420,0.208186
764.634320,0.207207
764.933180,0.204795
765.232000,0.210271
765.530780,0.204912
765.829520,0.201399
766.128220,0.209464
766.426880,0.208955
766.725500,0.209047
767.024080,0.203018
767.322620,0.204703
767.621120,0.199187
767.919580,0.201365
768.218000,0.209302
768.516380,0.206897
768.814720,0.203018
769.113020,0.206065
769.411280,0.209945
769.709500,0.201624
770.007680,0.200409
770.305820,0.200135
770.603920,0.202156
770.901980,0.202869
771.200000,0.199728
771.497980,0.197051
771.795920,0.204682
772.093820,0.198529
772.391680,0.212920
772.689500,0.210811
772.987280,0.200000
773.285020,0.196856
773.582720,0.208108
773.880380,0.212766
774.178000,0.207907
774.475580,0.207636
774.773120,0.199465
775.070620,0.206897
775.368080,0.204409
775.665500,0.198120
775.962880,0.195464
776.260220,0.202557
776.557520,0.202135
776.854780,0.203516
777.152000,0.196286
777.449180,0.206339
777.746320,0.197581
778.043420,0.206003
778.340480,0.202300
778.637500,0.204192
778.934480,0.195024
779.231420,0.200136
779.528320,0.201737
779.825180,0.197628
780.122000,0.196547
780.418780,0.208618
780.715520,0.199195
781.012220,0.209589
781.308880,0.198783
781.605500,0.203425
781.902080,0.203285
782.198620,0.205742
782.495120,0.202332
782.791580,0.199450
783.088000,0.198758
783.384380,0.198762
783.680720,0.198358
783.977020,0.194769
784.273280,0.202797
784.569500,0.199161
784.865680,0.201669
785.161820,0.197222
785.457920,0.200970
785.753980,0.196790
786.050000,0.196133
786.345980,0.202083
786.641920,0.197779
786.937820,0.205840
787.233680,0.187891
787.529500,0.194175
787.825280,0.205382
788.121020,0.202550
788.416720,0.198306
788.712380,0.195346
789.008000,0.199717
789.303580,0.196466
789.599120,0.202909
789.894620,0.200722
790.190080,0.195794
790.485500,0.197264
790.780880,0.194265
791.076220,0.205628
791.371520,0.200436
791.666780,0.202182
791.962000,0.197649
792.257180,0.193997
792.552320,0.200145
792.847420,0.200873
793.142480,0.202198
793.437500,0.195369
793.732480,0.194587
794.027420,0.196588
794.322320,0.204325
794.617180,0.197623
794.912000,0.201337
795.206780,0.189411
795.501520,0.192395
795.796220,0.197037
796.090880,0.195177
796.385500,0.191904
796.680080,0.193717
796.974620,0.203593
797.269120,0.193036
797.563580,0.196947
797.858000,0.198178
798.152380,0.203403
798.446720,0.199231
798.741020,0.197997
799.035280,0.194099
799.329500,0.197844
799.623680,0.191473
