399.985280,0.243243
400.329500,0.310811
400.673680,0.329114
401.017820,0.323529
401.361920,0.424242
401.705980,0.304878
402.050000,0.272727
402.393980,0.376471
402.737920,0.382022
403.081820,0.350515
403.425680,0.383721
403.769500,0.302083
404.113280,0.229885
404.457020,0.325843
404.800720,0.239130
405.144380,0.333333
405.488000,0.311828
405.831580,0.329897
406.175120,0.319149
406.518620,0.340000
406.862080,0.371134
407.205500,0.322917
407.548880,0.306122
407.892220,0.343137
408.235520,0.340426
408.578780,0.371429
408.922000,0.336538
409.265180,0.353535
409.608320,0.343434
409.951420,0.371134
410.294480,0.372549
410.637500,0.315217
410.980480,0.382353
411.323420,0.336735
411.666320,0.376147
412.009180,0.400000
412.352000,0.316832
412.694780,0.339450
413.037520,0.293578
413.380220,0.315315
413.722880,0.348214
414.065500,0.378378
414.408080,0.345133
414.750620,0.300885
415.093120,0.289256
415.435580,0.361345
415.778000,0.378788
416.120380,0.302521
416.462720,0.325397
416.805020,0.360902
417.147280,0.388060
417.489500,0.335714
417.831680,0.363014
418.173820,0.333333
418.515920,0.363636
418.857980,0.329114
419.200000,0.320513
419.541980,0.360947
419.883920,0.337079
420.225820,0.329480
420.567680,0.329609
420.909500,0.355191
421.251280,0.328125
421.593020,0.341837
421.934720,0.328283
422.276380,0.343590
422.618000,0.343137
422.959580,0.372549
423.301120,0.328767
423.642620,0.326087
423.984080,0.302326
424.325500,0.336323
424.666880,0.340517
425.008220,0.336134
425.349520,0.334746
425.690780,0.300000
426.032000,0.325490
426.373180,0.344398
426.714320,0.328125
427.055420,0.335907
427.396480,0.325843
427.737500,0.304348
428.078480,0.304348
428.419420,0.333333
428.760320,0.310345
429.101180,0.354331
429.442000,0.314176
429.782780,0.323077
430.123520,0.321569
430.464220,0.321033
430.804880,0.333333
431.145500,0.330909
431.486080,0.348315
431.826620,0.329457
432.167120,0.330882
432.507580,0.322464
432.848000,0.334532
433.188380,0.332130
433.528720,0.335849
433.869020,0.325000
434.209280,0.287719
434.549500,0.324042
434.889680,0.313131
435.229820,0.334471
435.569920,0.311419
435.909980,0.323625
436.250000,0.335593
436.589980,0.306502
436.929920,0.349206
437.269820,0.310345
437.609680,0.316568
437.949500,0.334337
438.289280,0.322946
438.629020,0.325581
438.968720,0.308140
439.308380,0.314363
439.648000,0.331507
439.987580,0.333333
440.327120,0.330667
440.666620,0.301299
441.006080,0.332481
441.345500,0.334152
441.684880,0.306220
442.024220,0.327543
442.363520,0.311905
442.702780,0.313636
443.042000,0.295154
443.381180,0.325431
443.720320,0.321814
444.059420,0.313025
444.398480,0.313808
444.737500,0.317623
445.076480,0.309524
445.415420,0.325349
445.754320,0.318087
446.093180,0.315596
446.432000,0.312030
446.770780,0.318786
447.109520,0.321691
447.448220,0.320215
447.786880,0.325581
448.125500,0.324138
448.464080,0.300000
448.802620,0.319149
449.141120,0.309689
449.479580,0.325175
449.818000,0.311532
450.156380,0.311037
450.494720,0.314050
450.833020,0.325175
451.171280,0.308219
451.509500,0.315331
451.847680,0.320405
452.185820,0.313253
452.523920,0.314433
452.861980,0.311973
453.200000,0.310631
453.537980,0.315966
453.875920,0.322689
454.213820,0.309932
454.551680,0.301325
454.889500,0.306914
455.227280,0.293594
455.565020,0.304858
455.902720,0.316140
456.240380,0.292845
456.578000,0.308362
456.915580,0.312608
457.253120,0.299342
457.590620,0.316913
457.928080,0.319865
458.265500,0.309122
458.602880,0.298701
458.940220,0.302876
459.277520,0.300800
459.614780,0.319149
459.952000,0.312112
460.289180,0.311709
460.626320,0.294488
460.963420,0.292407
461.300480,0.308869
461.637500,0.300462
461.974480,0.314985
462.311420,0.309985
462.648320,0.294290
462.985180,0.299857
463.322000,0.306548
463.658780,0.284530
463.995520,0.294360
464.332220,0.297784
464.668880,0.307796
465.005500,0.300268
465.342080,0.291933
465.678620,0.302583
466.015120,0.306598
466.351580,0.305942
466.688000,0.297199
467.024380,0.301337
467.360720,0.293182
467.697020,0.294989
468.033280,0.297778
468.369500,0.294702
468.705680,0.306652
469.041820,0.302083
469.377920,0.296095
469.713980,0.289392
470.050000,0.300483
470.385980,0.296477
470.721920,0.297747
471.057820,0.296296
471.393680,0.299345
471.729500,0.291937
472.065280,0.296959
472.401020,0.290780
472.736720,0.295812
473.072380,0.302513
473.408000,0.298520
473.743580,0.289792
474.079120,0.290267
474.414620,0.290076
474.750080,0.288039
475.085500,0.296053
475.420880,0.285595
475.756220,0.290270
476.091520,0.290708
476.426780,0.291262
476.762000,0.290426
477.097180,0.291200
477.432320,0.291599
477.767420,0.292484
478.102480,0.286614
478.437500,0.297209
478.772480,0.287628
479.107420,0.293735
479.442320,0.276579
479.777180,0.297534
480.112000,0.283513
480.446780,0.287607
480.781520,0.290660
481.116220,0.298302
481.450880,0.279469
481.785500,0.293513
482.120080,0.286834
482.454620,0.288267
482.789120,0.289013
483.123580,0.290498
483.458000,0.282437
483.792380,0.286741
484.126720,0.284170
484.461020,0.287276
484.795280,0.287587
485.129500,0.286828
485.463680,0.284496
485.797820,0.295490
486.131920,0.283856
486.465980,0.277992
486.800000,0.294656
487.133980,0.281722
487.467920,0.294568
487.801820,0.290618
488.135680,0.278999
488.469500,0.279879
488.803280,0.293462
489.137020,0.279121
489.470720,0.281899
489.804380,0.288790
490.138000,0.283383
490.471580,0.283714
490.805120,0.279485
491.138620,0.283582
491.472080,0.286219
491.805500,0.288703
492.138880,0.286310
492.472220,0.281661
492.805520,0.291201
493.138780,0.292212
493.472000,0.282943
493.805180,0.289905
494.138320,0.286858
494.471420,0.277344
494.804480,0.281371
495.137500,0.284981
495.470480,0.281708
495.803420,0.286524
496.136320,0.281955
496.469180,0.283610
496.802000,0.273839
497.134780,0.289266
497.467520,0.284404
497.800220,0.283019
498.132880,0.276308
498.465500,0.281576
498.798080,0.275114
499.130620,0.283549
499.463120,0.276249
499.795580,0.280528
500.128000,0.276294
500.460380,0.279871
500.792720,0.281548
501.125020,0.276406
501.457280,0.279373
501.789500,0.275826
502.121680,0.284085
502.453820,0.274860
502.785920,0.277139
503.117980,0.281158
503.450000,0.282270
503.781980,0.270055
504.113920,0.275012
504.445820,0.277103
504.777680,0.268706
505.109500,0.275962
505.441280,0.278681
505.773020,0.274307
506.104720,0.276967
506.436380,0.275438
506.768000,0.282039
507.099580,0.276888
507.431120,0.280562
507.762620,0.282895
508.094080,0.273017
508.425500,0.274510
508.756880,0.273434
509.088220,0.280129
509.419520,0.277002
509.750780,0.280225
510.082000,0.266791
510.413180,0.273146
510.744320,0.277957
511.075420,0.272227
511.406480,0.272685
511.737500,0.276852
512.068480,0.272556
512.399420,0.276526
512.730320,0.267898
513.061180,0.273073
513.392000,0.273071
513.722780,0.275216
514.053520,0.268328
514.384220,0.270219
514.714880,0.272379
515.045500,0.270115
515.376080,0.265375
515.706620,0.268875
516.037120,0.269118
516.367580,0.269098
516.698000,0.267157
517.028380,0.267130
517.358720,0.270123
517.689020,0.268051
518.019280,0.272955
518.349500,0.274202
518.679680,0.270570
519.009820,0.264170
519.339920,0.274048
519.669980,0.267202
520.000000,0.273561
520.329980,0.273717
520.659920,0.268405
520.989820,0.271414
521.319680,0.279321
521.649500,0.270951
521.979280,0.274530
522.309020,0.263485
522.638720,0.261649
522.968380,0.267839
523.298000,0.264092
523.627580,0.267460
523.957120,0.269610
524.286620,0.272538
524.616080,0.267322
524.945500,0.271835
525.274880,0.268343
525.604220,0.267081
525.933520,0.264675
526.262780,0.265585
526.592000,0.265348
526.921180,0.261554
527.250320,0.266870
527.579420,0.266801
527.908480,0.269818
528.237500,0.265144
528.566480,0.275449
528.895420,0.265155
529.224320,0.259039
529.553180,0.266506
529.882000,0.269586
530.210780,0.266892
530.539520,0.268936
530.868220,0.268550
531.196880,0.264214
531.525500,0.273608
531.854080,0.264071
532.182620,0.262027
532.511120,0.269142
532.839580,0.273593
533.168000,0.271650
533.496380,0.268037
533.824720,0.267384
534.153020,0.265716
534.481280,0.264317
534.809500,0.269569
535.137680,0.263889
535.465820,0.268471
535.793920,0.268190
536.121980,0.265632
536.450000,0.270613
536.777980,0.264349
537.105920,0.264840
537.433820,0.269231
537.761680,0.264898
538.089500,0.264670
538.417280,0.264226
538.745020,0.270206
539.072720,0.262007
539.400380,0.263015
539.728000,0.264245
540.055580,0.267041
540.383120,0.263589
540.710620,0.264509
541.038080,0.270380
541.365500,0.258824
541.692880,0.259811
542.020220,0.261605
542.347520,0.263819
542.674780,0.264644
543.002000,0.265220
543.329180,0.269730
543.656320,0.271449
543.983420,0.260855
544.310480,0.264356
544.637500,0.266462
544.964480,0.259758
545.291420,0.263543
545.618320,0.267596
545.945180,0.260053
546.272000,0.261468
546.598780,0.259587
546.925520,0.261128
547.252220,0.261472
547.578880,0.268817
547.905500,0.264052
548.232080,0.260884
548.558620,0.259681
548.885120,0.259405
549.211580,0.262617
549.538000,0.264267
549.864380,0.257878
550.190720,0.261866
550.517020,0.263364
550.843280,0.260586
551.169500,0.254135
551.495680,0.259527
551.821820,0.261920
552.147920,0.259271
552.473980,0.257491
552.800000,0.254088
553.125980,0.261297
553.451920,0.263106
553.777820,0.263824
554.103680,0.261544
554.429500,0.257784
554.755280,0.258344
555.081020,0.258021
555.406720,0.262445
555.732380,0.254490
556.058000,0.259674
556.383580,0.253680
556.709120,0.255686
557.034620,0.259042
557.360080,0.254922
557.685500,0.257607
558.010880,0.256153
558.336220,0.256239
558.661520,0.257001
558.986780,0.264352
559.312000,0.254630
559.637180,0.257810
559.962320,0.258455
560.287420,0.260226
560.612480,0.257983
560.937500,0.255507
561.262480,0.259897
561.587420,0.252811
561.912320,0.261238
562.237180,0.254626
562.562000,0.255892
562.886780,0.258640
563.211520,0.250745
563.536220,0.253432
563.860880,0.254621
564.185500,0.254034
564.510080,0.257336
564.834620,0.254931
565.159120,0.252256
565.483580,0.249715
565.808000,0.250473
566.132380,0.258486
566.456720,0.255858
566.781020,0.250563
567.105280,0.252174
567.429500,0.257967
567.753680,0.258535
568.077820,0.253189
568.401920,0.252865
568.725980,0.255787
569.050000,0.255513
569.373980,0.253521
569.697920,0.252939
570.021820,0.250936
570.345680,0.253349
570.669500,0.251431
570.993280,0.246585
571.317020,0.253197
571.640720,0.250834
571.964380,0.254640
572.288000,0.252226
572.611580,0.248970
572.935120,0.249906
573.258620,0.254675
573.582080,0.254098
573.905500,0.252420
574.228880,0.256125
574.552220,0.252840
574.875520,0.249069
575.198780,0.249729
575.522000,0.249267
575.845180,0.247135
576.168320,0.251886
576.491420,0.255451
576.814480,0.253165
577.137500,0.249278
577.460480,0.251178
577.783420,0.250089
578.106320,0.253917
578.429180,0.249205
578.752000,0.252171
579.074780,0.253203
579.397520,0.251775
579.720220,0.255148
580.042880,0.255699
580.365500,0.252813
580.688080,0.245251
581.010620,0.257847
581.333120,0.250835
581.655580,0.254412
581.978000,0.252411
582.300380,0.248296
582.622720,0.252472
582.945020,0.250975
583.267280,0.250733
583.589500,0.250722
583.911680,0.251826
584.233820,0.249607
584.555920,0.253388
584.877980,0.250314
585.200000,0.248312
585.521980,0.250850
585.843920,0.247712
586.165820,0.244059
586.487680,0.249774
586.809500,0.253525
587.131280,0.248743
587.453020,0.254167
587.774720,0.248078
588.096380,0.249125
588.418000,0.256365
588.739580,0.250647
589.061120,0.250144
589.382620,0.252722
589.704080,0.249369
590.025500,0.250856
590.346880,0.250141
590.668220,0.250070
590.989520,0.249307
591.310780,0.249379
591.632000,0.247541
591.953180,0.247993
592.274320,0.246792
592.595420,0.246498
592.916480,0.246400
593.237500,0.251954
593.558480,0.251816
593.879420,0.251956
594.200320,0.251272
594.521180,0.249402
594.842000,0.254164
595.162780,0.251603
595.483520,0.251529
595.804220,0.246778
596.124880,0.249400
596.445500,0.247315
596.766080,0.252487
597.086620,0.245223
597.407120,0.247235
597.727580,0.249006
598.048000,0.248611
598.368380,0.243030
598.688720,0.245347
599.009020,0.244692
599.329280,0.250665
599.649500,0.247491
599.969680,0.247596
600.289820,0.248665
600.609920,0.244723
600.929980,0.241048
601.250000,0.245405
601.569980,0.242776
601.889920,0.243250
602.209820,0.239177
602.529680,0.250206
602.849500,0.245772
603.169280,0.245522
603.489020,0.247993
603.808720,0.242732
604.128380,0.243377
604.448000,0.244751
604.767580,0.244134
605.087120,0.242382
605.406620,0.245172
605.726080,0.248075
606.045500,0.238785
606.364880,0.244967
606.684220,0.247287
607.003520,0.241972
607.322780,0.245594
607.642000,0.241815
607.961180,0.243712
608.280320,0.247100
608.599420,0.239861
608.918480,0.244282
609.237500,0.240904
609.556480,0.242675
609.875420,0.239811
610.194320,0.236788
610.513180,0.244451
610.832000,0.241513
611.150780,0.242115
611.469520,0.241629
611.788220,0.239420
612.106880,0.242762
612.425500,0.240865
612.744080,0.240382
613.062620,0.240061
613.381120,0.241316
613.699580,0.238811
614.018000,0.241708
614.336380,0.236582
614.654720,0.240930
614.973020,0.241592
615.291280,0.241401
615.609500,0.243740
615.927680,0.238566
616.245820,0.245207
616.563920,0.238732
616.881980,0.237293
617.200000,0.237947
617.517980,0.238021
617.835920,0.237962
618.153820,0.238110
618.471680,0.237519
618.789500,0.238515
619.107280,0.243505
619.425020,0.237552
619.742720,0.240427
620.060380,0.236290
620.378000,0.236627
620.695580,0.238186
621.013120,0.237795
621.330620,0.245058
621.648080,0.236278
621.965500,0.239962
622.282880,0.233922
622.600220,0.239103
622.917520,0.236925
623.234780,0.236901
623.552000,0.241248
623.869180,0.231957
624.186320,0.236549
624.503420,0.238245
624.820480,0.236255
625.137500,0.241554
625.454480,0.232573
625.771420,0.238335
626.088320,0.237074
626.405180,0.238021
626.722000,0.236198
627.038780,0.234962
627.355520,0.234375
627.672220,0.237014
627.988880,0.233281
628.305500,0.233094
628.622080,0.237608
628.938620,0.232416
629.255120,0.234287
629.571580,0.235366
629.888000,0.235041
630.204380,0.234735
630.520720,0.239183
630.837020,0.233734
631.153280,0.238010
631.469500,0.237113
631.785680,0.235986
632.101820,0.238239
632.417920,0.235469
632.733980,0.234694
633.050000,0.239236
633.365980,0.234143
633.681920,0.234785
633.997820,0.233712
634.313680,0.233559
634.629500,0.234444
634.945280,0.231965
635.261020,0.233637
635.576720,0.233999
635.892380,0.236712
636.208000,0.237653
636.523580,0.237650
636.839120,0.231616
637.154620,0.238261
637.470080,0.230990
637.785500,0.234467
638.100880,0.233999
638.416220,0.233822
638.731520,0.232092
639.046780,0.233615
639.362000,0.233372
639.677180,0.235294
639.992320,0.232591
640.307420,0.234055
640.622480,0.232708
640.937500,0.233842
641.252480,0.236805
641.567420,0.234442
641.882320,0.232739
642.197180,0.234980
642.512000,0.234257
642.826780,0.234397
643.141520,0.230620
643.456220,0.229109
643.770880,0.237148
644.085500,0.236445
644.400080,0.237640
644.714620,0.233278
645.029120,0.235424
645.343580,0.231487
645.658000,0.232306
645.972380,0.238696
646.286720,0.228673
646.601020,0.231110
646.915280,0.232794
647.229500,0.234615
647.543680,0.231428
647.857820,0.230663
648.171920,0.234129
648.485980,0.234859
648.800000,0.226784
649.113980,0.231984
649.427920,0.237171
649.741820,0.228634
650.055680,0.233681
650.369500,0.231783
650.683280,0.228080
650.997020,0.229648
651.310720,0.232526
651.624380,0.232143
651.938000,0.228255
652.251580,0.234623
652.565120,0.231973
652.878620,0.232827
653.192080,0.230899
653.505500,0.229173
653.818880,0.229741
654.132220,0.228995
654.445520,0.231140
654.758780,0.229745
655.072000,0.230086
655.385180,0.229101
655.698320,0.224636
656.011420,0.226999
656.324480,0.227630
656.637500,0.230301
656.950480,0.233118
657.263420,0.223766
657.576320,0.230062
657.889180,0.230905
658.202000,0.228563
658.514780,0.229533
658.827520,0.227491
659.140220,0.228948
659.452880,0.230746
659.765500,0.226972
660.078080,0.224496
660.390620,0.224565
660.703120,0.231592
661.015580,0.223313
661.328000,0.227330
661.640380,0.227710
661.952720,0.227032
662.265020,0.227158
662.577280,0.226781
662.889500,0.226742
663.201680,0.228781
663.513820,0.220328
663.825920,0.224784
664.137980,0.229800
664.450000,0.218990
664.761980,0.220949
665.073920,0.223953
665.385820,0.223495
665.697680,0.226777
666.009500,0.221151
666.321280,0.229954
666.633020,0.222074
666.944720,0.225480
667.256380,0.219044
667.568000,0.220448
667.879580,0.224150
668.191120,0.219780
668.502620,0.223554
668.814080,0.226667
669.125500,0.227506
669.436880,0.224758
669.748220,0.219107
670.059520,0.222689
670.370780,0.219207
670.682000,0.221593
670.993180,0.225863
671.304320,0.222574
671.615420,0.222301
671.926480,0.223563
672.237500,0.215791
672.548480,0.227111
672.859420,0.226590
673.170320,0.227058
673.481180,0.217958
673.792000,0.220339
674.102780,0.222980
674.413520,0.216916
674.724220,0.216697
675.034880,0.220755
675.345500,0.220277
675.656080,0.222505
675.966620,0.221535
676.277120,0.221164
676.587580,0.227172
676.898000,0.224711
677.208380,0.217745
677.518720,0.219548
677.829020,0.220621
678.139280,0.216086
678.449500,0.220943
678.759680,0.218434
679.069820,0.212268
679.379920,0.224066
679.689980,0.213145
680.000000,0.219813
680.309980,0.218634
680.619920,0.217721
680.929820,0.220231
681.239680,0.218612
681.549500,0.224815
681.859280,0.215086
682.169020,0.217083
682.478720,0.225505
682.788380,0.217054
683.098000,0.214286
683.407580,0.216886
683.717120,0.219219
684.026620,0.219880
684.336080,0.222054
684.645500,0.217733
684.954880,0.214205
685.264220,0.216308
685.573520,0.221545
685.882780,0.217108
686.192000,0.208804
686.501180,0.219448
686.810320,0.214450
687.119420,0.214367
687.428480,0.218002
687.737500,0.218726
688.046480,0.218942
688.355420,0.215768
688.664320,0.218439
688.973180,0.217458
689.282000,0.219136
689.590780,0.219325
689.899520,0.211166
690.208220,0.218272
690.516880,0.216877
690.825500,0.214717
691.134080,0.214503
691.442620,0.214177
691.751120,0.213879
692.059580,0.217425
692.368000,0.213934
692.676380,0.222137
692.984720,0.208397
693.293020,0.214286
693.601280,0.215567
693.909500,0.211880
694.217680,0.215537
694.525820,0.214395
694.833920,0.212896
695.141980,0.210953
695.450000,0.215649
695.757980,0.215814
696.065920,0.216699
696.373820,0.212856
696.681680,0.210587
696.989500,0.216905
697.297280,0.207312
697.605020,0.221429
697.912720,0.211760
698.220380,0.214482
698.528000,0.220332
698.835580,0.214540
699.143120,0.208885
699.450620,0.212411
699.758080,0.213333
700.065500,0.211891
700.372880,0.210800
700.680220,0.212605
700.987520,0.213095
701.294780,0.215734
701.602000,0.210777
701.909180,0.215421
702.216320,0.213531
702.523420,0.211918
702.830480,0.211485
703.137500,0.211613
703.444480,0.214990
703.751420,0.210256
704.058320,0.210526
704.365180,0.210962
704.672000,0.215842
704.978780,0.208740
705.285520,0.204225
705.592220,0.211373
705.898880,0.209220
706.205500,0.214397
706.512080,0.211295
706.818620,0.210139
707.125120,0.210000
707.431580,0.216100
707.738000,0.208594
708.044380,0.208414
708.350720,0.207872
708.657020,0.213755
708.963280,0.208075
709.269500,0.211742
709.575680,0.216110
709.881820,0.209906
710.187920,0.212062
710.493980,0.208689
710.800000,0.205187
711.105980,0.204443
711.411920,0.207726
711.717820,0.210916
712.023680,0.209483
712.329500,0.215694
712.635280,0.208140
712.941020,0.208349
713.246720,0.209486
713.552380,0.214286
713.858000,0.206543
714.163580,0.206788
714.469120,0.208675
714.774620,0.207264
715.080080,0.211229
715.385500,0.211031
715.690880,0.209467
715.996220,0.207607
716.301520,0.210672
716.606780,0.205582
716.912000,0.210824
717.217180,0.207502
717.522320,0.212326
717.827420,0.210740
718.132480,0.203934
718.437500,0.204240
718.742480,0.207258
719.047420,0.207120
719.352320,0.209631
719.657180,0.210957
719.962000,0.205542
720.266780,0.206897
720.571520,0.209611
720.876220,0.205401
721.180880,0.207776
721.485500,0.206853
721.790080,0.204246
722.094620,0.208405
722.399120,0.211116
722.703580,0.205315
723.008000,0.210867
723.312380,0.204046
723.616720,0.200595
723.921020,0.205717
724.225280,0.209424
724.529500,0.200963
724.833680,0.209075
725.137820,0.208370
725.441920,0.208203
725.745980,0.205369
726.050000,0.210194
726.353980,0.201893
726.657920,0.206028
726.961820,0.207306
727.265680,0.208044
727.569500,0.205210
727.873280,0.200462
728.177020,0.206357
728.480720,0.200926
728.784380,0.209018
729.088000,0.205370
729.391580,0.209379
729.695120,0.206334
729.998620,0.207457
730.302080,0.205190
730.605500,0.203785
730.908880,0.208231
731.212220,0.202253
731.515520,0.201853
731.818780,0.202427
732.122000,0.199803
732.425180,0.201084
732.728320,0.205255
733.031420,0.208020
733.334480,0.203061
733.637500,0.199597
733.940480,0.206244
734.243420,0.200306
734.546320,0.198133
734.849180,0.202479
735.152000,0.203320
735.454780,0.202996
735.757520,0.204426
736.060220,0.196946
736.362880,0.200105
736.665500,0.197389
736.968080,0.206341
737.270620,0.204137
737.573120,0.213974
737.875580,0.205607
738.178000,0.203593
738.480380,0.197838
738.782720,0.198473
739.085020,0.197687
739.387280,0.192905
739.689500,0.199887
739.991680,0.204941
740.293820,0.200663
740.595920,0.200890
740.897980,0.200452
741.200000,0.202468
741.501980,0.208023
741.803920,0.197072
742.105820,0.200226
742.407680,0.199767
742.709500,0.195455
743.011280,0.201641
743.313020,0.193623
743.614720,0.194428
743.916380,0.202326
744.218000,0.199881
744.519580,0.199275
744.821120,0.198802
745.122620,0.201917
745.424080,0.197115
745.725500,0.192517
746.026880,0.200123
746.328220,0.199753
746.629520,0.198675
746.930780,0.202819
747.232000,0.200490
747.533180,0.197682
747.834320,0.201461
748.135420,0.201367
748.436480,0.199626
748.737500,0.193329
749.038480,0.201588
749.339420,0.197884
749.640320,0.197989
749.941180,0.198001
750.242000,0.194095
750.542780,0.202854
750.843520,0.198591
751.144220,0.198077
751.444880,0.197844
751.745500,0.192208
752.046080,0.198845
752.346620,0.192655
752.647120,0.198563
752.947580,0.192755
753.248000,0.196003
753.548380,0.195836
753.848720,0.201545
754.149020,0.187621
754.449280,0.204202
754.749500,0.203052
755.049680,0.194667
755.349820,0.197465
755.649920,0.192994
755.949980,0.193762
756.250000,0.205786
756.549980,0.188119
756.849920,0.199864
757.149820,0.195609
757.449680,0.201320
757.749500,0.195637
758.049280,0.196587
758.349020,0.194019
758.648720,0.200828
758.948380,0.195876
759.248000,0.198787
759.547580,0.195696
759.847120,0.194349
760.146620,0.196211
760.446080,0.196237
760.745500,0.195105
761.044880,0.194602
761.344220,0.193870
761.643520,0.193503
761.942780,0.197341
762.242000,0.193069
762.541180,0.191549
762.840320,0.191713
763.139420,0.193390
763.438480,0.191388
763.737500,0.192281
764.036480,0.199161
764.335420,0.195483
764.634320,0.194040
764.933180,0.198630
765.232000,0.195697
765.530780,0.196491
765.829520,0.202098
766.128220,0.201113
766.426880,0.188344
766.725500,0.192598
767.024080,0.189300
767.322620,0.192254
767.621120,0.193767
767.919580,0.192491
768.218000,0.194938
768.516380,0.198107
768.814720,0.186557
769.113020,0.194349
769.411280,0.197514
769.709500,0.188769
770.007680,0.188139
770.305820,0.192698
770.603920,0.189353
770.901980,0.198087
771.200000,0.193614
771.497980,0.192359
771.795920,0.185953
772.093820,0.189171
772.391680,0.191826
772.689500,0.193919
772.987280,0.190572
773.285020,0.197539
773.582720,0.189865
773.880380,0.197666
774.178000,0.189502
774.475580,0.192900
774.773120,0.192771
775.070620,0.195402
775.368080,0.191717
775.665500,0.192075
775.962880,0.194129
776.260220,0.187752
776.557520,0.190127
776.854780,0.192698
777.152000,0.187666
777.449180,0.196898
777.746320,0.182124
778.043420,0.188950
778.340480,0.188769
778.637500,0.190669
778.934480,0.186954
779.231420,0.187246
779.528320,0.183033
779.825180,0.187088
780.122000,0.186587
780.418780,0.193570
780.715520,0.189805
781.012220,0.202055
781.308880,0.196078
781.605500,0.193836
781.902080,0.193018
782.198620,0.191388
782.495120,0.190672
782.791580,0.198074
783.088000,0.198758
783.384380,0.193260
783.680720,0.199726
783.977020,0.187199
784.273280,0.190210
784.569500,0.192173
784.865680,0.194715
785.161820,0.188889
785.457920,0.189189
785.753980,0.186322
786.050000,0.189227
786.345980,0.186806
786.641920,0.186676
786.937820,0.193020
787.233680,0.184412
787.529500,0.187240
787.825280,0.192635
788.121020,0.187677
788.416720,0.188426
788.712380,0.189704
789.008000,0.192635
789.303580,0.186572
789.599120,0.189818
789.894620,0.186282
790.190080,0.182741
790.485500,0.186465
790.780880,0.183513
791.076220,0.183983
791.371520,0.178649
791.666780,0.192000
791.962000,0.185893
792.257180,0.190337
792.552320,0.182016
792.847420,0.187045
793.142480,0.193407
793.437500,0.186686
793.732480,0.195318
794.027420,0.175816
794.322320,0.190157
794.617180,0.185736
794.912000,0.189450
795.206780,0.187174
795.501520,0.187072
795.796220,0.180741
796.090880,0.186888
796.385500,0.185907
796.680080,0.194465
796.974620,0.176647
797.269120,0.183195
797.563580,0.187023
797.858000,0.182992
798.152380,0.186388
798.446720,0.183846
798.741020,0.181818
799.035280,0.194099
799.329500,0.191686
799.623680,0.186047
