399.985280,0.283784
400.329500,0.391892
400.673680,0.265823
401.017820,0.308824
401.361920,0.333333
401.705980,0.292683
402.050000,0.298701
402.393980,0.341176
402.737920,0.348315
403.081820,0.319588
403.425680,0.360465
403.769500,0.270833
404.113280,0.264368
404.457020,0.359551
404.800720,0.391304
405.144380,0.343434
405.488000,0.344086
405.831580,0.391753
406.175120,0.319149
406.518620,0.300000
406.862080,0.391753
407.205500,0.281250
407.548880,0.367347
407.892220,0.313725
408.235520,0.361702
408.578780,0.428571
408.922000,0.355769
409.265180,0.373737
409.608320,0.323232
409.951420,0.422680
410.294480,0.401961
410.637500,0.391304
410.980480,0.382353
411.323420,0.316327
411.666320,0.330275
412.009180,0.372727
412.352000,0.287129
412.694780,0.330275
413.037520,0.366972
413.380220,0.315315
413.722880,0.312500
414.065500,0.351351
414.408080,0.362832
414.750620,0.353982
415.093120,0.363636
415.435580,0.361345
415.778000,0.333333
416.120380,0.403361
416.462720,0.404762
416.805020,0.330827
417.147280,0.343284
417.489500,0.342857
417.831680,0.321918
418.173820,0.326241
418.515920,0.356643
418.857980,0.360759
419.200000,0.365385
419.541980,0.366864
419.883920,0.342697
420.225820,0.346821
420.567680,0.357542
420.909500,0.344262
421.251280,0.312500
421.593020,0.336735
421.934720,0.338384
422.276380,0.338462
422.618000,0.377451
422.959580,0.348039
423.301120,0.356164
423.642620,0.313043
423.984080,0.316279
424.325500,0.372197
424.666880,0.336207
425.008220,0.327731
425.349520,0.360169
425.690780,0.296154
426.032000,0.286275
426.373180,0.348548
426.714320,0.367187
427.055420,0.324324
427.396480,0.329588
427.737500,0.320158
428.078480,0.320158
428.419420,0.325301
428.760320,0.340996
429.101180,0.362205
429.442000,0.352490
429.782780,0.319231
430.123520,0.329412
430.464220,0.324723
430.804880,0.348659
431.145500,0.349091
431.486080,0.329588
431.826620,0.360465
432.167120,0.319853
432.507580,0.340580
432.848000,0.320144
433.188380,0.335740
433.528720,0.347170
433.869020,0.300000
434.209280,0.298246
434.549500,0.327526
434.889680,0.329966
435.229820,0.324232
435.569920,0.325260
435.909980,0.323625
436.250000,0.338983
436.589980,0.337461
436.929920,0.352381
437.269820,0.322884
437.609680,0.310651
437.949500,0.331325
438.289280,0.351275
438.629020,0.345930
438.968720,0.316860
439.308380,0.319783
439.648000,0.320548
439.987580,0.343915
440.327120,0.338667
440.666620,0.329870
441.006080,0.340153
441.345500,0.321867
441.684880,0.327751
442.024220,0.305211
442.363520,0.321429
442.702780,0.320455
443.042000,0.325991
443.381180,0.323276
443.720320,0.347732
444.059420,0.304622
444.398480,0.311715
444.737500,0.329918
445.076480,0.309524
445.415420,0.317365
445.754320,0.316008
446.093180,0.326606
446.432000,0.312030
446.770780,0.322581
447.109520,0.329044
447.448220,0.311270
447.786880,0.313059
448.125500,0.327586
448.464080,0.310714
448.802620,0.329787
449.141120,0.311419
449.479580,0.321678
449.818000,0.306368
450.156380,0.316054
450.494720,0.307438
450.833020,0.319930
451.171280,0.316781
451.509500,0.313589
451.847680,0.322091
452.185820,0.314974
452.523920,0.328179
452.861980,0.315346
453.200000,0.313953
453.537980,0.307563
453.875920,0.322689
454.213820,0.308219
454.551680,0.314570
454.889500,0.313659
455.227280,0.311388
455.565020,0.319933
455.902720,0.312812
456.240380,0.316140
456.578000,0.320557
456.915580,0.319516
457.253120,0.307566
457.590620,0.313629
457.928080,0.318182
458.265500,0.319257
458.602880,0.318182
458.940220,0.318105
459.277520,0.304000
459.614780,0.324059
459.952000,0.293478
460.289180,0.308544
460.626320,0.316535
460.963420,0.305331
461.300480,0.301223
461.637500,0.314330
461.974480,0.310398
462.311420,0.305514
462.648320,0.313324
462.985180,0.298422
463.322000,0.322917
463.658780,0.296961
463.995520,0.308116
464.332220,0.295014
464.668880,0.307796
465.005500,0.317694
465.342080,0.290653
465.678620,0.291513
466.015120,0.310479
466.351580,0.314791
466.688000,0.315469
467.024380,0.306197
467.360720,0.309091
467.697020,0.305239
468.033280,0.310000
468.369500,0.303532
468.705680,0.302142
469.041820,0.302083
469.377920,0.291757
469.713980,0.306900
470.050000,0.291787
470.385980,0.304305
470.721920,0.300686
471.057820,0.307018
471.393680,0.302152
471.729500,0.295644
472.065280,0.308587
472.401020,0.301418
472.736720,0.297557
473.072380,0.303411
473.408000,0.301131
473.743580,0.297578
474.079120,0.297158
474.414620,0.295165
474.750080,0.296989
475.085500,0.304276
475.420880,0.297252
475.756220,0.295993
476.091520,0.294970
476.426780,0.296117
476.762000,0.286404
477.097180,0.296000
477.432320,0.298061
477.767420,0.296569
478.102480,0.292126
478.437500,0.303777
478.772480,0.296296
479.107420,0.296176
479.442320,0.298161
479.777180,0.307080
480.112000,0.285824
480.446780,0.288387
480.781520,0.296296
481.116220,0.299919
481.450880,0.290398
481.785500,0.304589
482.120080,0.294671
482.454620,0.293706
482.789120,0.304140
483.123580,0.290498
483.458000,0.295886
483.792380,0.300319
484.126720,0.291892
484.461020,0.297424
484.795280,0.289129
485.129500,0.293843
485.463680,0.285271
485.797820,0.297823
486.131920,0.296863
486.465980,0.294208
486.800000,0.295420
487.133980,0.283233
487.467920,0.293037
487.801820,0.298246
488.135680,0.292646
488.469500,0.291225
488.803280,0.284547
489.137020,0.284249
489.470720,0.284866
489.804380,0.291759
490.138000,0.300445
490.471580,0.291083
490.805120,0.290207
491.138620,0.279318
491.472080,0.286219
491.805500,0.285216
492.138880,0.291174
492.472220,0.287889
492.805520,0.288408
493.138780,0.290145
493.472000,0.286957
493.805180,0.296044
494.138320,0.284189
494.471420,0.289714
494.804480,0.283959
495.137500,0.285623
495.470480,0.291268
495.803420,0.280856
496.136320,0.296366
496.469180,0.284223
496.802000,0.283007
497.134780,0.287447
497.467520,0.289908
497.800220,0.284198
498.132880,0.285714
498.465500,0.287949
498.798080,0.282534
499.130620,0.294217
499.463120,0.282426
499.795580,0.284928
500.128000,0.286104
500.460380,0.280947
500.792720,0.285790
501.125020,0.281135
501.457280,0.283029
501.789500,0.282025
502.121680,0.289787
502.453820,0.287608
502.785920,0.279640
503.117980,0.286065
503.450000,0.287293
503.781980,0.295466
504.113920,0.281650
504.445820,0.278075
504.777680,0.281412
505.109500,0.283173
505.441280,0.282983
505.773020,0.281353
506.104720,0.279322
506.436380,0.286323
506.768000,0.284378
507.099580,0.279176
507.431120,0.276815
507.762620,0.283835
508.094080,0.280310
508.425500,0.285247
508.756880,0.283036
509.088220,0.282889
509.419520,0.278399
509.750780,0.282099
510.082000,0.281716
510.413180,0.278673
510.744320,0.280258
511.075420,0.285060
511.406480,0.276446
511.737500,0.273611
512.068480,0.276316
512.399420,0.279812
512.730320,0.272517
513.061180,0.275452
513.392000,0.277804
513.722780,0.278098
514.053520,0.277432
514.384220,0.277355
514.714880,0.280038
515.045500,0.279215
515.376080,0.278450
515.706620,0.283975
516.037120,0.276961
516.367580,0.282898
516.698000,0.271078
517.028380,0.280536
517.358720,0.273580
517.689020,0.279921
518.019280,0.275464
518.349500,0.281298
518.679680,0.278142
519.009820,0.279352
519.339920,0.289078
519.669980,0.273732
520.000000,0.278655
520.329980,0.276827
520.659920,0.270961
520.989820,0.279670
521.319680,0.282922
521.649500,0.280720
521.979280,0.282359
522.309020,0.274378
522.638720,0.270353
522.968380,0.281799
523.298000,0.277140
523.627580,0.276255
523.957120,0.278442
524.286620,0.276186
524.616080,0.276112
524.945500,0.278553
525.274880,0.276039
525.604220,0.270704
525.933520,0.271488
526.262780,0.273188
526.592000,0.270421
526.921180,0.267649
527.250320,0.268392
527.579420,0.273370
527.908480,0.271787
528.237500,0.272095
528.566480,0.272954
528.895420,0.275505
529.224320,0.277860
529.553180,0.270361
529.882000,0.273479
530.210780,0.271236
530.539520,0.272771
530.868220,0.272379
531.196880,0.272336
531.525500,0.278935
531.854080,0.270169
532.182620,0.270901
532.511120,0.276102
532.839580,0.274047
533.168000,0.269827
533.496380,0.271233
533.824720,0.268282
534.153020,0.273741
534.481280,0.265198
534.809500,0.271328
535.137680,0.270833
535.465820,0.271048
535.793920,0.266920
536.121980,0.273185
536.450000,0.273150
536.777980,0.275660
537.105920,0.271067
537.433820,0.268003
537.761680,0.268980
538.089500,0.270336
538.417280,0.269399
538.745020,0.272583
539.072720,0.268645
539.400380,0.274281
539.728000,0.269598
540.055580,0.268914
540.383120,0.272152
540.710620,0.273437
541.038080,0.272224
541.365500,0.273529
541.692880,0.275799
542.020220,0.266643
542.347520,0.274228
542.674780,0.266761
543.002000,0.267320
543.329180,0.276394
543.656320,0.276371
543.983420,0.269060
544.310480,0.265715
544.637500,0.268168
544.964480,0.263459
545.291420,0.273513
545.618320,0.272576
545.945180,0.267304
546.272000,0.265400
546.598780,0.272697
546.925520,0.269041
547.252220,0.268075
547.578880,0.267188
547.905500,0.266667
548.232080,0.266407
548.558620,0.261308
548.885120,0.270854
549.211580,0.264867
549.538000,0.274319
549.864380,0.268167
550.190720,0.267678
550.517020,0.265319
550.843280,0.270684
551.169500,0.263359
551.495680,0.262812
551.821820,0.269432
552.147920,0.266103
552.473980,0.267698
552.800000,0.265860
553.125980,0.270465
553.451920,0.268746
553.777820,0.267821
554.103680,0.265925
554.429500,0.260797
554.755280,0.261682
555.081020,0.269051
555.406720,0.264477
555.732380,0.263978
556.058000,0.266802
556.383580,0.265662
556.709120,0.261888
557.034620,0.259387
557.360080,0.263558
557.685500,0.265560
558.010880,0.258925
558.336220,0.261511
558.661520,0.268699
558.986780,0.267541
559.312000,0.258547
559.637180,0.257451
559.962320,0.264151
560.287420,0.264104
560.612480,0.258342
560.937500,0.259545
561.262480,0.259531
561.587420,0.260428
561.912320,0.260870
562.237180,0.259437
562.562000,0.260756
562.886780,0.259755
563.211520,0.259687
563.536220,0.258256
563.860880,0.262165
564.185500,0.264540
564.510080,0.263732
564.834620,0.264980
565.159120,0.256767
565.483580,0.253896
565.808000,0.261445
566.132380,0.260351
566.456720,0.258881
566.781020,0.259190
567.105280,0.250284
567.429500,0.259484
567.753680,0.258151
568.077820,0.257441
568.401920,0.255539
568.725980,0.261480
569.050000,0.258935
569.373980,0.261134
569.697920,0.258627
570.021820,0.255431
570.345680,0.262916
570.669500,0.258298
570.993280,0.256921
571.317020,0.253928
571.640720,0.257503
571.964380,0.257238
572.288000,0.255935
572.611580,0.260577
572.935120,0.250281
573.258620,0.256171
573.582080,0.258197
573.905500,0.259494
574.228880,0.261321
574.552220,0.252107
574.875520,0.258749
575.198780,0.256234
575.522000,0.257331
575.845180,0.253582
576.168320,0.254402
576.491420,0.261265
576.814480,0.256781
577.137500,0.257937
577.460480,0.257702
577.783420,0.256520
578.106320,0.258547
578.429180,0.254507
578.752000,0.251129
579.074780,0.258935
579.397520,0.254358
579.720220,0.256757
580.042880,0.259993
580.365500,0.255791
580.688080,0.261533
581.010620,0.255147
581.333120,0.258851
581.655580,0.260406
581.978000,0.254406
582.300380,0.258682
582.622720,0.267633
582.945020,0.259428
583.267280,0.254640
583.589500,0.253612
583.911680,0.256272
584.233820,0.249921
584.555920,0.260006
584.877980,0.259108
585.200000,0.253223
585.521980,0.252703
585.843920,0.253508
586.165820,0.253199
586.487680,0.253987
586.809500,0.250825
587.131280,0.249926
587.453020,0.260417
587.774720,0.259018
588.096380,0.254959
588.418000,0.258999
588.739580,0.259557
589.061120,0.255894
589.382620,0.251576
589.704080,0.252735
590.025500,0.254852
590.346880,0.256043
590.668220,0.252590
590.989520,0.254576
591.310780,0.251312
591.632000,0.258470
591.953180,0.253806
592.274320,0.255528
592.595420,0.255927
592.916480,0.255365
593.237500,0.255457
593.558480,0.259080
593.879420,0.257351
594.200320,0.257969
594.521180,0.253386
594.842000,0.255508
595.162780,0.255876
595.483520,0.256847
595.804220,0.255371
596.124880,0.254463
596.445500,0.253340
596.766080,0.259478
597.086620,0.257962
597.407120,0.249078
597.727580,0.257491
598.048000,0.255488
598.368380,0.254603
598.688720,0.254522
599.009020,0.254777
599.329280,0.253060
599.649500,0.251189
599.969680,0.249199
600.289820,0.253739
600.609920,0.248197
600.929980,0.252539
601.250000,0.252432
601.569980,0.248447
601.889920,0.251537
602.209820,0.253517
602.529680,0.252403
602.849500,0.249045
603.169280,0.250207
603.489020,0.255743
603.808720,0.250960
604.128380,0.251656
604.448000,0.251657
604.767580,0.247207
605.087120,0.245706
605.406620,0.249930
605.726080,0.248360
606.045500,0.249652
606.364880,0.246952
606.684220,0.247573
607.003520,0.250000
607.322780,0.248437
607.642000,0.248995
607.961180,0.246892
608.280320,0.248840
608.599420,0.242758
608.918480,0.246334
609.237500,0.251174
609.556480,0.249482
609.875420,0.246013
610.194320,0.243283
610.513180,0.245339
610.832000,0.242108
611.150780,0.250826
611.469520,0.245249
611.788220,0.244256
612.106880,0.241858
612.425500,0.246041
612.744080,0.251462
613.062620,0.247095
613.381120,0.248629
613.699580,0.248007
614.018000,0.243550
614.336380,0.247687
614.654720,0.245891
614.973020,0.242518
615.291280,0.246359
615.609500,0.246593
615.927680,0.247219
616.245820,0.242115
616.563920,0.242151
616.881980,0.245713
617.200000,0.245723
617.517980,0.244244
617.835920,0.241379
618.153820,0.240597
618.471680,0.242171
618.789500,0.243235
619.107280,0.243818
619.425020,0.245163
619.742720,0.241996
620.060380,0.243497
620.378000,0.247325
620.695580,0.244572
621.013120,0.241260
621.330620,0.244744
621.648080,0.241009
621.965500,0.244668
622.282880,0.245271
622.600220,0.242893
622.917520,0.242281
623.234780,0.242687
623.552000,0.247295
623.869180,0.243618
624.186320,0.243871
624.503420,0.240125
624.820480,0.244738
625.137500,0.244080
625.454480,0.245077
625.771420,0.244641
626.088320,0.246532
626.405180,0.243933
626.722000,0.241844
627.038780,0.238095
627.355520,0.240625
627.672220,0.243235
627.988880,0.240747
628.305500,0.235899
628.622080,0.245973
628.938620,0.241590
629.255120,0.245177
629.571580,0.238431
629.888000,0.238724
630.204380,0.241485
630.520720,0.240402
630.837020,0.241443
631.153280,0.242506
631.469500,0.243178
631.785680,0.241109
632.101820,0.240953
632.417920,0.236662
632.733980,0.238295
633.050000,0.248636
633.365980,0.237700
633.681920,0.241945
633.997820,0.239390
634.313680,0.239752
634.629500,0.241817
634.945280,0.239883
635.261020,0.240387
635.576720,0.241339
635.892380,0.241940
636.208000,0.241720
636.523580,0.240573
636.839120,0.237116
637.154620,0.235942
637.470080,0.239885
637.785500,0.245018
638.100880,0.243556
638.416220,0.247340
638.731520,0.238109
639.046780,0.241188
639.362000,0.239679
639.677180,0.235865
639.992320,0.239639
640.307420,0.236583
640.622480,0.244189
640.937500,0.238280
641.252480,0.245462
641.567420,0.240409
641.882320,0.243040
642.197180,0.241999
642.512000,0.242653
642.826780,0.234119
643.141520,0.236455
643.456220,0.240454
643.770880,0.241294
644.085500,0.238960
644.400080,0.241292
644.714620,0.239130
645.029120,0.237074
645.343580,0.238618
645.658000,0.240633
645.972380,0.244451
646.286720,0.234941
646.601020,0.243011
646.915280,0.238004
647.229500,0.240934
647.543680,0.236399
647.857820,0.236168
648.171920,0.236842
648.485980,0.236503
648.800000,0.233949
649.113980,0.235865
649.427920,0.239112
649.741820,0.237153
650.055680,0.234504
650.369500,0.238509
650.683280,0.236681
650.997020,0.235974
651.310720,0.233902
651.624380,0.229670
651.938000,0.235457
652.251580,0.234345
652.565120,0.233650
652.878620,0.238457
653.192080,0.234831
653.505500,0.234783
653.818880,0.233153
654.132220,0.235261
654.445520,0.232275
654.758780,0.231161
655.072000,0.232951
655.385180,0.228245
655.698320,0.233495
656.011420,0.232158
656.324480,0.233168
656.637500,0.232619
656.950480,0.230182
657.263420,0.233225
657.576320,0.229469
657.889180,0.237688
658.202000,0.232790
658.514780,0.235487
658.827520,0.233493
659.140220,0.233743
659.452880,0.232256
659.765500,0.230584
660.078080,0.228107
660.390620,0.231592
660.703120,0.231592
661.015580,0.233129
661.328000,0.230479
661.640380,0.235477
661.952720,0.229835
662.265020,0.231569
662.577280,0.226463
662.889500,0.230211
663.201680,0.230377
663.513820,0.230942
663.825920,0.231188
664.137980,0.233355
664.450000,0.226662
664.761980,0.228151
665.073920,0.223953
665.385820,0.234293
665.697680,0.224793
666.009500,0.233788
666.321280,0.229622
666.633020,0.228723
666.944720,0.227165
667.256380,0.225437
667.568000,0.224864
667.879580,0.229252
668.191120,0.227335
668.502620,0.225608
668.814080,0.231579
669.125500,0.227164
669.436880,0.226833
669.748220,0.224299
670.059520,0.227941
670.370780,0.234168
670.682000,0.231150
670.993180,0.229035
671.304320,0.222574
671.615420,0.220526
671.926480,0.223208
672.237500,0.225795
672.548480,0.224627
672.859420,0.229092
673.170320,0.233587
673.481180,0.228458
673.792000,0.223224
674.102780,0.223339
674.413520,0.230040
674.724220,0.221416
675.034880,0.226623
675.345500,0.222830
675.656080,0.227949
675.966620,0.233176
676.277120,0.227389
676.587580,0.226068
676.898000,0.227697
677.208380,0.226248
677.518720,0.220277
677.829020,0.228012
678.139280,0.226835
678.449500,0.227999
678.759680,0.222181
679.069820,0.224907
679.379920,0.219540
679.689980,0.223543
680.000000,0.221682
680.309980,0.226058
680.619920,0.221128
680.929820,0.228443
681.239680,0.221566
681.549500,0.225185
681.859280,0.224421
682.169020,0.227527
682.478720,0.225879
682.788380,0.221484
683.098000,0.224009
683.407580,0.223265
683.717120,0.222222
684.026620,0.222139
684.336080,0.226222
684.645500,0.220726
684.954880,0.220627
685.264220,0.219328
685.573520,0.224210
685.882780,0.227081
686.192000,0.222348
686.501180,0.219826
686.810320,0.220984
687.119420,0.226910
687.428480,0.225598
687.737500,0.221028
688.046480,0.219325
688.355420,0.219163
688.664320,0.219587
688.973180,0.218989
689.282000,0.216821
689.590780,0.216258
689.899520,0.216103
690.208220,0.222477
690.516880,0.224895
690.825500,0.223396
691.134080,0.219818
691.442620,0.218369
691.751120,0.216534
692.059580,0.222010
692.368000,0.218478
692.676380,0.221374
692.984720,0.217557
693.293020,0.218845
693.601280,0.216330
693.909500,0.219448
694.217680,0.223153
694.525820,0.224676
694.833920,0.220527
695.141980,0.223293
695.450000,0.221374
695.757980,0.220397
696.065920,0.219806
696.373820,0.217090
696.681680,0.220176
696.989500,0.223852
697.297280,0.214702
697.605020,0.221825
697.912720,0.214066
698.220380,0.218024
698.528000,0.220728
698.835580,0.217305
699.143120,0.213952
699.450620,0.220764
699.758080,0.217647
700.065500,0.217877
700.372880,0.213200
700.680220,0.216992
700.987520,0.221429
701.294780,0.223033
701.602000,0.218304
701.909180,0.219793
702.216320,0.213531
702.523420,0.216259
702.830480,0.218218
703.137500,0.217459
703.444480,0.220513
703.751420,0.218935
704.058320,0.214088
704.365180,0.217271
704.672000,0.217030
704.978780,0.217323
705.285520,0.218701
705.592220,0.213333
705.898880,0.217494
706.205500,0.218701
706.512080,0.212875
706.818620,0.214783
707.125120,0.214231
707.431580,0.214928
707.738000,0.222656
708.044380,0.211115
708.350720,0.210929
708.657020,0.217272
708.963280,0.218168
709.269500,0.218004
709.575680,0.215324
709.881820,0.215409
710.187920,0.212840
710.493980,0.220326
710.800000,0.217010
711.105980,0.216114
711.411920,0.209302
711.717820,0.213645
712.023680,0.212204
712.329500,0.214117
712.635280,0.220543
712.941020,0.214534
713.246720,0.212253
713.552380,0.217033
713.858000,0.210091
714.163580,0.215470
714.469120,0.219617
714.774620,0.213976
715.080080,0.213585
715.385500,0.214628
715.690880,0.214990
715.996220,0.209588
716.301520,0.211067
716.606780,0.208726
716.912000,0.213651
717.217180,0.217079
717.522320,0.215905
717.827420,0.212368
718.132480,0.210357
718.437500,0.217285
718.742480,0.207258
719.047420,0.207120
719.352320,0.212951
719.657180,0.210957
719.962000,0.214227
720.266780,0.208974
720.571520,0.211268
720.876220,0.204583
721.180880,0.210284
721.485500,0.218136
721.790080,0.211040
722.094620,0.213122
722.399120,0.208531
722.703580,0.214745
723.008000,0.209142
723.312380,0.207921
723.616720,0.211220
723.921020,0.216111
724.225280,0.207679
724.529500,0.211471
724.833680,0.218861
725.137820,0.210132
725.441920,0.206420
725.745980,0.205817
726.050000,0.210194
726.353980,0.210005
726.657920,0.204678
726.961820,0.211416
727.265680,0.211281
727.569500,0.208867
727.873280,0.206005
728.177020,0.207738
728.480720,0.209259
728.784380,0.211367
729.088000,0.210080
729.391580,0.207011
729.695120,0.208733
729.998620,0.212237
730.302080,0.205190
730.605500,0.207666
730.908880,0.202842
731.212220,0.214006
731.515520,0.204291
731.818780,0.204854
732.122000,0.211122
732.425180,0.205520
732.728320,0.202776
733.031420,0.209023
733.334480,0.207653
733.637500,0.200605
733.940480,0.205220
734.243420,0.214067
734.546320,0.210062
734.849180,0.205062
735.152000,0.206432
735.454780,0.205579
735.757520,0.208641
736.060220,0.205898
736.362880,0.210084
736.665500,0.207311
736.968080,0.212789
737.270620,0.205226
737.573120,0.204148
737.875580,0.212205
738.178000,0.208492
738.480380,0.208649
738.782720,0.206652
739.085020,0.202643
739.387280,0.206763
739.689500,0.210646
739.991680,0.202695
740.293820,0.201769
740.595920,0.205342
740.897980,0.201581
741.200000,0.207515
741.501980,0.209742
741.803920,0.199887
742.105820,0.204174
742.407680,0.206756
742.709500,0.200568
743.011280,0.201055
743.313020,0.202899
743.614720,0.201393
743.916380,0.204070
744.218000,0.208234
744.519580,0.207729
744.821120,0.204790
745.122620,0.204314
745.424080,0.201923
745.725500,0.207604
746.026880,0.204433
746.328220,0.205302
746.629520,0.198073
746.930780,0.208946
747.232000,0.207848
747.533180,0.203173
747.834320,0.206939
748.135420,0.210690
748.436480,0.201497
748.737500,0.202594
749.038480,0.202199
749.339420,0.201618
749.640320,0.201760
749.941180,0.200500
750.242000,0.195352
750.542780,0.202854
750.843520,0.203716
751.144220,0.198718
751.444880,0.203551
751.745500,0.196104
752.046080,0.202053
752.346620,0.201031
752.647120,0.198563
752.947580,0.200517
753.248000,0.198582
753.548380,0.204945
753.848720,0.202833
754.149020,0.193424
754.449280,0.200263
754.749500,0.195090
755.049680,0.194000
755.349820,0.200133
755.649920,0.204891
755.949980,0.193762
756.250000,0.193294
756.549980,0.196700
756.849920,0.199864
757.149820,0.200931
757.449680,0.205941
757.749500,0.199046
758.049280,0.198635
758.349020,0.200974
758.648720,0.199448
758.948380,0.201375
759.248000,0.199461
759.547580,0.201748
759.847120,0.200551
760.146620,0.198917
760.446080,0.204301
760.745500,0.199301
761.044880,0.193892
761.344220,0.198860
761.643520,0.198446
761.942780,0.203639
762.242000,0.201556
762.541180,0.195775
762.840320,0.200140
763.139420,0.202532
763.438480,0.202324
763.737500,0.202619
764.036480,0.206150
764.335420,0.198306
764.634320,0.197505
764.933180,0.194521
765.232000,0.201249
765.530780,0.197193
765.829520,0.201399
766.128220,0.200418
766.426880,0.201137
766.725500,0.195339
767.024080,0.196159
767.322620,0.201936
767.621120,0.193767
767.919580,0.193174
768.218000,0.195622
768.516380,0.200811
768.814720,0.200274
769.113020,0.199862
769.411280,0.200276
769.709500,0.198241
770.007680,0.191547
770.305820,0.201487
770.603920,0.192722
770.901980,0.197404
771.200000,0.198370
771.497980,0.200402
771.795920,0.191973
772.093820,0.195187
772.391680,0.196440
772.689500,0.192568
772.987280,0.200673
773.285020,0.202324
773.582720,0.193919
773.880380,0.199725
774.178000,0.198364
774.475580,0.192900
774.773120,0.196787
775.070620,0.193374
775.368080,0.201069
775.665500,0.190060
775.962880,0.196131
776.260220,0.199865
776.557520,0.197465
776.854780,0.200135
777.152000,0.188992
777.449180,0.198921
777.746320,0.184140
778.043420,0.195089
778.340480,0.188769
778.637500,0.187289
778.934480,0.188971
779.231420,0.185210
779.528320,0.186373
779.825180,0.190382
780.122000,0.193891
780.418780,0.201778
780.715520,0.193830
781.012220,0.192466
781.308880,0.190669
781.605500,0.189726
781.902080,0.201916
782.198620,0.191388
782.495120,0.198903
782.791580,0.201513
783.088000,0.193237
783.384380,0.195323
783.680720,0.201778
783.977020,0.189952
784.273280,0.195105
784.569500,0.187980
784.865680,0.197497
785.161820,0.198611
785.457920,0.194040
785.753980,0.182135
786.050000,0.193370
786.345980,0.195833
786.641920,0.197085
786.937820,0.200855
787.233680,0.182324
787.529500,0.192788
787.825280,0.200425
788.121020,0.195467
788.416720,0.189132
788.712380,0.193230
789.008000,0.193343
789.303580,0.187279
789.599120,0.193455
789.894620,0.186282
790.190080,0.197244
790.485500,0.191505
790.780880,0.185663
791.076220,0.184704
791.371520,0.188090
791.666780,0.195636
791.962000,0.194710
792.257180,0.191069
792.552320,0.195794
792.847420,0.195051
793.142480,0.198535
793.437500,0.193922
793.732480,0.190929
794.027420,0.189911
794.322320,0.186428
794.617180,0.186478
794.912000,0.188707
795.206780,0.188665
795.501520,0.188593
795.796220,0.185185
796.090880,0.188395
796.385500,0.189655
796.680080,0.192221
796.974620,0.194611
797.269120,0.190008
797.563580,0.192366
797.858000,0.184510
798.152380,0.190255
798.446720,0.194615
798.741020,0.188752
799.035280,0.187112
799.329500,0.192456
799.623680,0.193023
