399.985280,0.270270
400.329500,0.270270
400.673680,0.329114
401.017820,0.338235
401.361920,0.257576
401.705980,0.268293
402.050000,0.285714
402.393980,0.317647
402.737920,0.337079
403.081820,0.298969
403.425680,0.325581
403.769500,0.281250
404.113280,0.264368
404.457020,0.303371
404.800720,0.315217
405.144380,0.343434
405.488000,0.279570
405.831580,0.288660
406.175120,0.308511
406.518620,0.320000
406.862080,0.288660
407.205500,0.270833
407.548880,0.336735
407.892220,0.313725
408.235520,0.297872
408.578780,0.314286
408.922000,0.307692
409.265180,0.282828
409.608320,0.313131
409.951420,0.360825
410.294480,0.343137
410.637500,0.293478
410.980480,0.323529
411.323420,0.295918
411.666320,0.321101
412.009180,0.363636
412.352000,0.217822
412.694780,0.302752
413.037520,0.256881
413.380220,0.288288
413.722880,0.285714
414.065500,0.315315
414.408080,0.336283
414.750620,0.309735
415.093120,0.272727
415.435580,0.285714
415.778000,0.287879
416.120380,0.310924
416.462720,0.293651
416.805020,0.323308
417.147280,0.298507
417.489500,0.285714
417.831680,0.253425
418.173820,0.283688
418.515920,0.300699
418.857980,0.291139
419.200000,0.333333
419.541980,0.295858
419.883920,0.269663
420.225820,0.312139
420.567680,0.301676
420.909500,0.289617
421.251280,0.307292
421.593020,0.316327
421.934720,0.277778
422.276380,0.317949
422.618000,0.313725
422.959580,0.284314
423.301120,0.301370
423.642620,0.278261
423.984080,0.306977
424.325500,0.313901
424.666880,0.280172
425.008220,0.277311
425.349520,0.288136
425.690780,0.288462
426.032000,0.270588
426.373180,0.294606
426.714320,0.296875
427.055420,0.347490
427.396480,0.303371
427.737500,0.252964
428.078480,0.252964
428.419420,0.277108
428.760320,0.272031
429.101180,0.303150
429.442000,0.318008
429.782780,0.288462
430.123520,0.321569
430.464220,0.295203
430.804880,0.302682
431.145500,0.280000
431.486080,0.273408
431.826620,0.329457
432.167120,0.279412
432.507580,0.286232
432.848000,0.284173
433.188380,0.288809
433.528720,0.290566
433.869020,0.300000
434.209280,0.263158
434.549500,0.296167
434.889680,0.276094
435.229820,0.293515
435.569920,0.287197
435.909980,0.275081
436.250000,0.305085
436.589980,0.291022
436.929920,0.295238
437.269820,0.291536
437.609680,0.281065
437.949500,0.295181
438.289280,0.288952
438.629020,0.299419
438.968720,0.281977
439.308380,0.273713
439.648000,0.282192
439.987580,0.272487
440.327120,0.293333
440.666620,0.290909
441.006080,0.278772
441.345500,0.275184
441.684880,0.270335
442.024220,0.277916
442.363520,0.280952
442.702780,0.270455
443.042000,0.279736
443.381180,0.275862
443.720320,0.289417
444.059420,0.260504
444.398480,0.269874
444.737500,0.276639
445.076480,0.265873
445.415420,0.267465
445.754320,0.274428
446.093180,0.269725
446.432000,0.274436
446.770780,0.282732
447.109520,0.290441
447.448220,0.277281
447.786880,0.284436
448.125500,0.281034
448.464080,0.276786
448.802620,0.273050
449.141120,0.252595
449.479580,0.272727
449.818000,0.266781
450.156380,0.265886
450.494720,0.257851
450.833020,0.269231
451.171280,0.267123
451.509500,0.280488
451.847680,0.284992
452.185820,0.280551
452.523920,0.281787
452.861980,0.261383
453.200000,0.270764
453.537980,0.277311
453.875920,0.272269
454.213820,0.265411
454.551680,0.266556
454.889500,0.263069
455.227280,0.259786
455.565020,0.273032
455.902720,0.276206
456.240380,0.252912
456.578000,0.283972
456.915580,0.267703
457.253120,0.269737
457.590620,0.269294
457.928080,0.277778
458.265500,0.287162
458.602880,0.267857
458.940220,0.277496
459.277520,0.272000
459.614780,0.276596
459.952000,0.268634
460.289180,0.278481
460.626320,0.270866
460.963420,0.266559
461.300480,0.269113
461.637500,0.271186
461.974480,0.256881
462.311420,0.259314
462.648320,0.254758
462.985180,0.253945
463.322000,0.273810
463.658780,0.256906
463.995520,0.259972
464.332220,0.256233
464.668880,0.263441
465.005500,0.260054
465.342080,0.262484
465.678620,0.263223
466.015120,0.266494
466.351580,0.273072
466.688000,0.270402
467.024380,0.261239
467.360720,0.256818
467.697020,0.259681
468.033280,0.264444
468.369500,0.267108
468.705680,0.269448
469.041820,0.259375
469.377920,0.240781
469.713980,0.265705
470.050000,0.262802
470.385980,0.255382
470.721920,0.255632
471.057820,0.264133
471.393680,0.252572
471.729500,0.257646
472.065280,0.266547
472.401020,0.250887
472.736720,0.254799
473.072380,0.254937
473.408000,0.258486
473.743580,0.255190
474.079120,0.258398
474.414620,0.254453
474.750080,0.249797
475.085500,0.250000
475.420880,0.248127
475.756220,0.255928
476.091520,0.250639
476.426780,0.245955
476.762000,0.251810
477.097180,0.256800
477.432320,0.251212
477.767420,0.257353
478.102480,0.253543
478.437500,0.262726
478.772480,0.248227
479.107420,0.260374
479.442320,0.247002
479.777180,0.261734
480.112000,0.248844
480.446780,0.245518
480.781520,0.254428
481.116220,0.256265
481.450880,0.242779
481.785500,0.257911
482.120080,0.251567
482.454620,0.253302
482.789120,0.254777
483.123580,0.253115
483.458000,0.247627
483.792380,0.253994
484.126720,0.257143
484.461020,0.249024
484.795280,0.261372
485.129500,0.250974
485.463680,0.247287
485.797820,0.251944
486.131920,0.241010
486.465980,0.247876
486.800000,0.246565
487.133980,0.244713
487.467920,0.250191
487.801820,0.251716
488.135680,0.250948
488.469500,0.254917
488.803280,0.246657
489.137020,0.246886
489.470720,0.252967
489.804380,0.253898
490.138000,0.249258
490.471580,0.245394
490.805120,0.238027
491.138620,0.246624
491.472080,0.250883
491.805500,0.241980
492.138880,0.249479
492.472220,0.247751
492.805520,0.240922
493.138780,0.247416
493.472000,0.244147
493.805180,0.254434
494.138320,0.246164
494.471420,0.250000
494.804480,0.247736
495.137500,0.245186
495.470480,0.249203
495.803420,0.253778
496.136320,0.248120
496.469180,0.245549
496.802000,0.248778
497.134780,0.248636
497.467520,0.253211
497.800220,0.248231
498.132880,0.244562
498.465500,0.241599
498.798080,0.244292
499.130620,0.238630
499.463120,0.247614
499.795580,0.241474
500.128000,0.251226
500.460380,0.242734
500.792720,0.239130
501.125020,0.243826
501.457280,0.243342
501.789500,0.246384
502.121680,0.249870
502.453820,0.244263
502.785920,0.242621
503.117980,0.246811
503.450000,0.248117
503.781980,0.247135
504.113920,0.242769
504.445820,0.238211
504.777680,0.240941
505.109500,0.242308
505.441280,0.248566
505.773020,0.242837
506.104720,0.246350
506.436380,0.245622
506.768000,0.247895
507.099580,0.238902
507.431120,0.238407
507.762620,0.238252
508.094080,0.237010
508.425500,0.240896
508.756880,0.245999
509.088220,0.243790
509.419520,0.238361
509.750780,0.243205
510.082000,0.236474
510.413180,0.243206
510.744320,0.241601
511.075420,0.241063
511.406480,0.240244
511.737500,0.234722
512.068480,0.240602
512.399420,0.242254
512.730320,0.237875
513.061180,0.238820
513.392000,0.243256
513.722780,0.244476
514.053520,0.238620
514.384220,0.234063
514.714880,0.240785
515.045500,0.229885
515.376080,0.240678
515.706620,0.235753
516.037120,0.235294
516.367580,0.237555
516.698000,0.238235
517.028380,0.236842
517.358720,0.236049
517.689020,0.240356
518.019280,0.234822
518.349500,0.239230
518.679680,0.243311
519.009820,0.234312
519.339920,0.238477
519.669980,0.231542
520.000000,0.237901
520.329980,0.241576
520.659920,0.243865
520.989820,0.244066
521.319680,0.242284
521.649500,0.233933
521.979280,0.236430
522.309020,0.237033
522.638720,0.233999
522.968380,0.236815
523.298000,0.237996
523.627580,0.233833
523.957120,0.229091
524.286620,0.235018
524.616080,0.234747
524.945500,0.236176
525.274880,0.235505
525.604220,0.230849
525.933520,0.235849
526.262780,0.234668
526.592000,0.233891
526.921180,0.235145
527.250320,0.229833
527.579420,0.239515
527.908480,0.231905
528.237500,0.237835
528.566480,0.230040
528.895420,0.230655
529.224320,0.232789
529.553180,0.229398
529.882000,0.236496
530.210780,0.233108
530.539520,0.230585
530.868220,0.228818
531.196880,0.232203
531.525500,0.242131
531.854080,0.224672
532.182620,0.232602
532.511120,0.228770
532.839580,0.234574
533.168000,0.232908
533.496380,0.235616
533.824720,0.230597
534.153020,0.234507
534.481280,0.230837
534.809500,0.234828
535.137680,0.233073
535.465820,0.233247
535.793920,0.230964
536.121980,0.231221
536.450000,0.235095
536.777980,0.234185
537.105920,0.235782
537.433820,0.229542
537.761680,0.235510
538.089500,0.235127
538.417280,0.228810
538.745020,0.234945
539.072720,0.228426
539.400380,0.228827
539.728000,0.233652
540.055580,0.230337
540.383120,0.233060
540.710620,0.228051
541.038080,0.233862
541.365500,0.226103
541.692880,0.229651
542.020220,0.234977
542.347520,0.225413
542.674780,0.228299
543.002000,0.221833
543.329180,0.233602
543.656320,0.233826
543.983420,0.231111
544.310480,0.227659
544.637500,0.228932
544.964480,0.229812
545.291420,0.230641
545.618320,0.228752
545.945180,0.225445
546.272000,0.225426
546.598780,0.225172
546.925520,0.232443
547.252220,0.232420
547.578880,0.233952
547.905500,0.232353
548.232080,0.227420
548.558620,0.226163
548.885120,0.233235
549.211580,0.223722
549.538000,0.227626
549.864380,0.223151
550.190720,0.233129
550.517020,0.230443
550.843280,0.227687
551.169500,0.228053
551.495680,0.226018
551.821820,0.224037
552.147920,0.222837
552.473980,0.227856
552.800000,0.227600
553.125980,0.228553
553.451920,0.226941
553.777820,0.229847
554.103680,0.223458
554.429500,0.221627
554.755280,0.221963
555.081020,0.225936
555.406720,0.227227
555.732380,0.221959
556.058000,0.227427
556.383580,0.219103
556.709120,0.220882
557.034620,0.228384
557.360080,0.228670
557.685500,0.223721
558.010880,0.223224
558.336220,0.216520
558.661520,0.221907
558.986780,0.223955
559.312000,0.224003
559.637180,0.223698
559.962320,0.226059
560.287420,0.225317
560.612480,0.223179
560.937500,0.225771
561.262480,0.225440
561.587420,0.223069
561.912320,0.225129
562.237180,0.228719
562.562000,0.224467
562.886780,0.222222
563.211520,0.223547
563.536220,0.222263
563.860880,0.224821
564.185500,0.218011
564.510080,0.222724
564.834620,0.222553
565.159120,0.222556
565.483580,0.221209
565.808000,0.217177
566.132380,0.223797
566.456720,0.224112
566.781020,0.217929
567.105280,0.221550
567.429500,0.218513
567.753680,0.224779
568.077820,0.219559
568.401920,0.224217
568.725980,0.224288
569.050000,0.222053
569.373980,0.216978
569.697920,0.219188
570.021820,0.220225
570.345680,0.214313
570.669500,0.220527
570.993280,0.222591
571.317020,0.219583
571.640720,0.223046
571.964380,0.219376
572.288000,0.224407
572.611580,0.219393
572.935120,0.219229
573.258620,0.221765
573.582080,0.220939
573.905500,0.219657
574.228880,0.218263
574.552220,0.221326
574.875520,0.224125
575.198780,0.215757
575.522000,0.218842
575.845180,0.218481
576.168320,0.221344
576.491420,0.224927
576.814480,0.220615
577.137500,0.214646
577.460480,0.217470
577.783420,0.219007
578.106320,0.217593
578.429180,0.215270
578.752000,0.214658
579.074780,0.219488
579.397520,0.219496
579.720220,0.217825
580.042880,0.221341
580.365500,0.220715
580.688080,0.221506
581.010620,0.225110
581.333120,0.220775
581.655580,0.216117
581.978000,0.219488
582.300380,0.216813
582.622720,0.221160
582.945020,0.220416
583.267280,0.219147
583.589500,0.217657
583.911680,0.221023
584.233820,0.217816
584.555920,0.220611
584.877980,0.225188
585.200000,0.219767
585.521980,0.218412
585.843920,0.219036
586.165820,0.217855
586.487680,0.219079
586.809500,0.216922
587.131280,0.218279
587.453020,0.222917
587.774720,0.214075
588.096380,0.217620
588.418000,0.218028
588.739580,0.218741
589.061120,0.221679
589.382620,0.217192
589.704080,0.217391
590.025500,0.219749
590.346880,0.215852
590.668220,0.219546
590.989520,0.216861
591.310780,0.215134
591.632000,0.221311
591.953180,0.218101
592.274320,0.217581
592.595420,0.217672
592.916480,0.214344
593.237500,0.220156
593.558480,0.220608
593.879420,0.214459
594.200320,0.219127
594.521180,0.222842
594.842000,0.217356
595.162780,0.220085
595.483520,0.219622
595.804220,0.219656
596.124880,0.218758
596.445500,0.214566
596.766080,0.221565
597.086620,0.218949
597.407120,0.216430
597.727580,0.219040
598.048000,0.212642
598.368380,0.212783
598.688720,0.214417
599.009020,0.213376
599.329280,0.216871
599.649500,0.213682
599.969680,0.216613
600.289820,0.214209
600.609920,0.213732
600.929980,0.216195
601.250000,0.214595
601.569980,0.215771
601.889920,0.215985
602.209820,0.216991
602.529680,0.212579
602.849500,0.214675
603.169280,0.212731
603.489020,0.211182
603.808720,0.215304
604.128380,0.217715
604.448000,0.212155
604.767580,0.218156
605.087120,0.213019
605.406620,0.211867
605.726080,0.213288
606.045500,0.213151
606.364880,0.208959
606.684220,0.213592
607.003520,0.210436
607.322780,0.211200
607.642000,0.215393
607.961180,0.209887
608.280320,0.214617
608.599420,0.209154
608.918480,0.213196
609.237500,0.208627
609.556480,0.209234
609.875420,0.212050
610.194320,0.213463
610.513180,0.210713
610.832000,0.215307
611.150780,0.212977
611.469520,0.214480
611.788220,0.212817
612.106880,0.208384
612.425500,0.206151
612.744080,0.209295
613.062620,0.212232
613.381120,0.207191
613.699580,0.211527
614.018000,0.208538
614.336380,0.210981
614.654720,0.210543
614.973020,0.207343
615.291280,0.212581
615.609500,0.211410
615.927680,0.206119
616.245820,0.207483
616.563920,0.210755
616.881980,0.211413
617.200000,0.212753
617.517980,0.207218
617.835920,0.207518
618.153820,0.208579
618.471680,0.207442
618.789500,0.210824
619.107280,0.205008
619.425020,0.211227
619.742720,0.205587
620.060380,0.209339
620.378000,0.208622
620.695580,0.208493
621.013120,0.205039
621.330620,0.208033
621.648080,0.202524
621.965500,0.202949
622.282880,0.207125
622.600220,0.205622
622.917520,0.207624
623.234780,0.207972
623.552000,0.208784
623.869180,0.208951
624.186320,0.207896
624.503420,0.208777
624.820480,0.206723
625.137500,0.207768
625.454480,0.206314
625.771420,0.202711
626.088320,0.203657
626.405180,0.206596
626.722000,0.209222
627.038780,0.205201
627.355520,0.204375
627.672220,0.204666
627.988880,0.204355
628.305500,0.206606
628.622080,0.206010
628.938620,0.203976
629.255120,0.209085
629.571580,0.208397
629.888000,0.203743
630.204380,0.206505
630.520720,0.205667
630.837020,0.200740
631.153280,0.204736
631.469500,0.202244
631.785680,0.206751
632.101820,0.205066
632.417920,0.205365
632.733980,0.204082
633.050000,0.205882
633.365980,0.204505
633.681920,0.206742
633.997820,0.210102
634.313680,0.204070
634.629500,0.203480
634.945280,0.205279
635.261020,0.201644
635.576720,0.205226
635.892380,0.199535
636.208000,0.205694
636.523580,0.207249
636.839120,0.205848
637.154620,0.200000
637.470080,0.204304
637.785500,0.207503
638.100880,0.209673
638.416220,0.209088
638.731520,0.202579
639.046780,0.201573
639.362000,0.205562
639.677180,0.201885
639.992320,0.202988
640.307420,0.204833
640.622480,0.206105
640.937500,0.204716
641.252480,0.206088
641.567420,0.204035
641.882320,0.204900
642.197180,0.207468
642.512000,0.200672
642.826780,0.202774
643.141520,0.202278
643.456220,0.203652
643.770880,0.205915
644.085500,0.206260
644.400080,0.205899
644.714620,0.204292
645.029120,0.204345
645.343580,0.199671
645.658000,0.201776
645.972380,0.204988
646.286720,0.201417
646.601020,0.204262
646.915280,0.203181
647.229500,0.203297
647.543680,0.201049
647.857820,0.199835
648.171920,0.205914
648.485980,0.203069
648.800000,0.203086
649.113980,0.202882
649.427920,0.201942
649.741820,0.202253
650.055680,0.199945
650.369500,0.204316
650.683280,0.201165
650.997020,0.203245
651.310720,0.203357
651.624380,0.196703
651.938000,0.202493
652.251580,0.202895
652.565120,0.200671
652.878620,0.202140
653.192080,0.198876
653.505500,0.202525
653.818880,0.200171
654.132220,0.202791
654.445520,0.205048
654.758780,0.196884
655.072000,0.197135
655.385180,0.199429
655.698320,0.192912
656.011420,0.200344
656.324480,0.198484
656.637500,0.199305
656.950480,0.195537
657.263420,0.194206
657.576320,0.195079
657.889180,0.198172
658.202000,0.194746
658.514780,0.198273
658.827520,0.202881
659.140220,0.197183
659.452880,0.198127
659.765500,0.199579
660.078080,0.194102
660.390620,0.194928
660.703120,0.198900
661.015580,0.194785
661.328000,0.196159
661.640380,0.199751
661.952720,0.198381
662.265020,0.201323
662.577280,0.196247
662.889500,0.194891
663.201680,0.196235
663.513820,0.195883
663.825920,0.193724
664.137980,0.199095
664.450000,0.193734
664.761980,0.195090
665.073920,0.195067
665.385820,0.193390
665.697680,0.191736
666.009500,0.200200
666.321280,0.200133
666.633020,0.192819
666.944720,0.193461
667.256380,0.192127
667.568000,0.198030
667.879580,0.194898
668.191120,0.190934
668.502620,0.191715
668.814080,0.197544
669.125500,0.196031
669.436880,0.192600
669.748220,0.197300
670.059520,0.199580
670.370780,0.197286
670.682000,0.187257
670.993180,0.191332
671.304320,0.191280
671.615420,0.191761
671.926480,0.191980
672.237500,0.188996
672.548480,0.193400
672.859420,0.195854
673.170320,0.195140
673.481180,0.194786
673.792000,0.190408
674.102780,0.191023
674.413520,0.194677
674.724220,0.187296
675.034880,0.192153
675.345500,0.191831
675.656080,0.189474
675.966620,0.193889
676.277120,0.192603
676.587580,0.195140
676.898000,0.188876
677.208380,0.194085
677.518720,0.190372
677.829020,0.189579
678.139280,0.190511
678.449500,0.191608
678.759680,0.194080
679.069820,0.194424
679.379920,0.194266
679.689980,0.187523
680.000000,0.191028
680.309980,0.193764
680.619920,0.191215
680.929820,0.191489
681.239680,0.189439
681.549500,0.191852
681.859280,0.191934
682.169020,0.187617
682.478720,0.192595
682.788380,0.189369
683.098000,0.192221
683.407580,0.189869
683.717120,0.190315
684.026620,0.190136
684.336080,0.190981
684.645500,0.187804
684.954880,0.190404
685.264220,0.189128
685.573520,0.188809
685.882780,0.187956
686.192000,0.188864
686.501180,0.188422
686.810320,0.187164
687.119420,0.190422
687.428480,0.188378
687.737500,0.192249
688.046480,0.191718
688.355420,0.191249
688.664320,0.186687
688.973180,0.189893
689.282000,0.186728
689.590780,0.192101
689.899520,0.184960
690.208220,0.186927
690.516880,0.192058
690.825500,0.186792
691.134080,0.183371
691.442620,0.188262
691.751120,0.184680
692.059580,0.186855
692.368000,0.180613
692.676380,0.188168
692.984720,0.186641
693.293020,0.188450
693.601280,0.185807
693.909500,0.188044
694.217680,0.184692
694.525820,0.189261
694.833920,0.189241
695.141980,0.182800
695.450000,0.184351
695.757980,0.189076
696.065920,0.186408
696.373820,0.185142
696.681680,0.184503
696.989500,0.190660
697.297280,0.187865
697.605020,0.190476
697.912720,0.184858
698.220380,0.184573
698.528000,0.185522
698.835580,0.184907
699.143120,0.186672
699.450620,0.188942
699.758080,0.186667
700.065500,0.191540
700.372880,0.185600
700.680220,0.184284
700.987520,0.186508
701.294780,0.188159
701.602000,0.185024
701.909180,0.186804
702.216320,0.187329
702.523420,0.187056
702.830480,0.182178
703.137500,0.190179
703.444480,0.188560
703.751420,0.186588
704.058320,0.188366
704.365180,0.185331
704.672000,0.186931
704.978780,0.182989
705.285520,0.185446
705.592220,0.185098
705.898880,0.188337
706.205500,0.189358
706.512080,0.185229
706.818620,0.188080
707.125120,0.185385
707.431580,0.182884
707.738000,0.184375
708.044380,0.182941
708.350720,0.188766
708.657020,0.184447
708.963280,0.187888
709.269500,0.184736
709.575680,0.183104
709.881820,0.187500
710.187920,0.187938
710.493980,0.178821
710.800000,0.186117
711.105980,0.177711
711.411920,0.183287
711.717820,0.185575
712.023680,0.180334
712.329500,0.182965
712.635280,0.188760
712.941020,0.183997
713.246720,0.186957
713.552380,0.186421
713.858000,0.183287
714.163580,0.183110
714.469120,0.187964
714.774620,0.184366
715.080080,0.183353
715.385500,0.183853
715.690880,0.177909
715.996220,0.179873
716.301520,0.185771
716.606780,0.183962
716.912000,0.182553
717.217180,0.181165
717.522320,0.180517
717.827420,0.185110
718.132480,0.183460
718.437500,0.186302
718.742480,0.175403
719.047420,0.176375
719.352320,0.180158
719.657180,0.186836
719.962000,0.182796
720.266780,0.184047
720.571520,0.183513
720.876220,0.176350
721.180880,0.178512
721.485500,0.178019
721.790080,0.179618
722.094620,0.182247
722.399120,0.189143
722.703580,0.183883
723.008000,0.180681
723.312380,0.185536
723.616720,0.178071
723.921020,0.182330
724.225280,0.179319
724.529500,0.179510
724.833680,0.184164
725.137820,0.181938
725.441920,0.178778
725.745980,0.187919
726.050000,0.183581
726.353980,0.183867
726.657920,0.178587
726.961820,0.177169
727.265680,0.178918
727.569500,0.175960
727.873280,0.174596
728.177020,0.179180
728.480720,0.182870
728.784380,0.182715
729.088000,0.178992
729.391580,0.179062
729.695120,0.181862
729.998620,0.182122
730.302080,0.180202
730.605500,0.179039
730.908880,0.174424
731.212220,0.174829
731.515520,0.176499
731.818780,0.179612
732.122000,0.179134
732.425180,0.173977
732.728320,0.183937
733.031420,0.176441
733.334480,0.173980
733.637500,0.171371
733.940480,0.181167
734.243420,0.182467
734.546320,0.178942
734.849180,0.174070
735.152000,0.175830
735.454780,0.175620
735.757520,0.179136
736.060220,0.175882
736.362880,0.174370
736.665500,0.173368
736.968080,0.177861
737.270620,0.178552
737.573120,0.177402
737.875580,0.185267
738.178000,0.178008
738.480380,0.176757
738.782720,0.177208
739.085020,0.175661
739.387280,0.175166
739.689500,0.173839
739.991680,0.181359
740.293820,0.179104
740.595920,0.178075
740.897980,0.175607
741.200000,0.178351
741.501980,0.177650
741.803920,0.171171
742.105820,0.169769
742.407680,0.175306
742.709500,0.173295
743.011280,0.179953
743.313020,0.176232
743.614720,0.172374
743.916380,0.168605
744.218000,0.178998
744.519580,0.175725
744.821120,0.180240
745.122620,0.171959
745.424080,0.174880
745.725500,0.171998
746.026880,0.169335
746.328220,0.178175
746.629520,0.172185
746.930780,0.177083
747.232000,0.166769
747.533180,0.172666
747.834320,0.169811
748.135420,0.177750
748.436480,0.176544
748.737500,0.171093
749.038480,0.173488
749.339420,0.175482
749.640320,0.174104
749.941180,0.171768
750.242000,0.171482
750.542780,0.178660
750.843520,0.174888
751.144220,0.173077
751.444880,0.174382
751.745500,0.170130
752.046080,0.177037
752.346620,0.177191
752.647120,0.173089
752.947580,0.173351
753.248000,0.171502
753.548380,0.169161
753.848720,0.172569
754.149020,0.161186
754.449280,0.179251
754.749500,0.172528
755.049680,0.170000
755.349820,0.171448
755.649920,0.173166
755.949980,0.175182
756.250000,0.174227
756.549980,0.166997
756.849920,0.177430
757.149820,0.171657
757.449680,0.176238
757.749500,0.170416
758.049280,0.173379
758.349020,0.168985
758.648720,0.178744
758.948380,0.172509
759.248000,0.168464
759.547580,0.172159
759.847120,0.166782
760.146620,0.169147
760.446080,0.171371
760.745500,0.164336
761.044880,0.171165
761.344220,0.171062
761.643520,0.175141
761.942780,0.172848
762.242000,0.173975
762.541180,0.169014
762.840320,0.168539
763.139420,0.173699
763.438480,0.168831
763.737500,0.169538
764.036480,0.172607
764.335420,0.177135
764.634320,0.168399
764.933180,0.173288
765.232000,0.172797
765.530780,0.165614
765.829520,0.174126
766.128220,0.169798
766.426880,0.169865
766.725500,0.166552
767.024080,0.168724
767.322620,0.165284
767.621120,0.172087
767.919580,0.169283
768.218000,0.171683
768.516380,0.162948
768.814720,0.170096
769.113020,0.171606
769.411280,0.171271
769.709500,0.172530
770.007680,0.169734
770.305820,0.168357
770.603920,0.165768
770.901980,0.170765
771.200000,0.165082
771.497980,0.170912
771.795920,0.172575
772.093820,0.164439
772.391680,0.166117
772.689500,0.168243
772.987280,0.168350
773.285020,0.166097
773.582720,0.166216
773.880380,0.170213
774.178000,0.168371
774.475580,0.164769
774.773120,0.163989
775.070620,0.173090
775.368080,0.167669
775.665500,0.169913
775.962880,0.164777
776.260220,0.169583
776.557520,0.169446
776.854780,0.169709
777.152000,0.163793
777.449180,0.169252
777.746320,0.163978
778.043420,0.170532
778.340480,0.167794
778.637500,0.168357
778.934480,0.168796
779.231420,0.160109
779.528320,0.167669
779.825180,0.165349
780.122000,0.171979
780.418780,0.179891
780.715520,0.166331
781.012220,0.175342
781.308880,0.165652
781.605500,0.161644
781.902080,0.164271
782.198620,0.164730
782.495120,0.171468
782.791580,0.167813
783.088000,0.171153
783.384380,0.167125
783.680720,0.169631
783.977020,0.164487
784.273280,0.169231
784.569500,0.169113
784.865680,0.173853
785.161820,0.168750
785.457920,0.165627
785.753980,0.165387
786.050000,0.163674
786.345980,0.166667
786.641920,0.166551
786.937820,0.173789
787.233680,0.162143
787.529500,0.161581
787.825280,0.172805
788.121020,0.172805
788.416720,0.165843
788.712380,0.165021
789.008000,0.169263
789.303580,0.164664
789.599120,0.165091
789.894620,0.168953
790.190080,0.161711
790.485500,0.167027
790.780880,0.163441
791.076220,0.162338
791.371520,0.169935
791.666780,0.168727
791.962000,0.160911
792.257180,0.163982
792.552320,0.161711
792.847420,0.169578
793.142480,0.168498
793.437500,0.161360
793.732480,0.161668
794.027420,0.167656
794.322320,0.164802
794.617180,0.162704
794.912000,0.164933
795.206780,0.163311
795.501520,0.171863
795.796220,0.159259
796.090880,0.167295
796.385500,0.154423
796.680080,0.164547
796.974620,0.166916
797.269120,0.161998
797.563580,0.162595
797.858000,0.169324
798.152380,0.166280
798.446720,0.161538
798.741020,0.161017
799.035280,0.161491
799.329500,0.167052
799.623680,0.170543
