399.985280,0.297297
400.329500,0.229730
400.673680,0.202532
401.017820,0.264706
401.361920,0.212121
401.705980,0.231707
402.050000,0.181818
402.393980,0.317647
402.737920,0.269663
403.081820,0.247423
403.425680,0.279070
403.769500,0.239583
404.113280,0.275862
404.457020,0.258427
404.800720,0.282609
405.144380,0.272727
405.488000,0.268817
405.831580,0.175258
406.175120,0.287234
406.518620,0.300000
406.862080,0.288660
407.205500,0.218750
407.548880,0.265306
407.892220,0.196078
408.235520,0.329787
408.578780,0.333333
408.922000,0.298077
409.265180,0.262626
409.608320,0.222222
409.951420,0.278351
410.294480,0.333333
410.637500,0.282609
410.980480,0.362745
411.323420,0.255102
411.666320,0.275229
412.009180,0.318182
412.352000,0.257426
412.694780,0.256881
413.037520,0.229358
413.380220,0.288288
413.722880,0.294643
414.065500,0.288288
414.408080,0.256637
414.750620,0.238938
415.093120,0.247934
415.435580,0.310924
415.778000,0.265152
416.120380,0.277311
416.462720,0.277778
416.805020,0.270677
417.147280,0.268657
417.489500,0.307143
417.831680,0.273973
418.173820,0.241135
418.515920,0.258741
418.857980,0.234177
419.200000,0.256410
419.541980,0.289941
419.883920,0.292135
420.225820,0.265896
420.567680,0.273743
420.909500,0.284153
421.251280,0.281250
421.593020,0.244898
421.934720,0.267677
422.276380,0.246154
422.618000,0.289216
422.959580,0.279412
423.301120,0.255708
423.642620,0.217391
423.984080,0.269767
424.325500,0.228700
424.666880,0.254310
425.008220,0.235294
425.349520,0.275424
425.690780,0.273077
426.032000,0.223529
426.373180,0.278008
426.714320,0.265625
427.055420,0.254826
427.396480,0.254682
427.737500,0.245059
428.078480,0.268775
428.419420,0.273092
428.760320,0.260536
429.101180,0.295276
429.442000,0.252874
429.782780,0.269231
430.123520,0.262745
430.464220,0.236162
430.804880,0.298851
431.145500,0.250909
431.486080,0.258427
431.826620,0.279070
432.167120,0.250000
432.507580,0.275362
432.848000,0.269784
433.188380,0.249097
433.528720,0.275472
433.869020,0.239286
434.209280,0.231579
434.549500,0.261324
434.889680,0.259259
435.229820,0.255973
435.569920,0.256055
435.909980,0.249191
436.250000,0.267797
436.589980,0.241486
436.929920,0.250794
437.269820,0.253918
437.609680,0.257396
437.949500,0.243976
438.289280,0.266289
438.629020,0.267442
438.968720,0.273256
439.308380,0.241192
439.648000,0.257534
439.987580,0.261905
440.327120,0.269333
440.666620,0.249351
441.006080,0.242967
441.345500,0.248157
441.684880,0.253589
442.024220,0.243176
442.363520,0.226190
442.702780,0.229545
443.042000,0.253304
443.381180,0.267241
443.720320,0.261339
444.059420,0.258403
444.398480,0.242678
444.737500,0.245902
445.076480,0.246032
445.415420,0.235529
445.754320,0.245322
446.093180,0.240367
446.432000,0.257519
446.770780,0.235294
447.109520,0.246324
447.448220,0.248658
447.786880,0.262970
448.125500,0.253448
448.464080,0.244643
448.802620,0.253546
449.141120,0.247405
449.479580,0.251748
449.818000,0.261618
450.156380,0.237458
450.494720,0.247934
450.833020,0.250000
451.171280,0.234589
451.509500,0.254355
451.847680,0.264755
452.185820,0.254733
452.523920,0.254296
452.861980,0.252951
453.200000,0.242525
453.537980,0.243697
453.875920,0.252101
454.213820,0.241438
454.551680,0.250000
454.889500,0.244519
455.227280,0.241993
455.565020,0.257956
455.902720,0.261231
456.240380,0.234609
456.578000,0.252613
456.915580,0.248705
457.253120,0.238487
457.590620,0.254516
457.928080,0.240741
458.265500,0.246622
458.602880,0.246753
458.940220,0.241963
459.277520,0.238400
459.614780,0.245499
459.952000,0.250000
460.289180,0.251582
460.626320,0.233071
460.963420,0.243942
461.300480,0.249235
461.637500,0.240370
461.974480,0.255352
462.311420,0.242921
462.648320,0.237189
462.985180,0.238164
463.322000,0.245536
463.658780,0.229282
463.995520,0.236589
464.332220,0.229917
464.668880,0.237903
465.005500,0.245308
465.342080,0.240717
465.678620,0.239852
466.015120,0.241915
466.351580,0.242731
466.688000,0.244823
467.024380,0.238153
467.360720,0.235227
467.697020,0.246014
468.033280,0.255556
468.369500,0.243929
468.705680,0.242390
469.041820,0.242708
469.377920,0.233189
469.713980,0.247168
470.050000,0.237681
470.385980,0.231898
470.721920,0.230167
471.057820,0.240741
471.393680,0.228251
471.729500,0.231696
472.065280,0.234347
472.401020,0.234043
472.736720,0.237347
473.072380,0.237882
473.408000,0.234117
473.743580,0.233564
474.079120,0.244617
474.414620,0.225615
474.750080,0.231896
475.085500,0.233553
475.420880,0.228976
475.756220,0.235487
476.091520,0.241262
476.426780,0.229773
476.762000,0.231698
477.097180,0.240800
477.432320,0.237480
477.767420,0.234477
478.102480,0.233071
478.437500,0.241379
478.772480,0.230102
479.107420,0.218877
479.442320,0.231015
479.777180,0.228321
480.112000,0.222650
480.446780,0.229150
480.781520,0.226248
481.116220,0.233630
481.450880,0.219360
481.785500,0.231013
482.120080,0.231191
482.454620,0.229215
482.789120,0.232484
483.123580,0.229751
483.458000,0.227057
483.792380,0.238019
484.126720,0.227799
484.461020,0.227947
484.795280,0.227448
485.129500,0.234606
485.463680,0.220155
485.797820,0.230949
486.131920,0.218822
486.465980,0.228571
486.800000,0.234351
487.133980,0.227341
487.467920,0.223412
487.801820,0.236461
488.135680,0.225929
488.469500,0.229198
488.803280,0.228826
489.137020,0.220513
489.470720,0.221068
489.804380,0.224944
490.138000,0.224777
490.471580,0.232130
490.805120,0.221587
491.138620,0.217484
491.472080,0.226148
491.805500,0.224547
492.138880,0.217512
492.472220,0.227682
492.805520,0.226955
493.138780,0.228119
493.472000,0.230100
493.805180,0.233288
494.138320,0.224149
494.471420,0.224609
494.804480,0.225097
495.137500,0.218870
495.470480,0.224347
495.803420,0.222292
496.136320,0.229950
496.469180,0.222836
496.802000,0.222494
497.134780,0.222559
497.467520,0.240979
497.800220,0.229953
498.132880,0.228101
498.465500,0.220162
498.798080,0.212900
499.130620,0.229085
499.463120,0.221224
499.795580,0.222772
500.128000,0.219619
500.460380,0.222820
500.792720,0.225345
501.125020,0.222281
501.457280,0.215666
501.789500,0.221074
502.121680,0.224469
502.453820,0.223355
502.785920,0.223612
503.117980,0.230128
503.450000,0.227524
503.781980,0.225212
504.113920,0.220958
504.445820,0.221196
504.777680,0.222118
505.109500,0.220192
505.441280,0.225621
505.773020,0.218412
506.104720,0.220443
506.436380,0.218646
506.768000,0.218428
507.099580,0.216476
507.431120,0.220141
507.762620,0.224154
508.094080,0.216500
508.425500,0.224090
508.756880,0.218564
509.088220,0.218031
509.419520,0.219274
509.750780,0.213215
510.082000,0.216884
510.413180,0.216490
510.744320,0.218592
511.075420,0.221357
511.406480,0.218148
511.737500,0.218981
512.068480,0.219925
512.399420,0.220188
512.730320,0.213857
513.061180,0.218363
513.392000,0.214387
513.722780,0.216619
514.053520,0.216579
514.384220,0.216461
514.714880,0.223552
515.045500,0.211207
515.376080,0.220339
515.706620,0.213346
516.037120,0.218137
516.367580,0.213406
516.698000,0.212255
517.028380,0.214995
517.358720,0.213827
517.689020,0.219090
518.019280,0.218766
518.349500,0.217435
518.679680,0.212519
519.009820,0.217611
519.339920,0.218938
519.669980,0.212958
520.000000,0.218034
520.329980,0.215137
520.659920,0.212168
520.989820,0.218782
521.319680,0.210905
521.649500,0.215424
521.979280,0.217641
522.309020,0.213693
522.638720,0.206861
522.968380,0.216649
523.298000,0.219207
523.627580,0.208484
523.957120,0.214026
524.286620,0.217301
524.616080,0.216649
524.945500,0.216537
525.274880,0.216521
525.604220,0.212215
525.933520,0.214361
526.262780,0.212874
526.592000,0.211060
526.921180,0.212291
527.250320,0.212075
527.579420,0.218797
527.908480,0.214673
528.237500,0.214995
528.566480,0.213074
528.895420,0.212420
529.224320,0.206043
529.553180,0.210602
529.882000,0.215572
530.210780,0.213803
530.539520,0.216683
530.868220,0.214935
531.196880,0.208791
531.525500,0.223245
531.854080,0.204972
532.182620,0.212518
532.511120,0.206497
532.839580,0.210526
533.168000,0.212397
533.496380,0.215525
533.824720,0.209960
534.153020,0.213999
534.481280,0.207930
534.809500,0.208443
535.137680,0.209201
535.465820,0.212629
535.793920,0.212352
536.121980,0.210659
536.450000,0.213953
536.777980,0.209887
537.105920,0.214612
537.433820,0.214812
537.761680,0.210612
538.089500,0.210846
538.417280,0.206128
538.745020,0.208796
539.072720,0.209684
539.400380,0.216006
539.728000,0.214914
540.055580,0.208989
540.383120,0.208488
540.710620,0.214286
541.038080,0.206197
541.365500,0.206618
541.692880,0.211483
542.020220,0.205470
542.347520,0.212132
542.674780,0.208892
543.002000,0.208537
543.329180,0.212557
543.656320,0.210267
543.983420,0.210940
544.310480,0.209990
544.637500,0.211873
544.964480,0.207941
545.291420,0.206381
545.618320,0.210159
545.945180,0.207647
546.272000,0.207405
546.598780,0.208456
546.925520,0.205407
547.252220,0.212942
547.578880,0.211470
547.905500,0.207843
548.232080,0.206953
548.558620,0.211845
548.885120,0.206739
549.211580,0.204114
549.538000,0.207198
549.864380,0.207717
550.190720,0.207620
550.517020,0.208279
550.843280,0.211726
551.169500,0.206743
551.495680,0.207950
551.821820,0.208361
552.147920,0.207547
552.473980,0.209088
552.800000,0.205363
553.125980,0.207597
553.451920,0.208029
553.777820,0.207195
554.103680,0.208628
554.429500,0.207901
554.755280,0.202603
555.081020,0.202540
555.406720,0.201151
555.732380,0.205354
556.058000,0.205703
556.383580,0.204724
556.709120,0.204686
557.034620,0.202894
557.360080,0.204491
557.685500,0.202974
558.010880,0.202773
558.336220,0.200351
558.661520,0.206310
558.986780,0.202693
559.312000,0.198006
559.637180,0.205027
559.962320,0.205411
560.287420,0.207334
560.612480,0.203445
560.937500,0.200808
561.262480,0.196848
561.587420,0.204207
561.912320,0.202653
562.237180,0.201702
562.562000,0.202768
562.886780,0.206615
563.211520,0.203800
563.536220,0.194063
563.860880,0.202942
564.185500,0.203377
564.510080,0.203913
564.834620,0.199851
565.159120,0.203008
565.483580,0.201444
565.808000,0.205070
566.132380,0.197314
566.456720,0.204460
566.781020,0.203676
567.105280,0.202268
567.429500,0.202580
567.753680,0.200230
568.077820,0.198299
568.401920,0.203209
568.725980,0.203416
569.050000,0.209125
569.373980,0.197564
569.697920,0.199090
570.021820,0.204494
570.345680,0.203215
570.669500,0.199924
570.993280,0.201181
571.317020,0.202777
571.640720,0.201186
571.964380,0.198589
572.288000,0.195846
572.611580,0.201423
572.935120,0.197531
573.258620,0.195961
573.582080,0.203055
573.905500,0.199926
574.228880,0.203415
574.552220,0.198241
574.875520,0.201787
575.198780,0.193712
575.522000,0.202713
575.845180,0.199857
576.168320,0.195113
576.491420,0.202398
576.814480,0.198553
577.137500,0.200938
577.460480,0.198260
577.783420,0.202215
578.106320,0.203348
578.429180,0.196536
578.752000,0.197638
579.074780,0.200270
579.397520,0.199161
579.720220,0.202059
580.042880,0.200529
580.365500,0.198544
580.688080,0.202171
581.010620,0.198448
581.333120,0.200735
581.655580,0.199134
581.978000,0.198204
582.300380,0.199286
582.622720,0.197429
582.945020,0.202211
583.267280,0.199284
583.589500,0.202247
583.911680,0.205462
584.233820,0.195782
584.555920,0.199496
584.877980,0.194724
585.200000,0.196746
585.521980,0.198641
585.843920,0.199512
586.165820,0.195612
586.487680,0.202227
586.809500,0.192919
587.131280,0.195800
587.453020,0.197321
587.774720,0.196629
588.096380,0.198658
588.418000,0.198712
588.739580,0.200345
589.061120,0.196090
589.382620,0.197708
589.704080,0.200000
590.025500,0.202340
590.346880,0.198707
590.668220,0.198544
590.989520,0.194398
591.310780,0.198012
591.632000,0.196721
591.953180,0.197066
592.274320,0.194103
592.595420,0.194235
592.916480,0.196686
593.237500,0.196982
593.558480,0.196664
593.879420,0.200701
594.200320,0.199036
594.521180,0.193094
594.842000,0.202042
595.162780,0.200053
595.483520,0.195427
595.804220,0.201128
596.124880,0.197442
596.445500,0.198847
596.766080,0.199785
597.086620,0.195064
597.407120,0.195893
597.727580,0.197560
598.048000,0.195980
598.368380,0.197791
598.688720,0.195806
599.009020,0.201433
599.329280,0.198510
599.649500,0.192816
599.969680,0.193109
600.289820,0.195513
600.609920,0.193695
600.929980,0.195885
601.250000,0.198108
601.569980,0.197948
601.889920,0.194066
602.209820,0.194805
602.529680,0.201868
602.849500,0.194490
603.169280,0.198402
603.489020,0.195129
603.808720,0.195557
604.128380,0.195364
604.448000,0.196685
604.767580,0.196927
605.087120,0.193352
605.406620,0.195354
605.726080,0.196464
606.045500,0.188353
606.364880,0.193649
606.684220,0.194746
607.003520,0.190654
607.322780,0.191586
607.642000,0.193280
607.961180,0.189650
608.280320,0.195766
608.599420,0.194090
608.918480,0.192669
609.237500,0.190141
609.556480,0.193844
609.875420,0.190786
610.194320,0.191910
610.513180,0.191181
610.832000,0.191483
611.150780,0.194653
611.469520,0.190649
611.788220,0.192261
612.106880,0.190290
612.425500,0.186663
612.744080,0.193906
613.062620,0.191743
613.381120,0.192870
613.699580,0.191294
614.018000,0.192875
614.336380,0.189698
614.654720,0.189147
614.973020,0.186362
615.291280,0.190270
615.609500,0.191125
615.927680,0.188813
616.245820,0.191404
616.563920,0.187753
616.881980,0.193327
617.200000,0.192224
617.517980,0.184816
617.835920,0.188879
618.153820,0.189929
618.471680,0.190078
618.789500,0.189427
619.107280,0.187480
619.425020,0.191564
619.742720,0.189266
620.060380,0.188969
620.378000,0.192259
620.695580,0.192848
621.013120,0.188976
621.330620,0.190461
621.648080,0.188013
621.965500,0.186324
622.282880,0.186948
622.600220,0.185723
622.917520,0.186830
623.234780,0.192864
623.552000,0.190325
623.869180,0.187520
624.186320,0.193569
624.503420,0.191850
624.820480,0.192900
625.137500,0.184717
625.454480,0.184745
625.771420,0.186948
626.088320,0.190416
626.405180,0.189172
626.722000,0.184128
627.038780,0.183584
627.355520,0.186250
627.672220,0.187247
627.988880,0.188180
628.305500,0.191648
628.622080,0.194857
628.938620,0.186850
629.255120,0.187928
629.571580,0.189703
629.888000,0.185026
630.204380,0.188708
630.520720,0.189214
630.837020,0.186864
631.153280,0.184353
631.469500,0.185567
631.785680,0.185955
632.101820,0.189686
632.417920,0.185395
632.733980,0.184274
633.050000,0.192238
633.365980,0.187908
633.681920,0.192721
633.997820,0.182905
634.313680,0.186965
634.629500,0.184311
634.945280,0.185630
635.261020,0.186968
635.576720,0.190252
635.892380,0.182980
636.208000,0.192040
636.523580,0.189418
636.839120,0.186161
637.154620,0.186087
637.470080,0.184792
637.785500,0.189332
638.100880,0.183608
638.416220,0.188956
638.731520,0.185673
639.046780,0.186717
639.362000,0.182339
639.677180,0.187607
639.992320,0.187764
640.307420,0.185726
640.622480,0.186222
640.937500,0.184743
641.252480,0.186261
641.567420,0.187837
641.882320,0.187918
642.197180,0.189220
642.512000,0.186398
642.826780,0.186130
643.141520,0.190331
643.456220,0.184007
643.770880,0.185185
644.085500,0.185579
644.400080,0.184831
644.714620,0.187848
645.029120,0.185369
645.343580,0.184037
645.658000,0.190952
645.972380,0.184434
646.286720,0.187244
646.601020,0.184611
646.915280,0.185906
647.229500,0.185440
647.543680,0.179785
647.857820,0.184145
648.171920,0.185024
648.485980,0.183612
648.800000,0.179664
649.113980,0.184035
649.427920,0.183634
649.741820,0.181643
650.055680,0.188974
650.369500,0.186099
650.683280,0.183685
650.997020,0.182618
651.310720,0.183544
651.624380,0.179670
651.938000,0.186150
652.251580,0.179794
652.565120,0.179150
652.878620,0.183277
653.192080,0.180899
653.505500,0.182328
653.818880,0.183111
654.132220,0.182854
654.445520,0.178673
654.758780,0.181020
655.072000,0.181375
655.385180,0.181455
655.698320,0.180909
656.011420,0.181427
656.324480,0.183037
656.637500,0.181634
656.950480,0.182913
657.263420,0.184156
657.576320,0.179662
657.889180,0.185196
658.202000,0.182971
658.514780,0.179815
658.827520,0.179172
659.140220,0.181001
659.452880,0.182120
659.765500,0.180313
660.078080,0.178453
660.390620,0.179041
660.703120,0.184235
661.015580,0.180675
661.328000,0.178526
661.640380,0.181112
661.952720,0.179383
662.265020,0.182105
662.577280,0.178753
662.889500,0.179754
663.201680,0.180281
663.513820,0.179157
663.825920,0.179955
664.137980,0.175824
664.450000,0.178389
664.761980,0.177087
665.073920,0.173645
665.385820,0.177029
665.697680,0.175207
666.009500,0.176588
666.321280,0.181246
666.633020,0.176862
666.944720,0.180991
667.256380,0.178331
667.568000,0.177310
667.879580,0.174830
668.191120,0.175137
668.502620,0.181102
668.814080,0.179298
669.125500,0.178926
669.436880,0.174620
669.748220,0.173070
670.059520,0.178571
670.370780,0.174322
670.682000,0.177345
670.993180,0.173009
671.304320,0.174051
671.615420,0.175426
671.926480,0.177431
672.237500,0.178278
672.548480,0.176011
672.859420,0.177627
673.170320,0.180631
673.481180,0.177408
673.792000,0.173819
674.102780,0.173070
674.413520,0.177178
674.724220,0.174955
675.034880,0.177851
675.345500,0.168490
675.656080,0.171325
675.966620,0.177883
676.277120,0.179421
676.587580,0.175258
676.898000,0.179171
677.208380,0.172643
677.518720,0.170314
677.829020,0.177384
678.139280,0.177539
678.449500,0.176012
678.759680,0.175347
679.069820,0.175465
679.379920,0.177669
679.689980,0.175641
680.000000,0.174953
680.309980,0.173719
680.619920,0.172283
680.929820,0.171333
681.239680,0.169129
681.549500,0.172593
681.859280,0.170276
682.169020,0.174562
682.478720,0.179506
682.788380,0.174603
683.098000,0.176889
683.407580,0.174109
683.717120,0.175300
684.026620,0.173193
684.336080,0.175066
684.645500,0.167976
684.954880,0.166226
685.264220,0.174783
685.573520,0.180053
685.882780,0.176064
686.192000,0.176825
686.501180,0.170639
686.810320,0.171022
687.119420,0.169137
687.428480,0.173566
687.737500,0.170376
688.046480,0.171779
688.355420,0.172765
688.664320,0.172533
688.973180,0.174196
689.282000,0.169753
689.590780,0.169479
689.899520,0.170148
690.208220,0.176988
690.516880,0.173730
690.825500,0.173585
691.134080,0.171982
691.442620,0.175686
691.751120,0.172545
692.059580,0.171571
692.368000,0.168497
692.676380,0.171756
692.984720,0.172901
693.293020,0.174772
693.601280,0.168638
693.909500,0.174045
694.217680,0.174029
694.525820,0.174410
694.833920,0.167493
695.141980,0.166988
695.450000,0.174809
695.757980,0.173797
696.065920,0.172816
696.373820,0.171286
696.681680,0.168009
696.989500,0.170591
697.297280,0.170751
697.605020,0.171429
697.912720,0.171407
698.220380,0.170799
698.528000,0.174446
698.835580,0.174635
699.143120,0.166017
699.450620,0.170247
699.758080,0.172941
700.065500,0.169593
700.372880,0.168800
700.680220,0.173514
700.987520,0.173810
701.294780,0.171938
701.602000,0.168384
701.909180,0.172099
702.216320,0.167384
702.523420,0.170876
702.830480,0.171881
703.137500,0.165238
703.444480,0.172387
703.751420,0.170020
704.058320,0.169371
704.365180,0.171136
704.672000,0.174653
704.978780,0.169333
705.285520,0.169405
705.592220,0.164706
705.898880,0.169031
706.205500,0.170188
706.512080,0.171406
706.818620,0.169505
707.125120,0.172692
707.431580,0.168425
707.738000,0.172266
708.044380,0.166345
708.350720,0.166985
708.657020,0.169988
708.963280,0.170419
709.269500,0.166341
709.575680,0.170923
709.881820,0.170204
710.187920,0.167704
710.493980,0.166408
710.800000,0.169336
711.105980,0.167922
711.411920,0.166338
711.717820,0.162963
712.023680,0.162456
712.329500,0.165221
712.635280,0.171318
712.941020,0.163896
713.246720,0.166403
713.552380,0.165228
713.858000,0.167521
714.163580,0.165351
714.469120,0.164517
714.774620,0.167390
715.080080,0.168041
715.385500,0.167066
715.690880,0.160947
715.996220,0.165214
716.301520,0.167984
716.606780,0.164701
716.912000,0.166801
717.217180,0.167997
717.522320,0.161829
717.827420,0.167209
718.132480,0.167001
718.437500,0.166327
718.742480,0.163710
719.047420,0.164644
719.352320,0.168950
719.657180,0.170074
719.962000,0.166253
720.266780,0.162443
720.571520,0.165700
720.876220,0.166121
721.180880,0.160117
721.485500,0.166736
721.790080,0.168577
722.094620,0.163808
722.399120,0.166308
722.703580,0.160737
723.008000,0.164726
723.312380,0.162721
723.616720,0.160221
723.921020,0.169337
724.225280,0.159686
724.529500,0.160683
724.833680,0.165480
725.137820,0.163877
725.441920,0.160499
725.745980,0.167338
726.050000,0.163735
726.353980,0.165840
726.657920,0.163743
726.961820,0.159361
727.265680,0.164586
727.569500,0.164991
727.873280,0.167667
728.177020,0.167204
728.480720,0.159259
728.784380,0.168624
729.088000,0.162506
729.391580,0.166272
729.695120,0.162668
729.998620,0.165392
730.302080,0.168188
730.605500,0.160116
730.908880,0.166095
731.212220,0.160137
731.515520,0.159922
731.818780,0.166990
732.122000,0.163386
732.425180,0.161163
732.728320,0.171542
733.031420,0.158897
733.334480,0.159184
733.637500,0.160786
733.940480,0.161720
734.243420,0.167176
734.546320,0.165975
734.849180,0.158058
735.152000,0.162863
735.454780,0.158574
735.757520,0.160695
736.060220,0.157451
736.362880,0.160714
736.665500,0.157702
736.968080,0.161741
737.270620,0.162765
737.573120,0.155022
737.875580,0.162727
738.178000,0.165487
738.480380,0.155135
738.782720,0.161396
739.085020,0.155837
739.387280,0.160200
739.689500,0.166478
739.991680,0.166199
740.293820,0.165285
740.595920,0.159154
740.897980,0.160361
741.200000,0.166012
741.501980,0.158166
741.803920,0.158221
742.105820,0.160180
742.407680,0.162493
742.709500,0.160795
743.011280,0.155920
743.313020,0.160000
743.614720,0.160766
743.916380,0.156395
744.218000,0.163484
744.519580,0.167271
744.821120,0.168263
745.122620,0.159377
745.424080,0.153245
745.725500,0.161135
746.026880,0.159483
746.328220,0.157830
746.629520,0.159542
746.930780,0.162377
747.232000,0.158798
747.533180,0.163514
747.834320,0.158856
748.135420,0.155998
748.436480,0.159701
748.737500,0.156887
749.038480,0.150886
749.339420,0.161170
749.640320,0.162162
749.941180,0.156152
750.242000,0.156407
750.542780,0.158809
750.843520,0.160154
751.144220,0.158974
751.444880,0.163602
751.745500,0.157792
752.046080,0.155869
752.346620,0.155284
752.647120,0.154801
752.947580,0.163001
753.248000,0.156028
753.548380,0.159401
753.848720,0.157759
754.149020,0.159252
754.449280,0.159554
754.749500,0.153285
755.049680,0.158000
755.349820,0.158105
755.649920,0.159947
755.949980,0.162575
756.250000,0.163708
756.549980,0.159076
756.849920,0.159755
757.149820,0.163673
757.449680,0.157756
757.749500,0.160873
758.049280,0.158362
758.349020,0.155772
758.648720,0.162871
758.948380,0.158076
759.248000,0.156334
759.547580,0.154674
759.847120,0.154376
760.146620,0.156969
760.446080,0.155914
760.745500,0.156643
761.044880,0.154830
761.344220,0.157520
761.643520,0.158192
761.942780,0.162351
762.242000,0.160537
762.541180,0.155634
762.840320,0.156601
763.139420,0.151899
763.438480,0.151743
763.737500,0.155755
764.036480,0.156534
764.335420,0.154552
764.634320,0.149688
764.933180,0.163014
765.232000,0.156836
765.530780,0.152982
765.829520,0.160839
766.128220,0.163535
766.426880,0.152807
766.725500,0.154215
767.024080,0.152263
767.322620,0.155602
767.621120,0.153117
767.919580,0.156997
768.218000,0.155951
768.516380,0.154834
768.814720,0.146091
769.113020,0.158511
769.411280,0.154696
769.709500,0.156292
770.007680,0.156783
770.305820,0.154158
770.603920,0.154987
770.901980,0.159836
771.200000,0.153533
771.497980,0.154155
771.795920,0.155184
772.093820,0.159091
772.391680,0.155570
772.689500,0.148649
772.987280,0.154209
773.285020,0.161996
773.582720,0.156081
773.880380,0.155113
774.178000,0.155419
774.475580,0.153382
774.773120,0.153280
775.070620,0.151454
775.368080,0.152973
775.665500,0.149765
775.962880,0.152101
776.260220,0.154105
776.557520,0.156771
776.854780,0.154158
777.152000,0.155836
777.449180,0.155765
777.746320,0.146505
778.043420,0.154843
778.340480,0.156969
778.637500,0.151454
778.934480,0.158709
779.231420,0.150611
779.528320,0.154977
779.825180,0.154150
780.122000,0.154714
780.418780,0.156635
780.715520,0.154930
781.012220,0.160274
781.308880,0.154158
781.605500,0.152740
781.902080,0.158795
782.198620,0.156528
782.495120,0.154321
782.791580,0.151307
783.088000,0.152519
783.384380,0.156121
783.680720,0.160739
783.977020,0.154164
784.273280,0.152448
784.569500,0.148847
784.865680,0.147427
785.161820,0.149306
785.457920,0.155925
785.753980,0.153524
786.050000,0.143646
786.345980,0.152778
786.641920,0.151978
786.937820,0.155983
787.233680,0.152401
787.529500,0.153953
787.825280,0.145184
788.121020,0.150142
788.416720,0.148906
788.712380,0.149506
789.008000,0.151558
789.303580,0.148410
789.599120,0.157091
789.894620,0.156679
790.190080,0.143582
790.485500,0.148308
790.780880,0.146953
791.076220,0.152237
791.371520,0.149601
791.666780,0.161455
791.962000,0.150625
792.257180,0.150805
792.552320,0.158086
792.847420,0.153566
793.142480,0.160440
793.437500,0.149059
793.732480,0.148500
794.027420,0.147626
794.322320,0.158837
794.617180,0.153046
794.912000,0.146360
795.206780,0.150634
795.501520,0.155894
795.796220,0.145926
796.090880,0.151469
796.385500,0.146927
796.680080,0.153328
796.974620,0.146707
797.269120,0.149886
797.563580,0.149618
797.858000,0.160213
798.152380,0.157773
798.446720,0.154615
798.741020,0.148690
799.035280,0.154503
799.329500,0.150885
799.623680,0.146512
