399.985280,0.202703
400.329500,0.243243
400.673680,0.291139
401.017820,0.220588
401.361920,0.227273
401.705980,0.182927
402.050000,0.194805
402.393980,0.258824
402.737920,0.292135
403.081820,0.247423
403.425680,0.267442
403.769500,0.166667
404.113280,0.206897
404.457020,0.280899
404.800720,0.239130
405.144380,0.323232
405.488000,0.247312
405.831580,0.247423
406.175120,0.234043
406.518620,0.250000
406.862080,0.226804
407.205500,0.270833
407.548880,0.204082
407.892220,0.254902
408.235520,0.276596
408.578780,0.276190
408.922000,0.250000
409.265180,0.303030
409.608320,0.252525
409.951420,0.288660
410.294480,0.303922
410.637500,0.228261
410.980480,0.245098
411.323420,0.244898
411.666320,0.229358
412.009180,0.290909
412.352000,0.237624
412.694780,0.266055
413.037520,0.256881
413.380220,0.315315
413.722880,0.267857
414.065500,0.261261
414.408080,0.212389
414.750620,0.292035
415.093120,0.231405
415.435580,0.285714
415.778000,0.257576
416.120380,0.243697
416.462720,0.269841
416.805020,0.293233
417.147280,0.283582
417.489500,0.221429
417.831680,0.273973
418.173820,0.304965
418.515920,0.293706
418.857980,0.246835
419.200000,0.301282
419.541980,0.248521
419.883920,0.230337
420.225820,0.271676
420.567680,0.268156
420.909500,0.284153
421.251280,0.281250
421.593020,0.255102
421.934720,0.257576
422.276380,0.256410
422.618000,0.254902
422.959580,0.279412
423.301120,0.283105
423.642620,0.234783
423.984080,0.274419
424.325500,0.269058
424.666880,0.245690
425.008220,0.235294
425.349520,0.241525
425.690780,0.246154
426.032000,0.239216
426.373180,0.244813
426.714320,0.257812
427.055420,0.247104
427.396480,0.243446
427.737500,0.241107
428.078480,0.272727
428.419420,0.285141
428.760320,0.241379
429.101180,0.271654
429.442000,0.264368
429.782780,0.238462
430.123520,0.254902
430.464220,0.247232
430.804880,0.272031
431.145500,0.225455
431.486080,0.258427
431.826620,0.228682
432.167120,0.246324
432.507580,0.286232
432.848000,0.276978
433.188380,0.238267
433.528720,0.252830
433.869020,0.260714
434.209280,0.235088
434.549500,0.268293
434.889680,0.239057
435.229820,0.249147
435.569920,0.235294
435.909980,0.245955
436.250000,0.254237
436.589980,0.235294
436.929920,0.257143
437.269820,0.247649
437.609680,0.254438
437.949500,0.262048
438.289280,0.254958
438.629020,0.241279
438.968720,0.261628
439.308380,0.216802
439.648000,0.232877
439.987580,0.238095
440.327120,0.226667
440.666620,0.251948
441.006080,0.258312
441.345500,0.230958
441.684880,0.246411
442.024220,0.225806
442.363520,0.247619
442.702780,0.229545
443.042000,0.229075
443.381180,0.258621
443.720320,0.250540
444.059420,0.239496
444.398480,0.240586
444.737500,0.245902
445.076480,0.238095
445.415420,0.259481
445.754320,0.241164
446.093180,0.249541
446.432000,0.240602
446.770780,0.250474
447.109520,0.244485
447.448220,0.236136
447.786880,0.239714
448.125500,0.256897
448.464080,0.237500
448.802620,0.242908
449.141120,0.231834
449.479580,0.241259
449.818000,0.230637
450.156380,0.245819
450.494720,0.233058
450.833020,0.234266
451.171280,0.226027
451.509500,0.259582
451.847680,0.217538
452.185820,0.240964
452.523920,0.240550
452.861980,0.244519
453.200000,0.247508
453.537980,0.235294
453.875920,0.243697
454.213820,0.234589
454.551680,0.238411
454.889500,0.236088
455.227280,0.229537
455.565020,0.229481
455.902720,0.232945
456.240380,0.216306
456.578000,0.242160
456.915580,0.245250
457.253120,0.240132
457.590620,0.238095
457.928080,0.249158
458.265500,0.253378
458.602880,0.233766
458.940220,0.240271
459.277520,0.236800
459.614780,0.245499
459.952000,0.225155
460.289180,0.232595
460.626320,0.237795
460.963420,0.229402
461.300480,0.253823
461.637500,0.231125
461.974480,0.244648
462.311420,0.233979
462.648320,0.229868
462.985180,0.242468
463.322000,0.221726
463.658780,0.232044
463.995520,0.215956
464.332220,0.227147
464.668880,0.233871
465.005500,0.235925
465.342080,0.222791
465.678620,0.228782
466.015120,0.234153
466.351580,0.232617
466.688000,0.230207
467.024380,0.229648
467.360720,0.226136
467.697020,0.219818
468.033280,0.225556
468.369500,0.240618
468.705680,0.241263
469.041820,0.236458
469.377920,0.214751
469.713980,0.229660
470.050000,0.228019
470.385980,0.230920
470.721920,0.230167
471.057820,0.230994
471.393680,0.228251
471.729500,0.232623
472.065280,0.229875
472.401020,0.227837
472.736720,0.225131
473.072380,0.227110
473.408000,0.224543
473.743580,0.225779
474.079120,0.224806
474.414620,0.225615
474.750080,0.223759
475.085500,0.221217
475.420880,0.223980
475.756220,0.217498
476.091520,0.225064
476.426780,0.228964
476.762000,0.223652
477.097180,0.220000
477.432320,0.220517
477.767420,0.220588
478.102480,0.223622
478.437500,0.230706
478.772480,0.214342
479.107420,0.221318
479.442320,0.222222
479.777180,0.225139
480.112000,0.220339
480.446780,0.219018
480.781520,0.219807
481.116220,0.227162
481.450880,0.224044
481.785500,0.231013
482.120080,0.224138
482.454620,0.216783
482.789120,0.226115
483.123580,0.222741
483.458000,0.218354
483.792380,0.226038
484.126720,0.214672
484.461020,0.222482
484.795280,0.214341
485.129500,0.220577
485.463680,0.214729
485.797820,0.220062
486.131920,0.218822
486.465980,0.223938
486.800000,0.221374
487.133980,0.215257
487.467920,0.222647
487.801820,0.228833
488.135680,0.219864
488.469500,0.215582
488.803280,0.223626
489.137020,0.217582
489.470720,0.218843
489.804380,0.221975
490.138000,0.221068
490.471580,0.224024
490.805120,0.218728
491.138620,0.213930
491.472080,0.211307
491.805500,0.214086
492.138880,0.214732
492.472220,0.219377
492.805520,0.223464
493.138780,0.218470
493.472000,0.214047
493.805180,0.219645
494.138320,0.212141
494.471420,0.218750
494.804480,0.216041
495.137500,0.220796
495.470480,0.217336
495.803420,0.215365
496.136320,0.217419
496.469180,0.219153
496.802000,0.215159
497.134780,0.210431
497.467520,0.222630
497.800220,0.218750
498.132880,0.216931
498.465500,0.214948
498.798080,0.215183
499.130620,0.220663
499.463120,0.221786
499.795580,0.213971
500.128000,0.215259
500.460380,0.213132
500.792720,0.217391
501.125020,0.217026
501.457280,0.218799
501.789500,0.212810
502.121680,0.215656
502.453820,0.217236
502.785920,0.212106
503.117980,0.219823
503.450000,0.214967
503.781980,0.214748
504.113920,0.207207
504.445820,0.212931
504.777680,0.207529
505.109500,0.219712
505.441280,0.217973
505.773020,0.209958
506.104720,0.212435
506.436380,0.210601
506.768000,0.215154
507.099580,0.202746
507.431120,0.211241
507.762620,0.208647
508.094080,0.210574
508.425500,0.214753
508.756880,0.210334
509.088220,0.209752
509.419520,0.214618
509.750780,0.211809
510.082000,0.209888
510.413180,0.217411
510.744320,0.211689
511.075420,0.213107
511.406480,0.209685
511.737500,0.207407
512.068480,0.210526
512.399420,0.207981
512.730320,0.200462
513.061180,0.208373
513.392000,0.206342
513.722780,0.206532
514.053520,0.213704
514.384220,0.207897
514.714880,0.205840
515.045500,0.210249
515.376080,0.210654
515.706620,0.209450
516.037120,0.210784
516.367580,0.206013
516.698000,0.203922
517.028380,0.208540
517.358720,0.208395
517.689020,0.209693
518.019280,0.210236
518.349500,0.209833
518.679680,0.206966
519.009820,0.207996
519.339920,0.211924
519.669980,0.206429
520.000000,0.211921
520.329980,0.208398
520.659920,0.202965
520.989820,0.211558
521.319680,0.208333
521.649500,0.207198
521.979280,0.208768
522.309020,0.207469
522.638720,0.202253
522.968380,0.207342
523.298000,0.203027
523.627580,0.206415
523.957120,0.205714
524.286620,0.205315
524.616080,0.206825
524.945500,0.208269
525.274880,0.208825
525.604220,0.203934
525.933520,0.206499
526.262780,0.201723
526.592000,0.206494
526.921180,0.203657
527.250320,0.202435
527.579420,0.209197
527.908480,0.198917
528.237500,0.204568
528.566480,0.207086
528.895420,0.194677
529.224320,0.204061
529.553180,0.206265
529.882000,0.210219
530.210780,0.205598
530.539520,0.201822
530.868220,0.202968
531.196880,0.204013
531.525500,0.207748
531.854080,0.204503
532.182620,0.207380
532.511120,0.203712
532.839580,0.202359
533.168000,0.205105
533.496380,0.204110
533.824720,0.205025
534.153020,0.207312
534.481280,0.207930
534.809500,0.204485
535.137680,0.202257
535.465820,0.200601
535.793920,0.206853
536.121980,0.201846
536.450000,0.202960
536.777980,0.206535
537.105920,0.204649
537.433820,0.208674
537.761680,0.207755
538.089500,0.202347
538.417280,0.204138
538.745020,0.201268
539.072720,0.203827
539.400380,0.201243
539.728000,0.206883
540.055580,0.203745
540.383120,0.204765
540.710620,0.202009
541.038080,0.202508
541.365500,0.202941
541.692880,0.207849
542.020220,0.205829
542.347520,0.201005
542.674780,0.207128
543.002000,0.196991
543.329180,0.205542
543.656320,0.206048
543.983420,0.202051
544.310480,0.199796
544.637500,0.201979
544.964480,0.205249
545.291420,0.202725
545.618320,0.199535
545.945180,0.200396
546.272000,0.196592
546.598780,0.204851
546.925520,0.197165
547.252220,0.197095
547.578880,0.201369
547.905500,0.201961
548.232080,0.200455
548.558620,0.203384
548.885120,0.198888
549.211580,0.195114
549.538000,0.202010
549.864380,0.200322
550.190720,0.199225
550.517020,0.200456
550.843280,0.204235
551.169500,0.195611
551.495680,0.200723
551.821820,0.200196
552.147920,0.198764
552.473980,0.200856
552.800000,0.194245
553.125980,0.201048
553.451920,0.200730
553.777820,0.203198
554.103680,0.200202
554.429500,0.197523
554.755280,0.201936
555.081020,0.197527
555.406720,0.190315
555.732380,0.197221
556.058000,0.196877
556.383580,0.195823
556.709120,0.201930
557.034620,0.199449
557.360080,0.195164
557.685500,0.201245
558.010880,0.197920
558.336220,0.192970
558.661520,0.196739
558.986780,0.199150
559.312000,0.190883
559.637180,0.194973
559.962320,0.195443
560.287420,0.198519
560.612480,0.196627
560.937500,0.190896
561.262480,0.193182
561.587420,0.197316
561.912320,0.193073
562.237180,0.194671
562.562000,0.193790
562.886780,0.201784
563.211520,0.196349
563.536220,0.195918
563.860880,0.193512
564.185500,0.196998
564.510080,0.195636
564.834620,0.195757
565.159120,0.194361
565.483580,0.197263
565.808000,0.191827
566.132380,0.199179
566.456720,0.198035
566.781020,0.193923
567.105280,0.194707
567.429500,0.197269
567.753680,0.194860
568.077820,0.192114
568.401920,0.193277
568.725980,0.198861
569.050000,0.195057
569.373980,0.191854
569.697920,0.188472
570.021820,0.195880
570.345680,0.191734
570.669500,0.193438
570.993280,0.195644
571.317020,0.191085
571.640720,0.193775
571.964380,0.191537
572.288000,0.192878
572.611580,0.200300
572.935120,0.195286
573.258620,0.200823
573.582080,0.195604
573.905500,0.194341
574.228880,0.197476
574.552220,0.191645
574.875520,0.193224
575.198780,0.192266
575.522000,0.192449
575.845180,0.190186
576.168320,0.191879
576.491420,0.195858
576.814480,0.194213
577.137500,0.198052
577.460480,0.193186
577.783420,0.190425
578.106320,0.193376
578.429180,0.195122
578.752000,0.188607
579.074780,0.193527
579.397520,0.193028
579.720220,0.193050
580.042880,0.195573
580.365500,0.189940
580.688080,0.195387
581.010620,0.195073
581.333120,0.190715
581.655580,0.196137
581.978000,0.193548
582.300380,0.191821
582.622720,0.194133
582.945020,0.196034
583.267280,0.191143
583.589500,0.195827
583.911680,0.191807
584.233820,0.189487
584.555920,0.193823
584.877980,0.193467
585.200000,0.186004
585.521980,0.191226
585.843920,0.190360
586.165820,0.190433
586.487680,0.187782
586.809500,0.192619
587.131280,0.186927
587.453020,0.190774
587.774720,0.191603
588.096380,0.195158
588.418000,0.189055
588.739580,0.190572
589.061120,0.190914
589.382620,0.193983
589.704080,0.189902
590.025500,0.189498
590.346880,0.191400
590.668220,0.191823
590.989520,0.188297
591.310780,0.190555
591.632000,0.189617
591.953180,0.197896
592.274320,0.187551
592.595420,0.193157
592.916480,0.192067
593.237500,0.191593
593.558480,0.187517
593.879420,0.189641
594.200320,0.192606
594.521180,0.189110
594.842000,0.190758
595.162780,0.193109
595.483520,0.191438
595.804220,0.193609
596.124880,0.194245
596.445500,0.189154
596.766080,0.192256
597.086620,0.194533
597.407120,0.186940
597.727580,0.192257
598.048000,0.191219
598.368380,0.189374
598.688720,0.191612
599.009020,0.189490
599.329280,0.188930
599.649500,0.190174
599.969680,0.190705
600.289820,0.188568
600.609920,0.184878
600.929980,0.188669
601.250000,0.187568
601.569980,0.190116
601.889920,0.190323
602.209820,0.185065
602.529680,0.191980
602.849500,0.188762
603.169280,0.189859
603.489020,0.190700
603.808720,0.186231
604.128380,0.190121
604.448000,0.187017
604.767580,0.187709
605.087120,0.188920
605.406620,0.192835
605.726080,0.186484
606.045500,0.185010
606.364880,0.184576
606.684220,0.185608
607.003520,0.183486
607.322780,0.181922
607.642000,0.187823
607.961180,0.185603
608.280320,0.186775
608.599420,0.183082
608.918480,0.188270
609.237500,0.184272
609.556480,0.187038
609.875420,0.184584
610.194320,0.187482
610.513180,0.188813
610.832000,0.188803
611.150780,0.188645
611.469520,0.187632
611.788220,0.189843
612.106880,0.184560
612.425500,0.183618
612.744080,0.185596
613.062620,0.182569
613.381120,0.177940
613.699580,0.187615
614.018000,0.188882
614.336380,0.185379
614.654720,0.182016
614.973020,0.181425
615.291280,0.182832
615.609500,0.182567
615.927680,0.182015
616.245820,0.181200
616.563920,0.183401
616.881980,0.185843
617.200000,0.180715
617.517980,0.180772
617.835920,0.179870
618.153820,0.182468
618.471680,0.182636
618.789500,0.181875
619.107280,0.181221
619.425020,0.183317
619.742720,0.180477
620.060380,0.178314
620.378000,0.183449
620.695580,0.183589
621.013120,0.182362
621.330620,0.178852
621.648080,0.179811
621.965500,0.182873
622.282880,0.180013
622.600220,0.182881
622.917520,0.182735
623.234780,0.187078
623.552000,0.183323
623.869180,0.180901
624.186320,0.181471
624.503420,0.184326
624.820480,0.184731
625.137500,0.182507
625.454480,0.185996
625.771420,0.179697
626.088320,0.180013
626.405180,0.181394
626.722000,0.183501
627.038780,0.180451
627.355520,0.184062
627.672220,0.181649
627.988880,0.179471
628.305500,0.182923
628.622080,0.186183
628.938620,0.180734
629.255120,0.179527
629.571580,0.178670
629.888000,0.180423
630.204380,0.182878
630.520720,0.179768
630.837020,0.179155
631.153280,0.182554
631.469500,0.180716
631.785680,0.182037
632.101820,0.180639
632.417920,0.178838
632.733980,0.178271
633.050000,0.183141
633.365980,0.177830
633.681920,0.182279
633.997820,0.180813
634.313680,0.180773
634.629500,0.182542
634.945280,0.182111
635.261020,0.180804
635.576720,0.177921
635.892380,0.180076
636.208000,0.180418
636.523580,0.180941
636.839120,0.181529
637.154620,0.180000
637.470080,0.176184
637.785500,0.182591
638.100880,0.179554
638.416220,0.180903
638.731520,0.176504
639.046780,0.183222
639.362000,0.180619
639.677180,0.184752
639.992320,0.180998
640.307420,0.181231
640.622480,0.175301
640.937500,0.178363
641.252480,0.182631
641.567420,0.181302
641.882320,0.175390
642.197180,0.178271
642.512000,0.178841
642.826780,0.177809
643.141520,0.176160
643.456220,0.181240
643.770880,0.181039
644.085500,0.180268
644.400080,0.179494
644.714620,0.178930
645.029120,0.175193
645.343580,0.180472
645.658000,0.177352
645.972380,0.180597
646.286720,0.177978
646.601020,0.178245
646.915280,0.180971
647.229500,0.178297
647.543680,0.178128
647.857820,0.180842
648.171920,0.176886
648.485980,0.174568
648.800000,0.176908
649.113980,0.179601
649.427920,0.181137
649.741820,0.179170
650.055680,0.176906
650.369500,0.180213
650.683280,0.175916
650.997020,0.179043
651.310720,0.179417
651.624380,0.172253
651.938000,0.174792
652.251580,0.178402
652.565120,0.174679
652.878620,0.177646
653.192080,0.175281
653.505500,0.175035
653.818880,0.177708
654.132220,0.175733
654.445520,0.177822
654.758780,0.173371
655.072000,0.178223
655.385180,0.172611
655.698320,0.172335
656.011420,0.175122
656.324480,0.176333
656.637500,0.171784
656.950480,0.168820
657.263420,0.174993
657.576320,0.177587
657.889180,0.176939
658.202000,0.172101
658.514780,0.175350
658.827520,0.174670
659.140220,0.175307
659.452880,0.180006
659.765500,0.173390
660.078080,0.173638
660.390620,0.173541
660.703120,0.173847
661.015580,0.176074
661.328000,0.176008
661.640380,0.176142
661.952720,0.175023
662.265020,0.177064
662.577280,0.169529
662.889500,0.178177
663.201680,0.173899
663.513820,0.171116
663.825920,0.175793
664.137980,0.178410
664.450000,0.173593
664.761980,0.170540
665.073920,0.172671
665.385820,0.172448
665.697680,0.169917
666.009500,0.173595
666.321280,0.172300
666.633020,0.174202
666.944720,0.166161
667.256380,0.172611
667.568000,0.169497
667.879580,0.169388
668.191120,0.173420
668.502620,0.170832
668.814080,0.171579
669.125500,0.171057
669.436880,0.174965
669.748220,0.172032
670.059520,0.174370
670.370780,0.173278
670.682000,0.170973
670.993180,0.168076
671.304320,0.169480
671.615420,0.169744
671.926480,0.169624
672.237500,0.167203
672.548480,0.170688
672.859420,0.172623
673.170320,0.169024
673.481180,0.171977
673.792000,0.170573
674.102780,0.166966
674.413520,0.170981
674.724220,0.166606
675.034880,0.169050
675.345500,0.167761
675.656080,0.171325
675.966620,0.172790
676.277120,0.171366
676.587580,0.170839
676.898000,0.170213
677.208380,0.170425
677.518720,0.167396
677.829020,0.172210
678.139280,0.167532
678.449500,0.171927
678.759680,0.168602
679.069820,0.166914
679.379920,0.170879
679.689980,0.168585
680.000000,0.161121
680.309980,0.167780
680.619920,0.168497
680.929820,0.168346
681.239680,0.167651
681.549500,0.168889
681.859280,0.167662
682.169020,0.168967
682.478720,0.169783
682.788380,0.173127
683.098000,0.167539
683.407580,0.168105
683.717120,0.168168
684.026620,0.164910
684.336080,0.167488
684.645500,0.161990
684.954880,0.165470
685.264220,0.168365
685.573520,0.172821
685.882780,0.170694
686.192000,0.167043
686.501180,0.168748
686.810320,0.178709
687.119420,0.166857
687.428480,0.170528
687.737500,0.166539
688.046480,0.165261
688.355420,0.163335
688.664320,0.166029
688.973180,0.172665
689.282000,0.168981
689.590780,0.166794
689.899520,0.165970
690.208220,0.171636
690.516880,0.172203
690.825500,0.170189
691.134080,0.168185
691.442620,0.164634
691.751120,0.165719
692.059580,0.164692
692.368000,0.165089
692.676380,0.163740
692.984720,0.164504
693.293020,0.165653
693.601280,0.162915
693.909500,0.163829
694.217680,0.164509
694.525820,0.163366
694.833920,0.167875
695.141980,0.166602
695.450000,0.166031
695.757980,0.168449
696.065920,0.170097
696.373820,0.166282
696.681680,0.162255
696.989500,0.169047
697.297280,0.165305
697.605020,0.163889
697.912720,0.161799
698.220380,0.164896
698.528000,0.166139
698.835580,0.169498
699.143120,0.165627
699.450620,0.162689
699.758080,0.166667
700.065500,0.162809
700.372880,0.165600
700.680220,0.165935
700.987520,0.165079
701.294780,0.161800
701.602000,0.163233
701.909180,0.167329
702.216320,0.161126
702.523420,0.166535
702.830480,0.167129
703.137500,0.163289
703.444480,0.164103
703.751420,0.166469
704.058320,0.164226
704.365180,0.167587
704.672000,0.164752
704.978780,0.159579
705.285520,0.160407
705.592220,0.161569
705.898880,0.167061
706.205500,0.166275
706.512080,0.162717
706.818620,0.164087
707.125120,0.160000
707.431580,0.164908
707.738000,0.166797
708.044380,0.159784
708.350720,0.163546
708.657020,0.167253
708.963280,0.160714
709.269500,0.159687
709.575680,0.166601
709.881820,0.167846
710.187920,0.160700
710.493980,0.164081
710.800000,0.161709
711.105980,0.161898
711.411920,0.160426
711.717820,0.160624
712.023680,0.159347
712.329500,0.165615
712.635280,0.162791
712.941020,0.160417
713.246720,0.164032
713.552380,0.161303
713.858000,0.162002
714.163580,0.158248
714.469120,0.154357
714.774620,0.158310
715.080080,0.162152
715.385500,0.161471
715.690880,0.159763
715.996220,0.162837
716.301520,0.164032
716.606780,0.162736
716.912000,0.163974
717.217180,0.160016
717.522320,0.163817
717.827420,0.157852
718.132480,0.157768
718.437500,0.162250
718.742480,0.159677
719.047420,0.158172
719.352320,0.161893
719.657180,0.164350
719.962000,0.163358
720.266780,0.160366
720.571520,0.166943
720.876220,0.159574
721.180880,0.156355
721.485500,0.161722
721.790080,0.160085
722.094620,0.163379
722.399120,0.162430
722.703580,0.153450
723.008000,0.163433
723.312380,0.165303
723.616720,0.155971
723.921020,0.163707
724.225280,0.158813
724.529500,0.156305
724.833680,0.161922
725.137820,0.158150
725.441920,0.160499
725.745980,0.160179
726.050000,0.156969
726.353980,0.158179
726.657920,0.159244
726.961820,0.152511
727.265680,0.160888
727.569500,0.159963
727.873280,0.157968
728.177020,0.160755
728.480720,0.156944
728.784380,0.161109
729.088000,0.156854
729.391580,0.157271
729.695120,0.156910
729.998620,0.159178
730.302080,0.160980
730.605500,0.160116
730.908880,0.156786
731.212220,0.161117
731.515520,0.156021
731.818780,0.156796
732.122000,0.161909
732.425180,0.161656
732.728320,0.161626
733.031420,0.152381
733.334480,0.158673
733.637500,0.154738
733.940480,0.157114
734.243420,0.159021
734.546320,0.159232
734.849180,0.157541
735.152000,0.153008
735.454780,0.155475
735.757520,0.160169
736.060220,0.155345
736.362880,0.158088
736.665500,0.154047
736.968080,0.156905
737.270620,0.156777
737.573120,0.156114
737.875580,0.161627
738.178000,0.158955
738.480380,0.151892
738.782720,0.152126
739.085020,0.156938
739.387280,0.152439
739.689500,0.153454
739.991680,0.159461
740.293820,0.160862
740.595920,0.156372
740.897980,0.151327
741.200000,0.154795
741.501980,0.158739
741.803920,0.153716
742.105820,0.159616
742.407680,0.155504
742.709500,0.155114
743.011280,0.151817
743.313020,0.151884
743.614720,0.152060
743.916380,0.155233
744.218000,0.158115
744.519580,0.155797
744.821120,0.156886
745.122620,0.153984
745.424080,0.153846
745.725500,0.153289
746.026880,0.158867
746.328220,0.157830
746.629520,0.151114
746.930780,0.151961
747.232000,0.153280
747.533180,0.157413
747.834320,0.156421
748.135420,0.154133
748.436480,0.155334
748.737500,0.153181
749.038480,0.156384
749.339420,0.158058
749.640320,0.154620
749.941180,0.155528
750.242000,0.152638
750.542780,0.156948
750.843520,0.153748
751.144220,0.155128
751.444880,0.161699
751.745500,0.150649
752.046080,0.162925
752.346620,0.151418
752.647120,0.150229
752.947580,0.156533
753.248000,0.157963
753.548380,0.152245
753.848720,0.151320
754.149020,0.148936
754.449280,0.151018
754.749500,0.153948
755.049680,0.146667
755.349820,0.150100
755.649920,0.151355
755.949980,0.149303
756.250000,0.155161
756.549980,0.147855
756.849920,0.148878
757.149820,0.152362
757.449680,0.152475
757.749500,0.152011
758.049280,0.150853
758.349020,0.150904
758.648720,0.153209
758.948380,0.153265
759.248000,0.155660
759.547580,0.150639
759.847120,0.146106
760.146620,0.157645
760.446080,0.149866
760.745500,0.153147
761.044880,0.152699
761.344220,0.153956
761.643520,0.153249
761.942780,0.153254
762.242000,0.151344
762.541180,0.150000
762.840320,0.153792
763.139420,0.149086
763.438480,0.150376
763.737500,0.151620
764.036480,0.153040
764.335420,0.148906
764.634320,0.147609
764.933180,0.152740
765.232000,0.145732
765.530780,0.154386
765.829520,0.158042
766.128220,0.151705
766.426880,0.155650
766.725500,0.152844
767.024080,0.150206
767.322620,0.150761
767.621120,0.153117
767.919580,0.148123
768.218000,0.148427
768.516380,0.148749
768.814720,0.146091
769.113020,0.158511
769.411280,0.151243
769.709500,0.146820
770.007680,0.149966
770.305820,0.158891
770.603920,0.144205
770.901980,0.147541
771.200000,0.146060
771.497980,0.146113
771.795920,0.148495
772.093820,0.143048
772.391680,0.150297
772.689500,0.149324
772.987280,0.148148
773.285020,0.154477
773.582720,0.152703
773.880380,0.150995
774.178000,0.144513
774.475580,0.152043
774.773120,0.145248
775.070620,0.152130
775.368080,0.159653
775.665500,0.150437
775.962880,0.145430
776.260220,0.149394
776.557520,0.152769
776.854780,0.146721
777.152000,0.143899
777.449180,0.153742
777.746320,0.147177
778.043420,0.152115
778.340480,0.150880
778.637500,0.152806
778.934480,0.151984
779.231420,0.142469
779.528320,0.142285
779.825180,0.146245
780.122000,0.147410
780.418780,0.145691
780.715520,0.146211
781.012220,0.150000
781.308880,0.150101
781.605500,0.152740
781.902080,0.147159
782.198620,0.147642
782.495120,0.145405
782.791580,0.149243
783.088000,0.150449
783.384380,0.152682
783.680720,0.151163
783.977020,0.150723
784.273280,0.148252
784.569500,0.152341
784.865680,0.150209
785.161820,0.143056
785.457920,0.146916
785.753980,0.144452
786.050000,0.144337
786.345980,0.150694
786.641920,0.145732
786.937820,0.147436
787.233680,0.144050
787.529500,0.148405
787.825280,0.150850
788.121020,0.145892
788.416720,0.148200
788.712380,0.146685
789.008000,0.146601
789.303580,0.140636
789.599120,0.146909
789.894620,0.152347
790.190080,0.148658
790.485500,0.141829
790.780880,0.149821
791.076220,0.147908
791.371520,0.151053
791.666780,0.152727
791.962000,0.142542
792.257180,0.149341
792.552320,0.153009
792.847420,0.147744
793.142480,0.151648
793.437500,0.142547
793.732480,0.146306
794.027420,0.144659
794.322320,0.149888
794.617180,0.145617
794.912000,0.151560
795.206780,0.149142
795.501520,0.153612
795.796220,0.142222
796.090880,0.144687
796.385500,0.143928
796.680080,0.146597
796.974620,0.144461
797.269120,0.146858
797.563580,0.151908
797.858000,0.145027
798.152380,0.145398
798.446720,0.150000
798.741020,0.145609
799.035280,0.148292
799.329500,0.143957
799.623680,0.144186
