399.985280,0.256757
400.329500,0.216216
400.673680,0.265823
401.017820,0.205882
401.361920,0.227273
401.705980,0.219512
402.050000,0.142857
402.393980,0.223529
402.737920,0.303371
403.081820,0.216495
403.425680,0.220930
403.769500,0.166667
404.113280,0.183908
404.457020,0.235955
404.800720,0.217391
405.144380,0.262626
405.488000,0.215054
405.831580,0.226804
406.175120,0.234043
406.518620,0.250000
406.862080,0.247423
407.205500,0.218750
407.548880,0.234694
407.892220,0.205882
408.235520,0.191489
408.578780,0.209524
408.922000,0.211538
409.265180,0.222222
409.608320,0.212121
409.951420,0.278351
410.294480,0.264706
410.637500,0.239130
410.980480,0.254902
411.323420,0.224490
411.666320,0.220183
412.009180,0.254545
412.352000,0.227723
412.694780,0.238532
413.037520,0.238532
413.380220,0.261261
413.722880,0.250000
414.065500,0.270270
414.408080,0.265487
414.750620,0.230088
415.093120,0.206612
415.435580,0.252101
415.778000,0.212121
416.120380,0.210084
416.462720,0.190476
416.805020,0.255639
417.147280,0.246269
417.489500,0.257143
417.831680,0.239726
418.173820,0.205674
418.515920,0.230769
418.857980,0.196203
419.200000,0.230769
419.541980,0.236686
419.883920,0.247191
420.225820,0.225434
420.567680,0.223464
420.909500,0.245902
421.251280,0.223958
421.593020,0.255102
421.934720,0.227273
422.276380,0.256410
422.618000,0.230392
422.959580,0.259804
423.301120,0.242009
423.642620,0.213043
423.984080,0.232558
424.325500,0.228700
424.666880,0.232759
425.008220,0.226891
425.349520,0.211864
425.690780,0.211538
426.032000,0.231373
426.373180,0.228216
426.714320,0.242187
427.055420,0.247104
427.396480,0.239700
427.737500,0.201581
428.078480,0.237154
428.419420,0.253012
428.760320,0.206897
429.101180,0.232283
429.442000,0.241379
429.782780,0.238462
430.123520,0.270588
430.464220,0.217712
430.804880,0.229885
431.145500,0.196364
431.486080,0.224719
431.826620,0.248062
432.167120,0.231618
432.507580,0.228261
432.848000,0.226619
433.188380,0.231047
433.528720,0.222642
433.869020,0.232143
434.209280,0.221053
434.549500,0.229965
434.889680,0.245791
435.229820,0.225256
435.569920,0.217993
435.909980,0.200647
436.250000,0.240678
436.589980,0.216718
436.929920,0.247619
437.269820,0.206897
437.609680,0.236686
437.949500,0.222892
438.289280,0.229462
438.629020,0.244186
438.968720,0.229651
439.308380,0.219512
439.648000,0.221918
439.987580,0.235450
440.327120,0.240000
440.666620,0.244156
441.006080,0.235294
441.345500,0.228501
441.684880,0.215311
442.024220,0.220844
442.363520,0.226190
442.702780,0.227273
443.042000,0.218062
443.381180,0.221983
443.720320,0.218143
444.059420,0.226891
444.398480,0.238494
444.737500,0.219262
445.076480,0.218254
445.415420,0.223553
445.754320,0.218295
446.093180,0.222018
446.432000,0.233083
446.770780,0.222011
447.109520,0.224265
447.448220,0.216458
447.786880,0.228980
448.125500,0.218966
448.464080,0.214286
448.802620,0.228723
449.141120,0.214533
449.479580,0.222028
449.818000,0.222031
450.156380,0.214047
450.494720,0.211570
450.833020,0.227273
451.171280,0.212329
451.509500,0.245645
451.847680,0.231029
452.185820,0.220310
452.523920,0.230241
452.861980,0.222597
453.200000,0.212625
453.537980,0.221849
453.875920,0.221849
454.213820,0.220890
454.551680,0.210265
454.889500,0.212479
455.227280,0.211744
455.565020,0.211055
455.902720,0.236273
456.240380,0.207987
456.578000,0.228223
456.915580,0.207254
457.253120,0.207237
457.590620,0.223317
457.928080,0.222222
458.265500,0.219595
458.602880,0.217532
458.940220,0.216582
459.277520,0.214400
459.614780,0.227496
459.952000,0.212733
460.289180,0.213608
460.626320,0.209449
460.963420,0.226171
461.300480,0.220183
461.637500,0.214176
461.974480,0.217125
462.311420,0.207154
462.648320,0.207906
462.985180,0.203730
463.322000,0.218750
463.658780,0.200276
463.995520,0.211829
464.332220,0.200831
464.668880,0.206989
465.005500,0.205094
465.342080,0.213828
465.678620,0.212792
466.015120,0.208279
466.351580,0.216182
466.688000,0.220463
467.024380,0.201701
467.360720,0.205682
467.697020,0.218679
468.033280,0.211111
468.369500,0.211921
468.705680,0.209696
469.041820,0.206250
469.377920,0.203905
469.713980,0.210093
470.050000,0.211594
470.385980,0.201566
470.721920,0.206660
471.057820,0.210526
471.393680,0.208606
471.729500,0.205746
472.065280,0.208408
472.401020,0.212766
472.736720,0.207679
473.072380,0.208259
473.408000,0.201915
473.743580,0.208478
474.079120,0.214470
474.414620,0.203562
474.750080,0.206672
475.085500,0.211349
475.420880,0.203997
475.756220,0.210957
476.091520,0.208866
476.426780,0.207929
476.762000,0.205953
477.097180,0.203200
477.432320,0.210824
477.767420,0.196078
478.102480,0.204724
478.437500,0.199507
478.772480,0.204098
479.107420,0.200976
479.442320,0.199041
479.777180,0.206046
480.112000,0.200308
480.446780,0.197973
480.781520,0.199678
481.116220,0.196443
481.450880,0.202186
481.785500,0.210443
482.120080,0.204545
482.454620,0.202797
482.789120,0.199045
483.123580,0.204829
483.458000,0.201741
483.792380,0.207668
484.126720,0.206178
484.461020,0.201405
484.795280,0.208944
485.129500,0.204988
485.463680,0.196899
485.797820,0.215397
486.131920,0.204285
486.465980,0.207722
486.800000,0.206107
487.133980,0.202417
487.467920,0.201224
487.801820,0.209001
488.135680,0.202426
488.469500,0.195915
488.803280,0.192422
489.137020,0.196337
489.470720,0.201039
489.804380,0.200445
490.138000,0.206231
490.471580,0.204864
490.805120,0.203717
491.138620,0.191187
491.472080,0.200707
491.805500,0.203626
492.138880,0.197359
492.472220,0.201384
492.805520,0.206704
493.138780,0.201930
493.472000,0.197324
493.805180,0.202592
494.138320,0.202135
494.471420,0.195312
494.804480,0.195990
495.137500,0.190629
495.470480,0.202677
495.803420,0.192695
496.136320,0.201128
496.469180,0.201964
496.802000,0.197433
497.134780,0.200728
497.467520,0.210398
497.800220,0.195165
498.132880,0.195179
498.465500,0.198725
498.798080,0.195205
499.130620,0.201011
499.463120,0.200449
499.795580,0.194169
500.128000,0.195640
500.460380,0.194295
500.792720,0.197243
501.125020,0.199685
501.457280,0.198433
501.789500,0.200413
502.121680,0.195956
502.453820,0.197348
502.785920,0.189595
503.117980,0.192836
503.450000,0.201406
503.781980,0.199801
504.113920,0.193931
504.445820,0.191541
504.777680,0.185882
505.109500,0.195673
505.441280,0.193117
505.773020,0.196336
506.104720,0.191239
506.436380,0.202082
506.768000,0.194107
507.099580,0.191762
507.431120,0.196721
507.762620,0.200658
508.094080,0.194166
508.425500,0.198880
508.756880,0.188843
509.088220,0.194572
509.419520,0.189944
509.750780,0.194002
510.082000,0.192164
510.413180,0.193459
510.744320,0.191440
511.075420,0.192026
511.406480,0.196521
511.737500,0.192130
512.068480,0.200658
512.399420,0.193897
512.730320,0.187529
513.061180,0.196004
513.392000,0.190724
513.722780,0.193084
514.053520,0.188788
514.384220,0.187916
514.714880,0.191479
515.045500,0.189176
515.376080,0.184988
515.706620,0.190940
516.037120,0.189706
516.367580,0.191227
516.698000,0.187255
517.028380,0.192651
517.358720,0.189136
517.689020,0.191889
518.019280,0.192173
518.349500,0.190066
518.679680,0.183746
519.009820,0.191296
519.339920,0.195892
519.669980,0.188348
520.000000,0.184921
520.329980,0.191809
520.659920,0.192229
520.989820,0.186791
521.319680,0.192901
521.649500,0.185604
521.979280,0.187370
522.309020,0.184647
522.638720,0.181260
522.968380,0.189245
523.298000,0.186326
523.627580,0.189343
523.957120,0.189610
524.286620,0.192809
524.616080,0.190279
524.945500,0.186563
525.274880,0.187789
525.604220,0.189959
525.933520,0.188155
526.262780,0.183984
526.592000,0.187722
526.921180,0.192483
527.250320,0.182648
527.579420,0.187468
527.908480,0.186608
528.237500,0.191658
528.566480,0.189122
528.895420,0.188763
529.224320,0.188707
529.553180,0.186506
529.882000,0.191727
530.210780,0.190637
530.539520,0.191755
530.868220,0.183820
531.196880,0.187769
531.525500,0.191768
531.854080,0.182927
532.182620,0.183092
532.511120,0.188863
532.839580,0.186933
533.168000,0.188241
533.496380,0.191324
533.824720,0.186182
534.153020,0.185466
534.481280,0.184141
534.809500,0.187335
535.137680,0.189236
535.465820,0.184708
535.793920,0.184433
536.121980,0.183802
536.450000,0.186469
536.777980,0.189359
537.105920,0.191366
537.433820,0.189034
537.761680,0.188980
538.089500,0.188183
538.417280,0.188619
538.745020,0.187005
539.072720,0.186255
539.400380,0.180653
539.728000,0.188145
540.055580,0.186142
540.383120,0.186150
540.710620,0.184524
541.038080,0.187754
541.365500,0.185662
541.692880,0.183503
542.020220,0.183519
542.347520,0.189160
542.674780,0.183486
543.002000,0.185444
543.329180,0.186952
543.656320,0.181435
543.983420,0.183248
544.310480,0.182467
544.637500,0.185602
544.964480,0.183715
545.291420,0.182120
545.618320,0.186255
545.945180,0.181938
546.272000,0.182503
546.598780,0.182563
546.925520,0.182657
547.252220,0.186860
547.578880,0.187683
547.905500,0.185621
548.232080,0.181611
548.558620,0.182883
548.885120,0.184822
549.211580,0.180328
549.538000,0.184825
549.864380,0.184887
550.190720,0.181466
550.517020,0.183833
550.843280,0.187296
551.169500,0.184160
551.495680,0.186925
551.821820,0.183540
552.147920,0.190631
552.473980,0.183734
552.800000,0.182799
553.125980,0.185331
553.451920,0.185468
553.777820,0.185543
554.103680,0.184361
554.429500,0.179779
554.755280,0.185915
555.081020,0.177473
555.406720,0.179817
555.732380,0.179939
556.058000,0.177529
556.383580,0.181445
556.709120,0.183666
557.034620,0.184292
557.360080,0.180311
557.685500,0.181189
558.010880,0.180589
558.336220,0.174692
558.661520,0.181141
558.986780,0.180723
559.312000,0.181624
559.637180,0.180610
559.962320,0.184763
560.287420,0.181594
560.612480,0.176893
560.937500,0.179515
561.262480,0.177419
561.587420,0.175190
561.912320,0.180914
562.237180,0.178016
562.562000,0.180322
562.886780,0.183203
563.211520,0.179210
563.536220,0.179592
563.860880,0.178046
564.185500,0.177111
564.510080,0.178706
564.834620,0.181615
565.159120,0.173684
565.483580,0.178639
565.808000,0.177072
566.132380,0.177919
566.456720,0.184429
566.781020,0.177419
567.105280,0.175047
567.429500,0.180577
567.753680,0.179517
568.077820,0.179358
568.401920,0.183728
568.725980,0.180645
569.050000,0.174525
569.373980,0.174343
569.697920,0.175199
570.021820,0.175655
570.345680,0.179104
570.669500,0.181992
570.993280,0.178664
571.317020,0.176836
571.640720,0.177844
571.964380,0.179287
572.288000,0.177671
572.611580,0.177462
572.935120,0.179199
573.258620,0.181376
573.582080,0.173621
573.905500,0.179449
574.228880,0.181886
574.552220,0.176988
574.875520,0.175726
575.198780,0.172027
575.522000,0.177786
575.845180,0.175860
576.168320,0.175350
576.491420,0.181323
576.814480,0.178662
577.137500,0.173882
577.460480,0.176876
577.783420,0.175420
578.106320,0.179487
578.429180,0.177448
578.752000,0.174019
579.074780,0.178355
579.397520,0.173338
579.720220,0.176641
580.042880,0.176412
580.365500,0.176704
580.688080,0.177069
581.010620,0.175498
581.333120,0.177021
581.655580,0.176490
581.978000,0.178916
582.300380,0.175268
582.622720,0.177653
582.945020,0.175553
583.267280,0.177141
583.589500,0.175923
583.911680,0.175929
584.233820,0.171860
584.555920,0.176174
584.877980,0.175251
585.200000,0.175261
585.521980,0.176398
585.843920,0.174192
586.165820,0.173675
586.487680,0.169425
586.809500,0.174917
587.131280,0.173026
587.453020,0.176488
587.774720,0.177114
588.096380,0.175029
588.418000,0.174715
588.739580,0.174188
589.061120,0.177401
589.382620,0.176218
589.704080,0.176438
590.025500,0.176370
590.346880,0.174817
590.668220,0.173621
590.989520,0.172768
591.310780,0.175090
591.632000,0.175956
591.953180,0.178799
592.274320,0.175266
592.595420,0.171875
592.916480,0.173594
593.237500,0.177041
593.558480,0.175410
593.879420,0.177232
594.200320,0.177337
594.521180,0.174502
594.842000,0.175712
595.162780,0.175481
595.483520,0.175485
595.804220,0.172395
596.124880,0.175326
596.445500,0.169767
596.766080,0.176392
597.086620,0.173832
597.407120,0.172196
597.727580,0.175020
598.048000,0.175879
598.368380,0.175434
598.688720,0.172739
599.009020,0.176486
599.329280,0.174029
599.649500,0.169836
599.969680,0.171474
600.289820,0.175481
600.609920,0.170184
600.929980,0.173169
601.250000,0.172973
601.569980,0.170672
601.889920,0.169741
602.209820,0.176136
602.529680,0.177149
602.849500,0.171031
603.169280,0.173326
603.489020,0.176031
603.808720,0.172518
604.128380,0.173565
604.448000,0.171823
604.767580,0.174022
605.087120,0.169806
605.406620,0.170445
605.726080,0.175364
606.045500,0.171357
606.364880,0.171250
606.684220,0.171616
607.003520,0.169151
607.322780,0.171688
607.642000,0.170879
607.961180,0.172304
608.280320,0.169954
608.599420,0.168308
608.918480,0.172727
609.237500,0.172535
609.556480,0.171648
609.875420,0.170703
610.194320,0.167995
610.513180,0.169281
610.832000,0.170042
611.150780,0.173626
611.469520,0.173756
611.788220,0.171100
612.106880,0.168275
612.425500,0.170219
612.744080,0.174207
613.062620,0.167890
613.381120,0.169714
613.699580,0.172594
614.018000,0.167383
614.336380,0.170574
614.654720,0.169922
614.973020,0.170318
615.291280,0.167338
615.609500,0.169889
615.927680,0.167491
616.245820,0.168831
616.563920,0.174386
616.881980,0.166199
617.200000,0.166407
617.517980,0.164904
617.835920,0.165579
618.153820,0.169723
618.471680,0.168372
618.789500,0.166772
619.107280,0.166510
619.425020,0.165874
619.742720,0.166667
620.060380,0.170166
620.378000,0.169289
620.695580,0.166347
621.013120,0.162835
621.330620,0.165673
621.648080,0.166246
621.965500,0.168758
622.282880,0.166456
622.600220,0.167720
622.917520,0.167297
623.234780,0.167792
623.552000,0.166773
623.869180,0.167980
624.186320,0.168418
624.503420,0.164890
624.820480,0.166510
625.137500,0.166404
625.454480,0.166302
625.771420,0.165195
626.088320,0.169924
626.405180,0.167082
626.722000,0.165621
627.038780,0.169173
627.355520,0.164375
627.672220,0.170140
627.988880,0.164230
628.305500,0.168277
628.622080,0.164498
628.938620,0.166972
629.255120,0.166459
629.571580,0.165185
629.888000,0.165388
630.204380,0.163854
630.520720,0.164229
630.837020,0.164354
631.153280,0.163070
631.469500,0.168284
631.785680,0.169681
632.101820,0.164958
632.417920,0.167809
632.733980,0.163866
633.050000,0.166465
633.365980,0.166568
633.681920,0.164678
633.997820,0.164973
634.313680,0.170746
634.629500,0.164258
634.945280,0.165396
635.261020,0.165542
635.576720,0.167939
635.892380,0.165844
636.208000,0.166182
636.523580,0.164279
636.839120,0.164157
637.154620,0.164928
637.470080,0.165567
637.785500,0.165592
638.100880,0.165653
638.416220,0.169111
638.731520,0.164470
639.046780,0.163997
639.362000,0.163991
639.677180,0.163906
639.992320,0.167184
640.307420,0.162967
640.622480,0.166900
640.937500,0.169209
641.252480,0.165317
641.567420,0.164251
641.882320,0.165089
642.197180,0.161707
642.512000,0.165407
642.826780,0.164771
643.141520,0.163657
643.456220,0.165191
643.770880,0.166390
644.085500,0.162102
644.400080,0.165169
644.714620,0.165273
645.029120,0.162541
645.343580,0.164015
645.658000,0.162920
645.972380,0.166073
646.286720,0.164350
646.601020,0.165237
646.915280,0.163970
647.229500,0.167308
647.543680,0.163215
647.857820,0.165979
648.171920,0.162778
648.485980,0.162784
648.800000,0.163681
649.113980,0.163525
649.427920,0.163384
649.741820,0.161858
650.055680,0.164290
650.369500,0.165359
650.683280,0.162042
650.997020,0.168592
651.310720,0.160429
651.624380,0.161264
651.938000,0.163712
652.251580,0.161147
652.565120,0.161822
652.878620,0.163288
653.192080,0.164045
653.505500,0.161290
653.818880,0.165198
654.132220,0.162632
654.445520,0.162791
654.758780,0.164023
655.072000,0.158453
655.385180,0.160342
655.698320,0.159188
656.011420,0.162797
656.324480,0.162343
656.637500,0.161935
656.950480,0.160599
657.263420,0.162873
657.576320,0.159502
657.889180,0.159835
658.202000,0.158816
658.514780,0.160464
658.827520,0.158163
659.140220,0.163021
659.452880,0.160375
659.765500,0.160144
660.078080,0.157388
660.390620,0.155515
660.703120,0.160403
661.015580,0.160123
661.328000,0.161524
661.640380,0.163405
661.952720,0.162878
662.265020,0.162886
662.577280,0.159987
662.889500,0.158625
663.201680,0.158902
663.513820,0.156320
663.825920,0.154339
664.137980,0.156432
664.450000,0.156010
664.761980,0.158101
665.073920,0.157092
665.385820,0.161649
665.697680,0.159669
666.009500,0.159628
666.321280,0.160371
666.633020,0.157912
666.944720,0.158072
667.256380,0.156797
667.568000,0.158628
667.879580,0.157483
668.191120,0.157624
668.502620,0.154742
668.814080,0.161053
669.125500,0.158399
669.436880,0.158714
669.748220,0.156456
670.059520,0.159664
670.370780,0.159708
670.682000,0.157876
670.993180,0.157858
671.304320,0.154360
671.615420,0.156250
671.926480,0.162172
672.237500,0.155055
672.548480,0.152945
672.859420,0.157970
673.170320,0.153428
673.481180,0.158943
673.792000,0.150739
674.102780,0.157989
674.413520,0.157127
674.724220,0.156443
675.034880,0.158049
675.345500,0.156820
675.656080,0.158258
675.966620,0.159331
676.277120,0.158184
676.587580,0.159057
676.898000,0.154162
677.208380,0.154159
677.518720,0.152079
677.829020,0.160754
678.139280,0.154930
678.449500,0.153361
678.759680,0.155114
679.069820,0.157621
679.379920,0.162957
679.689980,0.157445
680.000000,0.152150
680.309980,0.158500
680.619920,0.154108
680.929820,0.156028
681.239680,0.150665
681.549500,0.153333
681.859280,0.157207
682.169020,0.156658
682.478720,0.157442
682.788380,0.153562
683.098000,0.158190
683.407580,0.157223
683.717120,0.153153
684.026620,0.154367
684.336080,0.154225
684.645500,0.151515
684.954880,0.146203
685.264220,0.151755
685.573520,0.154930
685.882780,0.157652
686.192000,0.152746
686.501180,0.150965
686.810320,0.156034
687.119420,0.154314
687.428480,0.152678
687.737500,0.149655
688.046480,0.152991
688.355420,0.153904
688.664320,0.150727
688.973180,0.154671
689.282000,0.149306
689.590780,0.154525
689.899520,0.151538
690.208220,0.154052
690.516880,0.156166
690.825500,0.154717
691.134080,0.151101
691.442620,0.151677
691.751120,0.151688
692.059580,0.155904
692.368000,0.148807
692.676380,0.153435
692.984720,0.150763
693.293020,0.153116
693.601280,0.149943
693.909500,0.151722
694.217680,0.154608
694.525820,0.154989
694.833920,0.153377
695.141980,0.156961
695.450000,0.153053
695.757980,0.152024
696.065920,0.149903
696.373820,0.150115
696.681680,0.150748
696.989500,0.152837
697.297280,0.150525
697.605020,0.150794
697.912720,0.157955
698.220380,0.149154
698.528000,0.151899
698.835580,0.149743
699.143120,0.146532
699.450620,0.153938
699.758080,0.151765
700.065500,0.150439
700.372880,0.152800
700.680220,0.151177
700.987520,0.153571
701.294780,0.155718
701.602000,0.150158
701.909180,0.148649
702.216320,0.150567
702.523420,0.148382
702.830480,0.154851
703.137500,0.148870
703.444480,0.155030
703.751420,0.148718
704.058320,0.151563
704.365180,0.150631
704.672000,0.149307
704.978780,0.151385
705.285520,0.146322
705.592220,0.154118
705.898880,0.148936
706.205500,0.147887
706.512080,0.150079
706.818620,0.150542
707.125120,0.152692
707.431580,0.147323
707.738000,0.151953
708.044380,0.149363
708.350720,0.147879
708.657020,0.150840
708.963280,0.149845
709.269500,0.150685
709.575680,0.152063
709.881820,0.152123
710.187920,0.151362
710.493980,0.152444
710.800000,0.151030
711.105980,0.146084
711.411920,0.150966
711.717820,0.148148
712.023680,0.146522
712.329500,0.150631
712.635280,0.155426
712.941020,0.151913
713.246720,0.148221
713.552380,0.148744
713.858000,0.146236
714.163580,0.146803
714.469120,0.145760
714.774620,0.144098
715.080080,0.149195
715.385500,0.151079
715.690880,0.145168
715.996220,0.145800
716.301520,0.150988
716.606780,0.146226
716.912000,0.149031
717.217180,0.146848
717.522320,0.150298
717.827420,0.149715
718.132480,0.150542
718.437500,0.143090
718.742480,0.148387
719.047420,0.148463
719.352320,0.149440
719.657180,0.150450
719.962000,0.150538
720.266780,0.149979
720.571520,0.147059
720.876220,0.150164
721.180880,0.148411
721.485500,0.142917
721.790080,0.146921
722.094620,0.145798
722.399120,0.150366
722.703580,0.146164
723.008000,0.152652
723.312380,0.147223
723.616720,0.146196
723.921020,0.148549
724.225280,0.143979
724.529500,0.143608
724.833680,0.148132
725.137820,0.145815
725.441920,0.148016
725.745980,0.144519
726.050000,0.147948
726.353980,0.142857
726.657920,0.148898
726.961820,0.146575
727.265680,0.149792
727.569500,0.144424
727.873280,0.140878
728.177020,0.147858
728.480720,0.144907
728.784380,0.147487
729.088000,0.146020
729.391580,0.144481
729.695120,0.146833
729.998620,0.145315
730.302080,0.152331
730.605500,0.142649
730.908880,0.146007
731.212220,0.142997
731.515520,0.147733
731.818780,0.145631
732.122000,0.145669
732.425180,0.141942
732.728320,0.147744
733.031420,0.140852
733.334480,0.145918
733.637500,0.138609
733.940480,0.146366
734.243420,0.145260
734.546320,0.143672
734.849180,0.146178
735.152000,0.140560
735.454780,0.145145
735.757520,0.142782
736.060220,0.146393
736.362880,0.148109
736.665500,0.140470
736.968080,0.145621
737.270620,0.146434
737.573120,0.150655
737.875580,0.145135
738.178000,0.143168
738.480380,0.144324
738.782720,0.145038
739.085020,0.134912
739.387280,0.145233
739.689500,0.143828
739.991680,0.144301
740.293820,0.145384
740.595920,0.143573
740.897980,0.146245
741.200000,0.144139
741.501980,0.153009
741.803920,0.137950
742.105820,0.135364
742.407680,0.144438
742.709500,0.142045
743.011280,0.144197
743.313020,0.143768
743.614720,0.147998
743.916380,0.140698
744.218000,0.145585
744.519580,0.145531
744.821120,0.144311
745.122620,0.146195
745.424080,0.136418
745.725500,0.144840
746.026880,0.144704
746.328220,0.141184
746.629520,0.140879
746.930780,0.140931
747.232000,0.141631
747.533180,0.142160
747.834320,0.149117
748.135420,0.146053
748.436480,0.144105
748.737500,0.142063
749.038480,0.136836
749.339420,0.144991
749.640320,0.142049
749.941180,0.141162
750.242000,0.140075
750.542780,0.138337
750.843520,0.142857
751.144220,0.144872
751.444880,0.150285
751.745500,0.142208
752.046080,0.142399
752.346620,0.141753
752.647120,0.145656
752.947580,0.139069
753.248000,0.141199
753.548380,0.139883
753.848720,0.143593
754.149020,0.132818
754.449280,0.139199
754.749500,0.140677
755.049680,0.135333
755.349820,0.142095
755.649920,0.140780
755.949980,0.143331
756.250000,0.144642
756.549980,0.132013
756.849920,0.144799
757.149820,0.143047
757.449680,0.139274
757.749500,0.139059
758.049280,0.139932
758.349020,0.140473
758.648720,0.144237
758.948380,0.139519
759.248000,0.138814
759.547580,0.133154
759.847120,0.130255
760.146620,0.142084
760.446080,0.146505
760.745500,0.139860
761.044880,0.137784
761.344220,0.141126
761.643520,0.144774
761.942780,0.139258
762.242000,0.142150
762.541180,0.139437
762.840320,0.140449
763.139420,0.139241
763.438480,0.134655
763.737500,0.140593
764.036480,0.145353
764.335420,0.140438
764.634320,0.137907
764.933180,0.145205
765.232000,0.147120
765.530780,0.141053
765.829520,0.142657
766.128220,0.148225
766.426880,0.140725
766.725500,0.143249
767.024080,0.137860
767.322620,0.138313
767.621120,0.149051
767.919580,0.137884
768.218000,0.140219
768.516380,0.138607
768.814720,0.137174
769.113020,0.139214
769.411280,0.141575
769.709500,0.137348
770.007680,0.132924
770.305820,0.139283
770.603920,0.129380
770.901980,0.140710
771.200000,0.137228
771.497980,0.138740
771.795920,0.134448
772.093820,0.139037
772.391680,0.139090
772.689500,0.136486
772.987280,0.142761
773.285020,0.140807
773.582720,0.134459
773.880380,0.137955
774.178000,0.144513
774.475580,0.141326
774.773120,0.133869
775.070620,0.145368
775.368080,0.130261
775.665500,0.135662
775.962880,0.137425
776.260220,0.140646
776.557520,0.144763
776.854780,0.141312
777.152000,0.133952
777.449180,0.139582
777.746320,0.132392
778.043420,0.136426
778.340480,0.132612
778.637500,0.141312
778.934480,0.132482
779.231420,0.140434
779.528320,0.140281
779.825180,0.137022
780.122000,0.138114
780.418780,0.138851
780.715520,0.140174
781.012220,0.141781
781.308880,0.138607
781.605500,0.138356
781.902080,0.131417
782.198620,0.140123
782.495120,0.141975
782.791580,0.141678
783.088000,0.136646
783.384380,0.134113
783.680720,0.140903
783.977020,0.134205
784.273280,0.139161
784.569500,0.133473
784.865680,0.138387
785.161820,0.136111
785.457920,0.139293
785.753980,0.132589
786.050000,0.129834
786.345980,0.138889
786.641920,0.138099
786.937820,0.143875
787.233680,0.127349
787.529500,0.135922
787.825280,0.134561
788.121020,0.132436
788.416720,0.131263
788.712380,0.139633
789.008000,0.133853
789.303580,0.134982
789.599120,0.139636
789.894620,0.139350
790.190080,0.129804
790.485500,0.128870
790.780880,0.131900
791.076220,0.137807
791.371520,0.135076
791.666780,0.144727
791.962000,0.138868
792.257180,0.139824
792.552320,0.139956
792.847420,0.139738
793.142480,0.136996
793.437500,0.137482
793.732480,0.134601
794.027420,0.133531
794.322320,0.134228
794.617180,0.134473
794.912000,0.131501
795.206780,0.134228
795.501520,0.139924
795.796220,0.128889
796.090880,0.135644
796.385500,0.131184
796.680080,0.136874
796.974620,0.142216
797.269120,0.133989
797.563580,0.141985
797.858000,0.142749
798.152380,0.133024
798.446720,0.135385
798.741020,0.138675
799.035280,0.134317
799.329500,0.140878
799.623680,0.145736
