399.985280,0.189189
400.329500,0.135135
400.673680,0.177215
401.017820,0.176471
401.361920,0.227273
401.705980,0.182927
402.050000,0.090909
402.393980,0.200000
402.737920,0.213483
403.081820,0.216495
403.425680,0.186047
403.769500,0.166667
404.113280,0.149425
404.457020,0.202247
404.800720,0.163043
405.144380,0.242424
405.488000,0.150538
405.831580,0.164948
406.175120,0.117021
406.518620,0.220000
406.862080,0.206186
407.205500,0.197917
407.548880,0.193878
407.892220,0.186275
408.235520,0.180851
408.578780,0.209524
408.922000,0.182692
409.265180,0.222222
409.608320,0.171717
409.951420,0.247423
410.294480,0.245098
410.637500,0.163043
410.980480,0.215686
411.323420,0.193878
411.666320,0.211009
412.009180,0.200000
412.352000,0.178218
412.694780,0.201835
413.037520,0.165138
413.380220,0.243243
413.722880,0.196429
414.065500,0.225225
414.408080,0.176991
414.750620,0.185841
415.093120,0.206612
415.435580,0.226891
415.778000,0.212121
416.120380,0.142857
416.462720,0.190476
416.805020,0.218045
417.147280,0.171642
417.489500,0.200000
417.831680,0.184932
418.173820,0.141844
418.515920,0.216783
418.857980,0.202532
419.200000,0.179487
419.541980,0.201183
419.883920,0.191011
420.225820,0.236994
420.567680,0.206704
420.909500,0.213115
421.251280,0.213542
421.593020,0.198980
421.934720,0.202020
422.276380,0.189744
422.618000,0.200980
422.959580,0.200980
423.301120,0.223744
423.642620,0.173913
423.984080,0.200000
424.325500,0.183857
424.666880,0.185345
425.008220,0.163866
425.349520,0.203390
425.690780,0.180769
426.032000,0.168627
426.373180,0.186722
426.714320,0.191406
427.055420,0.196911
427.396480,0.217228
427.737500,0.201581
428.078480,0.197628
428.419420,0.176707
428.760320,0.187739
429.101180,0.216535
429.442000,0.210728
429.782780,0.207692
430.123520,0.200000
430.464220,0.199262
430.804880,0.222222
431.145500,0.181818
431.486080,0.179775
431.826620,0.162791
432.167120,0.183824
432.507580,0.210145
432.848000,0.183453
433.188380,0.187726
433.528720,0.188679
433.869020,0.200000
434.209280,0.168421
434.549500,0.212544
434.889680,0.205387
435.229820,0.194539
435.569920,0.162630
435.909980,0.177994
436.250000,0.196610
436.589980,0.160991
436.929920,0.190476
437.269820,0.188088
437.609680,0.204142
437.949500,0.171687
438.289280,0.186969
438.629020,0.194767
438.968720,0.186047
439.308380,0.157182
439.648000,0.186301
439.987580,0.171958
440.327120,0.192000
440.666620,0.184416
441.006080,0.204604
441.345500,0.194103
441.684880,0.177033
442.024220,0.186104
442.363520,0.176190
442.702780,0.188636
443.042000,0.191630
443.381180,0.198276
443.720320,0.196544
444.059420,0.180672
444.398480,0.165272
444.737500,0.190574
445.076480,0.178571
445.415420,0.173653
445.754320,0.176715
446.093180,0.177982
446.432000,0.174812
446.770780,0.199241
447.109520,0.194853
447.448220,0.184258
447.786880,0.182469
448.125500,0.184483
448.464080,0.185714
448.802620,0.187943
449.141120,0.186851
449.479580,0.181818
449.818000,0.185886
450.156380,0.187291
450.494720,0.183471
450.833020,0.183566
451.171280,0.159247
451.509500,0.198606
451.847680,0.175379
452.185820,0.173838
452.523920,0.171821
452.861980,0.175379
453.200000,0.177741
453.537980,0.183193
453.875920,0.189916
454.213820,0.174658
454.551680,0.177152
454.889500,0.166948
455.227280,0.174377
455.565020,0.189280
455.902720,0.179700
456.240380,0.164725
456.578000,0.175958
456.915580,0.164076
457.253120,0.174342
457.590620,0.175698
457.928080,0.180135
458.265500,0.182432
458.602880,0.183442
458.940220,0.177665
459.277520,0.177600
459.614780,0.178396
459.952000,0.184783
460.289180,0.189873
460.626320,0.176378
460.963420,0.174475
461.300480,0.174312
461.637500,0.169492
461.974480,0.189602
462.311420,0.172876
462.648320,0.180088
462.985180,0.162123
463.322000,0.177083
463.658780,0.171271
463.995520,0.171939
464.332220,0.168975
464.668880,0.176075
465.005500,0.190349
465.342080,0.180538
465.678620,0.164822
466.015120,0.173351
466.351580,0.174463
466.688000,0.182704
467.024380,0.168894
467.360720,0.167045
467.697020,0.176538
468.033280,0.173333
468.369500,0.176600
468.705680,0.178129
469.041820,0.168750
469.377920,0.169197
469.713980,0.175077
470.050000,0.175845
470.385980,0.164384
470.721920,0.168462
471.057820,0.166667
471.393680,0.171188
471.729500,0.164041
472.065280,0.174419
472.401020,0.166667
472.736720,0.178010
473.072380,0.168761
473.408000,0.173194
473.743580,0.174740
474.079120,0.177433
474.414620,0.170483
474.750080,0.170871
475.085500,0.173520
475.420880,0.174022
475.756220,0.169256
476.091520,0.170503
476.426780,0.168285
476.762000,0.165728
477.097180,0.164800
477.432320,0.169628
477.767420,0.167484
478.102480,0.162992
478.437500,0.165025
478.772480,0.161545
479.107420,0.168430
479.442320,0.166267
479.777180,0.168656
480.112000,0.166410
480.446780,0.166017
480.781520,0.165862
481.116220,0.176233
481.450880,0.163934
481.785500,0.169304
482.120080,0.167712
482.454620,0.168609
482.789120,0.168790
483.123580,0.169003
483.458000,0.168513
483.792380,0.164537
484.126720,0.168340
484.461020,0.163154
484.795280,0.169622
485.129500,0.172253
485.463680,0.166667
485.797820,0.167963
486.131920,0.163734
486.465980,0.172201
486.800000,0.174046
487.133980,0.167674
487.467920,0.165264
487.801820,0.167048
488.135680,0.169067
488.469500,0.169440
488.803280,0.172363
489.137020,0.164103
489.470720,0.168398
489.804380,0.170007
490.138000,0.164688
490.471580,0.168755
490.805120,0.160829
491.138620,0.159204
491.472080,0.168905
491.805500,0.164575
492.138880,0.161223
492.472220,0.165398
492.805520,0.166201
493.138780,0.166782
493.472000,0.162542
493.805180,0.173943
494.138320,0.165444
494.471420,0.164062
494.804480,0.162354
495.137500,0.169448
495.470480,0.166985
495.803420,0.165617
496.136320,0.161028
496.469180,0.165746
496.802000,0.158313
497.134780,0.166161
497.467520,0.175535
497.800220,0.161557
498.132880,0.164609
498.465500,0.163963
498.798080,0.163242
499.130620,0.168445
499.463120,0.166760
499.795580,0.160616
500.128000,0.161853
500.460380,0.161464
500.792720,0.161188
501.125020,0.158171
501.457280,0.163969
501.789500,0.168388
502.121680,0.170036
502.453820,0.164712
502.785920,0.163582
503.117980,0.162905
503.450000,0.163737
503.781980,0.165919
504.113920,0.159791
504.445820,0.160914
504.777680,0.163294
505.109500,0.161538
505.441280,0.163480
505.773020,0.158290
506.104720,0.154969
506.436380,0.164695
506.768000,0.161833
507.099580,0.159268
507.431120,0.169555
507.762620,0.163064
508.094080,0.160438
508.425500,0.165266
508.756880,0.160951
509.088220,0.159614
509.419520,0.162942
509.750780,0.159794
510.082000,0.163713
510.413180,0.157992
510.744320,0.158767
511.075420,0.159028
511.406480,0.163611
511.737500,0.161111
512.068480,0.158835
512.399420,0.164319
512.730320,0.156582
513.061180,0.164129
513.392000,0.159489
513.722780,0.165706
514.053520,0.158122
514.384220,0.159372
514.714880,0.160843
515.045500,0.155651
515.376080,0.158354
515.706620,0.157818
516.037120,0.163235
516.367580,0.158206
516.698000,0.157353
517.028380,0.159881
517.358720,0.155556
517.689020,0.164688
518.019280,0.159558
518.349500,0.156107
518.679680,0.154467
519.009820,0.153340
519.339920,0.161323
519.669980,0.154696
520.000000,0.155884
520.329980,0.157595
520.659920,0.157464
520.989820,0.162023
521.319680,0.160494
521.649500,0.154242
521.979280,0.163883
522.309020,0.153527
522.638720,0.151562
522.968380,0.158738
523.298000,0.154489
523.627580,0.159855
523.957120,0.157922
524.286620,0.158937
524.616080,0.158738
524.945500,0.163307
525.274880,0.159569
525.604220,0.159938
525.933520,0.151992
526.262780,0.152560
526.592000,0.153729
526.921180,0.152869
527.250320,0.151700
527.579420,0.158161
527.908480,0.160512
528.237500,0.161370
528.566480,0.161178
528.895420,0.159192
529.224320,0.159485
529.553180,0.158072
529.882000,0.160097
530.210780,0.152510
530.539520,0.152924
530.868220,0.155577
531.196880,0.155757
531.525500,0.159806
531.854080,0.154784
532.182620,0.155535
532.511120,0.154060
532.839580,0.154265
533.168000,0.154057
533.496380,0.158447
533.824720,0.157470
534.153020,0.152920
534.481280,0.152863
534.809500,0.156113
535.137680,0.152344
535.465820,0.152491
535.793920,0.151861
536.121980,0.154008
536.450000,0.161522
536.777980,0.157939
537.105920,0.161893
537.433820,0.155074
537.761680,0.156735
538.089500,0.156212
538.417280,0.153203
538.745020,0.154913
539.072720,0.153846
539.400380,0.156566
539.728000,0.153346
540.055580,0.156554
540.383120,0.155249
540.710620,0.159970
541.038080,0.151236
541.365500,0.155882
541.692880,0.155160
542.020220,0.158690
542.347520,0.158291
542.674780,0.156316
543.002000,0.156753
543.329180,0.156086
543.656320,0.156821
543.983420,0.151111
544.310480,0.154264
544.637500,0.161378
544.964480,0.157806
545.291420,0.154869
545.618320,0.156707
545.945180,0.153922
546.272000,0.153997
546.598780,0.155687
546.925520,0.151006
547.252220,0.149554
547.578880,0.149886
547.905500,0.153595
548.232080,0.155621
548.558620,0.152294
548.885120,0.154727
549.211580,0.151398
549.538000,0.155966
549.864380,0.153055
550.190720,0.151760
550.517020,0.153520
550.843280,0.150489
551.169500,0.151718
551.495680,0.156373
551.821820,0.154474
552.147920,0.153221
552.473980,0.151465
552.800000,0.153368
553.125980,0.154224
553.451920,0.153948
553.777820,0.152898
554.103680,0.153691
554.429500,0.146970
554.755280,0.149533
555.081020,0.151738
555.406720,0.149001
555.732380,0.149441
556.058000,0.151731
556.383580,0.149606
556.709120,0.149897
557.034620,0.151223
557.360080,0.150259
557.685500,0.153181
558.010880,0.147314
558.336220,0.146924
558.661520,0.152074
558.986780,0.149185
559.312000,0.152778
559.637180,0.152244
559.962320,0.150943
560.287420,0.151622
560.612480,0.149623
560.937500,0.148678
561.262480,0.150660
561.587420,0.151614
561.912320,0.149226
562.237180,0.150999
562.562000,0.154508
562.886780,0.150502
563.211520,0.147914
563.536220,0.147310
563.860880,0.149000
564.185500,0.147467
564.510080,0.148232
564.834620,0.148865
565.159120,0.149248
565.483580,0.152033
565.808000,0.146803
566.132380,0.149571
566.456720,0.148148
566.781020,0.147787
567.105280,0.146314
567.429500,0.149848
567.753680,0.149214
568.077820,0.151527
568.401920,0.151642
568.725980,0.149526
569.050000,0.150190
569.373980,0.149220
569.697920,0.152446
570.021820,0.145693
570.345680,0.148106
570.669500,0.149180
570.993280,0.150240
571.317020,0.150895
571.640720,0.149685
571.964380,0.144766
572.288000,0.148368
572.611580,0.149008
572.935120,0.150767
573.258620,0.148841
573.582080,0.147168
573.905500,0.146314
574.228880,0.151819
574.552220,0.148772
574.875520,0.147059
575.198780,0.148536
575.522000,0.150293
575.845180,0.145057
576.168320,0.151635
576.491420,0.148256
576.814480,0.150452
577.137500,0.150433
577.460480,0.150054
577.783420,0.148982
578.106320,0.144587
578.429180,0.150583
578.752000,0.143800
579.074780,0.145314
579.397520,0.150420
579.720220,0.147040
580.042880,0.148001
580.365500,0.146592
580.688080,0.149593
581.010620,0.149173
581.333120,0.145291
581.655580,0.148851
581.978000,0.149983
582.300380,0.146706
582.622720,0.151615
582.945020,0.152796
583.267280,0.147183
583.589500,0.147352
583.911680,0.149254
584.233820,0.148253
584.555920,0.148440
584.877980,0.148555
585.200000,0.147637
585.521980,0.147359
585.843920,0.147956
586.165820,0.148995
586.487680,0.144749
586.809500,0.147915
587.131280,0.150843
587.453020,0.150298
587.774720,0.148137
588.096380,0.148775
588.418000,0.148961
588.739580,0.149468
589.061120,0.148361
589.382620,0.147851
589.704080,0.148107
590.025500,0.151256
590.346880,0.145025
590.668220,0.148978
590.989520,0.148364
591.310780,0.145540
591.632000,0.149727
591.953180,0.148076
592.274320,0.145236
592.595420,0.144666
592.916480,0.142896
593.237500,0.147939
593.558480,0.149852
593.879420,0.145940
594.200320,0.149478
594.521180,0.145551
594.842000,0.148845
595.162780,0.147436
595.483520,0.146238
595.804220,0.143931
596.124880,0.152145
596.445500,0.144878
596.766080,0.147083
597.086620,0.145966
597.407120,0.146393
597.727580,0.144259
598.048000,0.145993
598.368380,0.145450
598.688720,0.147051
599.009020,0.142516
599.329280,0.145024
599.649500,0.143423
599.969680,0.150374
600.289820,0.147703
600.609920,0.144269
600.929980,0.145110
601.250000,0.144595
601.569980,0.142587
601.889920,0.144614
602.209820,0.141775
602.529680,0.148036
602.849500,0.140753
603.169280,0.145495
603.489020,0.144201
603.808720,0.147285
604.128380,0.142936
604.448000,0.141713
604.767580,0.143017
605.087120,0.140166
605.406620,0.143577
605.726080,0.145423
606.045500,0.140708
606.364880,0.143181
606.684220,0.143061
607.003520,0.143635
607.322780,0.146106
607.642000,0.142734
607.961180,0.139925
608.280320,0.143561
608.599420,0.141947
608.918480,0.145748
609.237500,0.139085
609.556480,0.143830
609.875420,0.142056
610.194320,0.141128
610.513180,0.138798
610.832000,0.142049
611.150780,0.137879
611.469520,0.141478
611.788220,0.138755
612.106880,0.140531
612.425500,0.140073
612.744080,0.148046
613.062620,0.144343
613.381120,0.143815
613.699580,0.146842
614.018000,0.144042
614.336380,0.143738
614.654720,0.140465
614.973020,0.138537
615.291280,0.139139
615.609500,0.142631
615.927680,0.138752
616.245820,0.142239
616.563920,0.144855
616.881980,0.140006
617.200000,0.138725
617.517980,0.139079
617.835920,0.138242
618.153820,0.140504
618.471680,0.142636
618.789500,0.142857
619.107280,0.143036
619.425020,0.144941
619.742720,0.141871
620.060380,0.136008
620.378000,0.141913
620.695580,0.141443
621.013120,0.139843
621.330620,0.139316
621.648080,0.141009
621.965500,0.137704
622.282880,0.137768
622.600220,0.143083
622.917520,0.141777
623.234780,0.142398
623.552000,0.138765
623.869180,0.143397
624.186320,0.141038
624.503420,0.139498
624.820480,0.139491
625.137500,0.140512
625.454480,0.137856
625.771420,0.144073
626.088320,0.143127
626.405180,0.143124
626.722000,0.137077
627.038780,0.137531
627.355520,0.140625
627.672220,0.141835
627.988880,0.139036
628.305500,0.138984
628.622080,0.139095
628.938620,0.140367
629.255120,0.138457
629.571580,0.136071
629.888000,0.140534
630.204380,0.140841
630.520720,0.139549
630.837020,0.141844
631.153280,0.140288
631.469500,0.138569
631.785680,0.140446
632.101820,0.142340
632.417920,0.140686
632.733980,0.135954
633.050000,0.141298
633.365980,0.139301
633.681920,0.141110
633.997820,0.139570
634.313680,0.139782
634.629500,0.141256
634.945280,0.140469
635.261020,0.138832
635.576720,0.139460
635.892380,0.139413
636.208000,0.141197
636.523580,0.137094
636.839120,0.138969
637.154620,0.138261
637.470080,0.137733
637.785500,0.138335
638.100880,0.138141
638.416220,0.140638
638.731520,0.140974
639.046780,0.138946
639.362000,0.137901
639.677180,0.141633
639.992320,0.139273
640.307420,0.137117
640.622480,0.141417
640.937500,0.137032
641.252480,0.139905
641.567420,0.142938
641.882320,0.137528
642.197180,0.140371
642.512000,0.139938
642.826780,0.138696
643.141520,0.136705
643.456220,0.139734
643.770880,0.140409
644.085500,0.136669
644.400080,0.135955
644.714620,0.138796
645.029120,0.135589
645.343580,0.138234
645.658000,0.137663
645.972380,0.136750
646.286720,0.137912
646.601020,0.139773
646.915280,0.140389
647.229500,0.140385
647.543680,0.135598
647.857820,0.138728
648.171920,0.138904
648.485980,0.134831
648.800000,0.138606
649.113980,0.136364
649.427920,0.140361
649.741820,0.133278
650.055680,0.140428
650.369500,0.140695
650.683280,0.137347
650.997020,0.139439
651.310720,0.138140
651.624380,0.134341
651.938000,0.136842
652.251580,0.139159
652.565120,0.132476
652.878620,0.137106
653.192080,0.138483
653.505500,0.137167
653.818880,0.135343
654.132220,0.138707
654.445520,0.137266
654.758780,0.137394
655.072000,0.135244
655.385180,0.137518
655.698320,0.135467
656.011420,0.134709
656.324480,0.136112
656.637500,0.137022
656.950480,0.136524
657.263420,0.135383
657.576320,0.136970
657.889180,0.135653
658.202000,0.135870
658.514780,0.134266
658.827520,0.134454
659.140220,0.130956
659.452880,0.136817
659.765500,0.133052
660.078080,0.134818
660.390620,0.135350
660.703120,0.134739
661.015580,0.132515
661.328000,0.137909
661.640380,0.134203
661.952720,0.137963
662.265020,0.135476
662.577280,0.137405
662.889500,0.136235
663.201680,0.134971
663.513820,0.131554
663.825920,0.135447
664.137980,0.138009
664.450000,0.132992
664.761980,0.132242
665.073920,0.134372
665.385820,0.136780
665.697680,0.134545
666.009500,0.135351
666.321280,0.136183
666.633020,0.132646
666.944720,0.136164
667.256380,0.135935
667.568000,0.133152
667.879580,0.134354
668.191120,0.134959
668.502620,0.134201
668.814080,0.134737
669.125500,0.133425
669.436880,0.134509
669.748220,0.131533
670.059520,0.132003
670.370780,0.132568
670.682000,0.137699
670.993180,0.136011
671.304320,0.135021
671.615420,0.130682
671.926480,0.135202
672.237500,0.129689
672.548480,0.129524
672.859420,0.134382
673.170320,0.136017
673.481180,0.131789
673.792000,0.131266
674.102780,0.131777
674.413520,0.131608
674.724220,0.130672
675.034880,0.130180
675.345500,0.131291
675.656080,0.133938
675.966620,0.134594
676.277120,0.138045
676.587580,0.132916
676.898000,0.129899
677.208380,0.129760
677.518720,0.130562
677.829020,0.133407
678.139280,0.130096
678.449500,0.131081
678.759680,0.134882
679.069820,0.132714
679.379920,0.136552
679.689980,0.129224
680.000000,0.130841
680.309980,0.135857
680.619920,0.131390
680.929820,0.130646
681.239680,0.132939
681.549500,0.130000
681.859280,0.131441
682.169020,0.133905
682.478720,0.134256
682.788380,0.130676
683.098000,0.134630
683.407580,0.132458
683.717120,0.132883
684.026620,0.129142
684.336080,0.128837
684.645500,0.126824
684.954880,0.128070
685.264220,0.132503
685.573520,0.135516
685.882780,0.130035
686.192000,0.133183
686.501180,0.129398
686.810320,0.133743
687.119420,0.129609
687.428480,0.128750
687.737500,0.130084
688.046480,0.128834
688.355420,0.131648
688.664320,0.128156
688.973180,0.131317
689.282000,0.126929
689.590780,0.128451
689.899520,0.125332
690.208220,0.131116
690.516880,0.131348
690.825500,0.135094
691.134080,0.125664
691.442620,0.129192
691.751120,0.133106
692.059580,0.136416
692.368000,0.129875
692.676380,0.130153
692.984720,0.128626
693.293020,0.128040
693.601280,0.128958
693.909500,0.126372
694.217680,0.132140
694.525820,0.135567
694.833920,0.130485
695.141980,0.125723
695.450000,0.128244
695.757980,0.131780
696.065920,0.130097
696.373820,0.130100
696.681680,0.128500
696.989500,0.129680
697.297280,0.128355
697.605020,0.130952
697.912720,0.128747
698.220380,0.127509
698.528000,0.131329
698.835580,0.129198
699.143120,0.129774
699.450620,0.129276
699.758080,0.126667
700.065500,0.130088
700.372880,0.132400
700.680220,0.128041
700.987520,0.130556
701.294780,0.134631
701.602000,0.125198
701.909180,0.129968
702.216320,0.124756
702.523420,0.126283
702.830480,0.130297
703.137500,0.124708
703.444480,0.137673
703.751420,0.130966
704.058320,0.130985
704.365180,0.127760
704.672000,0.131089
704.978780,0.124073
705.285520,0.127543
705.592220,0.127843
705.898880,0.127266
706.205500,0.127934
706.512080,0.131122
706.818620,0.125387
707.125120,0.125385
707.431580,0.127003
707.738000,0.127344
708.044380,0.124662
708.350720,0.130302
708.657020,0.132083
708.963280,0.128494
709.269500,0.127984
709.575680,0.132024
709.881820,0.127358
710.187920,0.128794
710.493980,0.132661
710.800000,0.130053
711.105980,0.126130
711.411920,0.126922
711.717820,0.123587
712.023680,0.125534
712.329500,0.129338
712.635280,0.131008
712.941020,0.128721
713.246720,0.124901
713.552380,0.129121
713.858000,0.128498
714.163580,0.125099
714.469120,0.121923
714.774620,0.127122
715.080080,0.128779
715.385500,0.126299
715.690880,0.128994
715.996220,0.125198
716.301520,0.128854
716.606780,0.123821
716.912000,0.128029
717.217180,0.126496
717.522320,0.126839
717.827420,0.127339
718.132480,0.123244
718.437500,0.123930
718.742480,0.126613
719.047420,0.126618
719.352320,0.131590
719.657180,0.129599
719.962000,0.124069
720.266780,0.127129
720.571520,0.124689
720.876220,0.126432
721.180880,0.127926
721.485500,0.123276
721.790080,0.123567
722.094620,0.128216
722.399120,0.129685
722.703580,0.122589
723.008000,0.130660
723.312380,0.122686
723.616720,0.123672
723.921020,0.125595
724.225280,0.123473
724.529500,0.123905
724.833680,0.122331
725.137820,0.126872
725.441920,0.120820
725.745980,0.124832
726.050000,0.127650
726.353980,0.120775
726.657920,0.125506
726.961820,0.126484
727.265680,0.131761
727.569500,0.125686
727.873280,0.119169
728.177020,0.127591
728.480720,0.126389
728.784380,0.127760
729.088000,0.125294
729.391580,0.117954
729.695120,0.128599
729.998620,0.127151
730.302080,0.126382
730.605500,0.123241
730.908880,0.128368
731.212220,0.124388
731.515520,0.122867
731.818780,0.128641
732.122000,0.123031
732.425180,0.124692
732.728320,0.119980
733.031420,0.119799
733.334480,0.124490
733.637500,0.121976
733.940480,0.122825
734.243420,0.122324
734.546320,0.120851
734.849180,0.122417
735.152000,0.122407
735.454780,0.123967
735.757520,0.123815
736.060220,0.123749
736.362880,0.126576
736.665500,0.118538
736.968080,0.127888
737.270620,0.129559
737.573120,0.123362
737.875580,0.120396
738.178000,0.125204
738.480380,0.122703
738.782720,0.123773
739.085020,0.121145
739.387280,0.125831
739.689500,0.124575
739.991680,0.127456
740.293820,0.122167
740.595920,0.124096
740.897980,0.122530
741.200000,0.120583
741.501980,0.122636
741.803920,0.119932
742.105820,0.124083
742.407680,0.128713
742.709500,0.120455
743.011280,0.127198
743.313020,0.122319
743.614720,0.121300
743.916380,0.125581
744.218000,0.124105
744.519580,0.125604
744.821120,0.118563
745.122620,0.120431
745.424080,0.120793
745.725500,0.127339
746.026880,0.123153
746.328220,0.123921
746.629520,0.120409
746.930780,0.124387
747.232000,0.122011
747.533180,0.117145
747.834320,0.123554
748.135420,0.122436
748.436480,0.124142
748.737500,0.116739
749.038480,0.122786
749.339420,0.124456
749.640320,0.122564
749.941180,0.119300
750.242000,0.119975
750.542780,0.125310
750.843520,0.126201
751.144220,0.119231
751.444880,0.126823
751.745500,0.114935
752.046080,0.121873
752.346620,0.112758
752.647120,0.121489
752.947580,0.116429
753.248000,0.121857
753.548380,0.119063
753.848720,0.119768
754.149020,0.110896
754.449280,0.121471
754.749500,0.114134
755.049680,0.120667
755.349820,0.118079
755.649920,0.117647
755.949980,0.122097
756.250000,0.122288
756.549980,0.113531
756.849920,0.121006
757.149820,0.117764
757.449680,0.120132
757.749500,0.119973
758.049280,0.119454
758.349020,0.113352
758.648720,0.126294
758.948380,0.120275
759.248000,0.118598
759.547580,0.119032
759.847120,0.119917
760.146620,0.121110
760.446080,0.121640
760.745500,0.118881
761.044880,0.122159
761.344220,0.121882
761.643520,0.120763
761.942780,0.128761
762.242000,0.123055
762.541180,0.121831
762.840320,0.119382
763.139420,0.117440
763.438480,0.114149
763.737500,0.120606
764.036480,0.124389
764.335420,0.117149
764.634320,0.124047
764.933180,0.123288
765.232000,0.126995
765.530780,0.126316
765.829520,0.124476
766.128220,0.122477
766.426880,0.118692
766.725500,0.119945
767.024080,0.124143
767.322620,0.116183
767.621120,0.117886
767.919580,0.118089
768.218000,0.120383
768.516380,0.118999
768.814720,0.117970
769.113020,0.121985
769.411280,0.122928
769.709500,0.123816
770.007680,0.115201
770.305820,0.120352
770.603920,0.116577
770.901980,0.123634
771.200000,0.120245
771.497980,0.119303
771.795920,0.117726
772.093820,0.120321
772.391680,0.122610
772.689500,0.116892
772.987280,0.124579
773.285020,0.121668
773.582720,0.110811
773.880380,0.119423
774.178000,0.122018
774.475580,0.118553
774.773120,0.120482
775.070620,0.114943
775.368080,0.122912
775.665500,0.110141
775.962880,0.116744
776.260220,0.117766
776.557520,0.119413
776.854780,0.123056
777.152000,0.119363
777.449180,0.122724
777.746320,0.111559
778.043420,0.118690
778.340480,0.121110
778.637500,0.127113
778.934480,0.121049
779.231420,0.118725
779.528320,0.114228
779.825180,0.113966
780.122000,0.117530
780.418780,0.123119
780.715520,0.122066
781.012220,0.122603
781.308880,0.121028
781.605500,0.115753
781.902080,0.121150
782.198620,0.120984
782.495120,0.124829
782.791580,0.119670
783.088000,0.114562
783.384380,0.122421
783.680720,0.118331
783.977020,0.116999
784.273280,0.117483
784.569500,0.115304
784.865680,0.125869
785.161820,0.120139
785.457920,0.116424
785.753980,0.114445
786.050000,0.114641
786.345980,0.115972
786.641920,0.116586
786.937820,0.118234
787.233680,0.117606
787.529500,0.119972
787.825280,0.123938
788.121020,0.114731
788.416720,0.124912
788.712380,0.121298
789.008000,0.116856
789.303580,0.114488
789.599120,0.119273
789.894620,0.116245
790.190080,0.109500
790.485500,0.109431
790.780880,0.113978
791.076220,0.119769
791.371520,0.117647
791.666780,0.125818
791.962000,0.119765
792.257180,0.117862
792.552320,0.117476
792.847420,0.122999
793.142480,0.120147
793.437500,0.114327
793.732480,0.122165
794.027420,0.114243
794.322320,0.114840
794.617180,0.117385
794.912000,0.121100
795.206780,0.117077
795.501520,0.117871
795.796220,0.112593
796.090880,0.116805
796.385500,0.114693
796.680080,0.112939
796.974620,0.122754
797.269120,0.115064
797.563580,0.119084
797.858000,0.115414
798.152380,0.122196
798.446720,0.117692
798.741020,0.117103
799.035280,0.117236
799.329500,0.122402
799.623680,0.123256
