399.985280,0.135135
400.329500,0.202703
400.673680,0.151899
401.017820,0.058824
401.361920,0.151515
401.705980,0.121951
402.050000,0.142857
402.393980,0.211765
402.737920,0.235955
403.081820,0.164948
403.425680,0.186047
403.769500,0.156250
404.113280,0.103448
404.457020,0.224719
404.800720,0.108696
405.144380,0.202020
405.488000,0.161290
405.831580,0.195876
406.175120,0.138298
406.518620,0.150000
406.862080,0.206186
407.205500,0.166667
407.548880,0.173469
407.892220,0.156863
408.235520,0.191489
408.578780,0.209524
408.922000,0.153846
409.265180,0.212121
409.608320,0.171717
409.951420,0.268041
410.294480,0.196078
410.637500,0.141304
410.980480,0.215686
411.323420,0.173469
411.666320,0.256881
412.009180,0.172727
412.352000,0.148515
412.694780,0.183486
413.037520,0.128440
413.380220,0.198198
413.722880,0.214286
414.065500,0.189189
414.408080,0.176991
414.750620,0.168142
415.093120,0.190083
415.435580,0.201681
415.778000,0.196970
416.120380,0.142857
416.462720,0.142857
416.805020,0.218045
417.147280,0.208955
417.489500,0.242857
417.831680,0.150685
418.173820,0.120567
418.515920,0.174825
418.857980,0.177215
419.200000,0.160256
419.541980,0.207101
419.883920,0.174157
420.225820,0.167630
420.567680,0.189944
420.909500,0.213115
421.251280,0.192708
421.593020,0.163265
421.934720,0.181818
422.276380,0.169231
422.618000,0.181373
422.959580,0.171569
423.301120,0.191781
423.642620,0.169565
423.984080,0.167442
424.325500,0.161435
424.666880,0.163793
425.008220,0.151261
425.349520,0.165254
425.690780,0.173077
426.032000,0.160784
426.373180,0.182573
426.714320,0.191406
427.055420,0.177606
427.396480,0.164794
427.737500,0.154150
428.078480,0.162055
428.419420,0.144578
428.760320,0.160920
429.101180,0.181102
429.442000,0.187739
429.782780,0.153846
430.123520,0.168627
430.464220,0.191882
430.804880,0.199234
431.145500,0.181818
431.486080,0.168539
431.826620,0.151163
432.167120,0.169118
432.507580,0.206522
432.848000,0.172662
433.188380,0.180505
433.528720,0.177358
433.869020,0.175000
434.209280,0.147368
434.549500,0.188153
434.889680,0.164983
435.229820,0.187713
435.569920,0.169550
435.909980,0.161812
436.250000,0.189831
436.589980,0.145511
436.929920,0.190476
437.269820,0.159875
437.609680,0.186391
437.949500,0.174699
438.289280,0.172805
438.629020,0.183140
438.968720,0.180233
439.308380,0.170732
439.648000,0.175342
439.987580,0.171958
440.327120,0.197333
440.666620,0.176623
441.006080,0.171355
441.345500,0.184275
441.684880,0.157895
442.024220,0.168734
442.363520,0.157143
442.702780,0.159091
443.042000,0.143172
443.381180,0.170259
443.720320,0.187905
444.059420,0.172269
444.398480,0.156904
444.737500,0.180328
445.076480,0.166667
445.415420,0.173653
445.754320,0.158004
446.093180,0.159633
446.432000,0.169173
446.770780,0.172676
447.109520,0.191176
447.448220,0.175313
447.786880,0.162791
448.125500,0.168966
448.464080,0.166071
448.802620,0.175532
449.141120,0.166090
449.479580,0.169580
449.818000,0.182444
450.156380,0.173913
450.494720,0.173554
450.833020,0.167832
451.171280,0.162671
451.509500,0.167247
451.847680,0.170320
452.185820,0.166954
452.523920,0.168385
452.861980,0.185497
453.200000,0.169435
453.537980,0.169748
453.875920,0.169748
454.213820,0.160959
454.551680,0.173841
454.889500,0.170320
455.227280,0.161922
455.565020,0.164154
455.902720,0.176373
456.240380,0.156406
456.578000,0.175958
456.915580,0.164076
457.253120,0.162829
457.590620,0.169130
457.928080,0.176768
458.265500,0.165541
458.602880,0.157468
458.940220,0.164129
459.277520,0.164800
459.614780,0.175123
459.952000,0.167702
460.289180,0.172468
460.626320,0.162205
460.963420,0.161551
461.300480,0.160550
461.637500,0.154083
461.974480,0.160550
462.311420,0.159463
462.648320,0.162518
462.985180,0.154950
463.322000,0.168155
463.658780,0.160221
463.995520,0.156809
464.332220,0.155125
464.668880,0.168011
465.005500,0.162198
465.342080,0.167734
465.678620,0.161132
466.015120,0.166882
466.351580,0.168142
466.688000,0.160780
467.024380,0.160389
467.360720,0.164773
467.697020,0.159453
468.033280,0.164444
468.369500,0.166667
468.705680,0.164600
469.041820,0.162500
469.377920,0.161605
469.713980,0.155510
470.050000,0.163285
470.385980,0.170254
470.721920,0.157689
471.057820,0.162768
471.393680,0.155285
471.729500,0.160334
472.065280,0.167263
472.401020,0.159574
472.736720,0.160558
473.072380,0.157989
473.408000,0.154917
473.743580,0.163495
474.079120,0.160207
474.414620,0.149279
474.750080,0.157038
475.085500,0.157895
475.420880,0.159034
475.756220,0.161079
476.091520,0.157715
476.426780,0.159385
476.762000,0.148029
477.097180,0.159200
477.432320,0.158320
477.767420,0.158497
478.102480,0.163780
478.437500,0.161741
478.772480,0.153664
479.107420,0.151343
479.442320,0.159073
479.777180,0.151949
480.112000,0.157165
480.446780,0.148870
480.781520,0.161836
481.116220,0.159256
481.450880,0.153005
481.785500,0.154272
482.120080,0.151254
482.454620,0.148407
482.789120,0.154459
483.123580,0.156542
483.458000,0.147152
483.792380,0.157348
484.126720,0.155212
484.461020,0.153005
484.795280,0.152660
485.129500,0.162899
485.463680,0.151938
485.797820,0.159409
486.131920,0.148432
486.465980,0.154440
486.800000,0.158779
487.133980,0.149547
487.467920,0.149962
487.801820,0.156369
488.135680,0.158453
488.469500,0.143722
488.803280,0.156761
489.137020,0.153114
489.470720,0.149852
489.804380,0.154417
490.138000,0.158012
490.471580,0.156227
490.805120,0.152252
491.138620,0.149964
491.472080,0.157597
491.805500,0.154812
492.138880,0.159138
492.472220,0.154325
492.805520,0.155028
493.138780,0.149552
493.472000,0.155184
493.805180,0.154161
494.138320,0.155437
494.471420,0.153646
494.804480,0.159120
495.137500,0.156611
495.470480,0.154876
495.803420,0.149874
496.136320,0.157895
496.469180,0.150399
496.802000,0.154645
497.134780,0.151607
497.467520,0.160245
497.800220,0.145637
498.132880,0.155791
498.465500,0.151217
498.798080,0.153539
499.130620,0.157215
499.463120,0.156654
499.795580,0.154565
500.128000,0.156948
500.460380,0.157696
500.792720,0.151113
501.125020,0.151340
501.457280,0.148303
501.789500,0.152376
502.121680,0.160187
502.453820,0.150943
502.785920,0.151076
503.117980,0.149166
503.450000,0.156203
503.781980,0.150473
504.113920,0.147937
504.445820,0.153622
504.777680,0.149647
505.109500,0.151442
505.441280,0.149140
505.773020,0.148426
506.104720,0.146491
506.436380,0.150497
506.768000,0.155285
507.099580,0.150572
507.431120,0.151288
507.762620,0.149906
508.094080,0.148131
508.425500,0.152194
508.756880,0.149063
509.088220,0.150414
509.419520,0.147579
509.750780,0.151828
510.082000,0.146922
510.413180,0.149240
510.744320,0.151864
511.075420,0.153529
511.406480,0.147156
511.737500,0.145833
512.068480,0.148026
512.399420,0.146479
512.730320,0.137182
513.061180,0.149382
513.392000,0.149550
513.722780,0.149376
514.053520,0.149018
514.384220,0.146051
514.714880,0.146003
515.045500,0.143199
515.376080,0.150121
515.706620,0.147589
516.037120,0.147059
516.367580,0.143913
516.698000,0.142647
517.028380,0.146971
517.358720,0.145185
517.689020,0.155786
518.019280,0.146513
518.349500,0.144957
518.679680,0.144876
519.009820,0.144737
519.339920,0.146293
519.669980,0.145655
520.000000,0.147224
520.329980,0.144635
520.659920,0.147751
520.989820,0.150155
521.319680,0.149177
521.649500,0.147558
521.979280,0.152401
522.309020,0.144710
522.638720,0.141833
522.968380,0.148914
523.298000,0.149269
523.627580,0.143818
523.957120,0.147532
524.286620,0.144867
524.616080,0.151499
524.945500,0.146770
525.274880,0.151360
525.604220,0.144928
525.933520,0.148847
526.262780,0.138368
526.592000,0.143582
526.921180,0.149314
527.250320,0.149670
527.579420,0.153108
527.908480,0.146233
528.237500,0.144985
528.566480,0.143713
528.895420,0.148842
529.224320,0.147103
529.553180,0.142169
529.882000,0.149392
530.210780,0.147683
530.539520,0.148610
530.868220,0.148396
531.196880,0.145724
531.525500,0.146731
531.854080,0.142120
532.182620,0.145259
532.511120,0.142923
532.839580,0.145644
533.168000,0.145852
533.496380,0.144749
533.824720,0.143114
534.153020,0.147570
534.481280,0.145815
534.809500,0.145119
535.137680,0.145399
535.465820,0.145189
535.793920,0.146785
536.121980,0.145615
536.450000,0.149260
536.777980,0.143276
537.105920,0.143628
537.433820,0.146890
537.761680,0.144082
538.089500,0.148523
538.417280,0.145643
538.745020,0.145008
539.072720,0.140570
539.400380,0.146853
539.728000,0.144551
540.055580,0.143820
540.383120,0.146687
540.710620,0.141369
541.038080,0.145703
541.365500,0.144485
541.692880,0.142442
542.020220,0.143217
542.347520,0.142498
542.674780,0.145730
543.002000,0.144507
543.329180,0.142757
543.656320,0.145570
543.983420,0.141880
544.310480,0.145430
544.637500,0.145343
544.964480,0.137618
545.291420,0.142240
545.618320,0.146082
545.945180,0.143375
546.272000,0.143512
546.598780,0.142904
546.925520,0.139136
547.252220,0.143282
547.578880,0.144673
547.905500,0.143464
548.232080,0.143600
548.558620,0.145460
548.885120,0.144259
549.211580,0.140148
549.538000,0.147536
549.864380,0.140836
550.190720,0.142073
550.517020,0.142764
550.843280,0.142345
551.169500,0.139631
551.495680,0.140604
551.821820,0.145330
552.147920,0.146389
552.473980,0.137636
552.800000,0.142577
553.125980,0.140799
553.451920,0.140013
553.777820,0.140240
554.103680,0.142568
554.429500,0.139270
554.755280,0.138184
555.081020,0.141043
555.406720,0.141890
555.732380,0.138258
556.058000,0.141208
556.383580,0.143102
556.709120,0.144039
557.034620,0.140889
557.360080,0.142314
557.685500,0.140041
558.010880,0.138995
558.336220,0.140598
558.661520,0.140730
558.986780,0.138554
559.312000,0.140313
559.637180,0.139318
559.962320,0.139907
560.287420,0.138575
560.612480,0.137783
560.937500,0.139868
561.262480,0.136730
561.587420,0.141095
561.912320,0.139278
562.237180,0.139896
562.562000,0.142911
562.886780,0.137495
563.211520,0.138227
563.536220,0.142486
563.860880,0.139570
564.185500,0.140713
564.510080,0.139955
564.834620,0.139561
565.159120,0.138722
565.483580,0.134930
565.808000,0.136587
566.132380,0.139127
566.456720,0.140212
566.781020,0.138035
567.105280,0.140643
567.429500,0.140744
567.753680,0.135405
568.077820,0.141090
568.401920,0.139419
568.725980,0.137381
569.050000,0.134981
569.373980,0.140464
569.697920,0.142207
570.021820,0.141948
570.345680,0.139686
570.669500,0.136589
570.993280,0.139166
571.317020,0.138473
571.640720,0.139311
571.964380,0.134001
572.288000,0.142062
572.611580,0.138525
572.935120,0.140292
573.258620,0.138743
573.582080,0.140089
573.905500,0.138868
574.228880,0.139569
574.552220,0.140711
574.875520,0.140357
575.198780,0.138778
575.522000,0.137463
575.845180,0.140043
576.168320,0.139777
576.491420,0.136991
576.814480,0.137432
577.137500,0.139610
577.460480,0.140631
577.783420,0.134334
578.106320,0.140313
578.429180,0.137504
578.752000,0.134074
579.074780,0.139245
579.397520,0.136540
579.720220,0.139640
580.042880,0.138421
580.365500,0.136995
580.688080,0.142130
581.010620,0.139386
581.333120,0.136273
581.655580,0.139527
581.978000,0.136016
582.300380,0.136319
582.622720,0.137772
582.945020,0.136866
583.267280,0.142299
583.589500,0.138363
583.911680,0.138457
584.233820,0.136292
584.555920,0.138355
584.877980,0.137877
585.200000,0.138735
585.521980,0.135928
585.843920,0.133313
586.165820,0.136502
586.487680,0.134517
586.809500,0.135014
587.131280,0.134576
587.453020,0.139583
587.774720,0.137197
588.096380,0.137981
588.418000,0.137548
588.739580,0.137108
589.061120,0.141173
589.382620,0.137536
589.704080,0.138569
590.025500,0.138128
590.346880,0.137718
590.668220,0.138617
590.989520,0.136162
591.310780,0.139740
591.632000,0.137978
591.953180,0.138389
592.274320,0.134043
592.595420,0.137662
592.916480,0.134746
593.237500,0.138238
593.558480,0.137745
593.879420,0.132992
594.200320,0.139298
594.521180,0.136255
594.842000,0.137560
595.162780,0.133814
595.483520,0.136666
595.804220,0.136412
596.124880,0.138822
596.445500,0.136233
596.766080,0.136596
597.086620,0.133758
597.407120,0.135334
597.727580,0.138690
598.048000,0.136736
598.368380,0.139663
598.688720,0.136828
599.009020,0.135350
599.329280,0.139170
599.649500,0.133650
599.969680,0.133013
600.289820,0.132479
600.609920,0.131713
600.929980,0.132817
601.250000,0.135676
601.569980,0.137186
601.889920,0.135525
602.209820,0.136634
602.529680,0.140071
602.849500,0.135843
603.169280,0.134472
603.489020,0.134791
603.808720,0.130554
604.128380,0.137417
604.448000,0.135083
604.767580,0.131006
605.087120,0.132687
605.406620,0.139099
605.726080,0.134018
606.045500,0.131513
606.364880,0.134392
606.684220,0.133352
607.003520,0.133028
607.322780,0.133030
607.642000,0.133831
607.961180,0.130963
608.280320,0.133121
608.599420,0.133256
608.918480,0.131965
609.237500,0.133803
609.556480,0.132584
609.875420,0.129947
610.194320,0.135223
610.513180,0.135543
610.832000,0.130435
611.150780,0.134875
611.469520,0.135747
611.788220,0.130593
612.106880,0.132087
612.425500,0.131242
612.744080,0.135118
613.062620,0.129052
613.381120,0.129494
613.699580,0.130901
614.018000,0.133907
614.336380,0.134793
614.654720,0.132093
614.973020,0.132675
615.291280,0.131391
615.609500,0.133756
615.927680,0.131644
616.245820,0.132653
616.563920,0.132111
616.881980,0.130964
617.200000,0.134681
617.517980,0.134101
617.835920,0.130165
618.153820,0.131489
618.471680,0.133643
618.789500,0.133732
619.107280,0.131142
619.425020,0.133524
619.742720,0.129002
620.060380,0.130993
620.378000,0.131844
620.695580,0.129630
621.013120,0.130394
621.330620,0.133982
621.648080,0.131861
621.965500,0.129235
622.282880,0.127049
622.600220,0.130449
622.917520,0.132010
623.234780,0.135969
623.552000,0.135264
623.869180,0.130791
624.186320,0.131487
624.503420,0.131661
624.820480,0.131323
625.137500,0.130092
625.454480,0.130978
625.771420,0.133039
626.088320,0.131148
626.405180,0.132856
626.722000,0.132058
627.038780,0.127193
627.355520,0.131562
627.672220,0.125972
627.988880,0.131882
628.305500,0.128701
628.622080,0.132900
628.938620,0.133639
629.255120,0.134101
629.571580,0.132394
629.888000,0.131022
630.204380,0.131635
630.520720,0.131627
630.837020,0.134443
631.153280,0.131295
631.469500,0.130079
631.785680,0.132911
632.101820,0.134198
632.417920,0.126677
632.733980,0.128752
633.050000,0.127653
633.365980,0.133373
633.681920,0.128282
633.997820,0.132098
634.313680,0.130935
634.629500,0.132114
634.945280,0.130792
635.261020,0.132081
635.576720,0.132120
635.892380,0.129829
636.208000,0.132772
636.523580,0.133294
636.839120,0.131442
637.154620,0.133333
637.470080,0.130846
637.785500,0.133060
638.100880,0.133217
638.416220,0.133736
638.731520,0.128653
639.046780,0.131081
639.362000,0.129587
639.677180,0.129069
639.992320,0.131097
640.307420,0.135150
640.622480,0.132456
640.937500,0.129542
641.252480,0.132365
641.567420,0.130151
641.882320,0.131125
642.197180,0.131668
642.512000,0.129023
642.826780,0.127601
643.141520,0.128091
643.456220,0.129220
643.770880,0.131564
644.085500,0.130240
644.400080,0.130056
644.714620,0.128763
645.029120,0.126788
645.343580,0.128634
645.658000,0.130169
645.972380,0.133187
646.286720,0.130281
646.601020,0.128979
646.915280,0.129147
647.229500,0.131319
647.543680,0.128970
647.857820,0.129920
648.171920,0.130222
648.485980,0.130995
648.800000,0.128961
649.113980,0.127217
649.427920,0.130929
649.741820,0.126958
650.055680,0.128086
650.369500,0.129765
650.683280,0.131243
650.997020,0.128163
651.310720,0.127133
651.624380,0.125824
651.938000,0.125208
652.251580,0.126357
652.565120,0.128563
652.878620,0.133446
653.192080,0.127247
653.505500,0.127069
653.818880,0.127097
654.132220,0.125320
654.445520,0.130176
654.758780,0.128329
655.072000,0.124928
655.385180,0.126961
655.698320,0.125750
656.011420,0.130696
656.324480,0.125036
656.637500,0.129200
656.950480,0.124486
657.263420,0.126515
657.576320,0.127483
657.889180,0.130050
658.202000,0.125302
658.514780,0.129503
658.827520,0.126951
659.140220,0.126761
659.452880,0.128662
659.765500,0.130644
660.078080,0.127896
660.390620,0.125267
660.703120,0.127406
661.015580,0.127607
661.328000,0.133501
661.640380,0.127058
661.952720,0.123949
662.265020,0.128229
662.577280,0.128817
662.889500,0.124882
663.201680,0.132100
663.513820,0.128015
663.825920,0.127762
664.137980,0.127343
664.450000,0.121803
664.761980,0.127005
665.073920,0.125609
665.385820,0.126963
665.697680,0.125620
666.009500,0.128035
666.321280,0.125911
666.633020,0.127660
666.944720,0.123357
667.256380,0.122813
667.568000,0.122283
667.879580,0.124490
668.191120,0.125687
668.502620,0.126327
668.814080,0.127368
669.125500,0.124530
669.436880,0.126556
669.748220,0.127726
670.059520,0.130252
670.370780,0.125609
670.682000,0.124956
670.993180,0.123679
671.304320,0.124473
671.615420,0.122869
671.926480,0.123492
672.237500,0.125045
672.548480,0.128460
672.859420,0.126519
673.170320,0.123322
673.481180,0.125634
673.792000,0.123693
674.102780,0.120287
674.413520,0.125775
674.724220,0.123412
675.034880,0.121379
675.345500,0.122538
675.656080,0.124138
675.966620,0.128047
676.277120,0.121567
676.587580,0.125552
676.898000,0.120567
677.208380,0.125323
677.518720,0.121080
677.829020,0.122690
678.139280,0.125278
678.449500,0.122540
678.759680,0.125515
679.069820,0.123048
679.379920,0.124859
679.689980,0.121797
680.000000,0.123738
680.309980,0.122494
680.619920,0.121166
680.929820,0.122434
681.239680,0.121123
681.549500,0.122222
681.859280,0.125467
682.169020,0.123461
682.478720,0.126402
682.788380,0.123293
683.098000,0.123037
683.407580,0.121201
683.717120,0.123498
684.026620,0.122364
684.336080,0.120500
684.645500,0.123083
684.954880,0.123158
685.264220,0.123065
685.573520,0.129806
685.882780,0.124281
686.192000,0.129421
686.501180,0.123345
686.810320,0.127594
687.119420,0.129228
687.428480,0.124573
687.737500,0.120875
688.046480,0.122699
688.355420,0.121841
688.664320,0.125478
688.973180,0.120597
689.282000,0.118441
689.590780,0.119632
689.899520,0.120775
690.208220,0.125382
690.516880,0.125239
690.825500,0.123019
691.134080,0.120349
691.442620,0.123476
691.751120,0.120212
692.059580,0.123806
692.368000,0.120788
692.676380,0.122519
692.984720,0.120992
693.293020,0.125000
693.601280,0.122472
693.909500,0.123723
694.217680,0.121097
694.525820,0.124524
694.833920,0.125906
695.141980,0.119167
695.450000,0.118321
695.757980,0.121085
696.065920,0.119223
696.373820,0.119323
696.681680,0.119294
696.989500,0.120417
697.297280,0.123687
697.605020,0.125794
697.912720,0.124520
698.220380,0.120819
698.528000,0.126187
698.835580,0.122086
699.143120,0.123539
699.450620,0.121718
699.758080,0.119216
700.065500,0.121309
700.372880,0.121200
700.680220,0.121260
700.987520,0.121032
701.294780,0.117599
701.602000,0.124010
701.909180,0.121224
702.216320,0.118889
702.523420,0.121942
702.830480,0.123168
703.137500,0.122369
703.444480,0.123471
703.751420,0.119132
704.058320,0.121488
704.365180,0.121845
704.672000,0.124356
704.978780,0.122123
705.285520,0.123631
705.592220,0.118039
705.898880,0.118203
706.205500,0.122457
706.512080,0.118878
706.818620,0.117260
707.125120,0.122692
707.431580,0.117233
707.738000,0.120703
708.044380,0.116943
708.350720,0.119985
708.657020,0.120360
708.963280,0.117624
709.269500,0.124853
709.575680,0.124558
709.881820,0.119497
710.187920,0.117510
710.493980,0.116369
710.800000,0.121663
711.105980,0.117846
711.411920,0.120615
711.717820,0.121248
712.023680,0.122425
712.329500,0.120662
712.635280,0.117829
712.941020,0.120990
713.246720,0.119763
713.552380,0.121664
713.858000,0.121403
714.163580,0.116417
714.469120,0.118015
714.774620,0.120411
715.080080,0.122497
715.385500,0.119105
715.690880,0.120710
715.996220,0.117670
716.301520,0.118182
716.606780,0.120283
716.912000,0.119548
717.217180,0.117717
717.522320,0.116501
717.827420,0.120016
718.132480,0.116419
718.437500,0.121484
718.742480,0.116532
719.047420,0.119337
719.352320,0.121212
719.657180,0.116517
719.962000,0.119520
720.266780,0.119651
720.571520,0.117233
720.876220,0.119476
721.180880,0.113712
721.485500,0.119515
721.790080,0.118471
722.094620,0.123499
722.399120,0.119345
722.703580,0.118731
723.008000,0.117292
723.312380,0.117090
723.616720,0.117722
723.921020,0.119532
724.225280,0.118237
724.529500,0.117338
724.833680,0.122331
725.137820,0.118062
725.441920,0.116808
725.745980,0.119911
726.050000,0.121786
726.353980,0.117170
726.657920,0.118309
726.961820,0.116895
727.265680,0.117892
727.569500,0.115631
727.873280,0.115935
728.177020,0.120221
728.480720,0.119444
728.784380,0.116956
729.088000,0.117287
729.391580,0.118427
729.695120,0.115163
729.998620,0.123805
730.302080,0.121576
730.605500,0.117904
730.908880,0.115140
731.212220,0.117042
731.515520,0.112140
731.818780,0.120388
732.122000,0.123031
732.425180,0.114342
732.728320,0.115518
733.031420,0.114787
733.334480,0.113776
733.637500,0.105847
733.940480,0.115660
734.243420,0.121814
734.546320,0.114108
734.849180,0.115702
735.152000,0.113589
735.454780,0.116736
735.757520,0.121707
736.060220,0.115850
736.362880,0.113445
736.665500,0.112794
736.968080,0.118216
737.270620,0.114861
737.573120,0.117358
737.875580,0.119846
738.178000,0.113228
738.480380,0.117297
738.782720,0.116140
739.085020,0.115639
739.387280,0.114191
739.689500,0.115515
739.991680,0.119034
740.293820,0.116639
740.595920,0.112410
740.897980,0.115189
741.200000,0.121144
741.501980,0.119771
741.803920,0.113739
742.105820,0.112803
742.407680,0.118812
742.709500,0.119318
743.011280,0.111958
743.313020,0.112464
743.614720,0.110853
743.916380,0.113372
744.218000,0.115752
744.519580,0.118357
744.821120,0.117964
745.122620,0.119832
745.424080,0.118389
745.725500,0.115872
746.026880,0.115148
746.328220,0.116523
746.629520,0.114991
746.930780,0.114583
747.232000,0.115880
747.533180,0.113484
747.834320,0.115033
748.135420,0.108763
748.436480,0.113537
748.737500,0.113650
749.038480,0.109346
749.339420,0.115744
749.640320,0.116279
749.941180,0.114304
750.242000,0.111809
750.542780,0.114144
750.843520,0.118514
751.144220,0.115385
751.444880,0.115409
751.745500,0.113636
752.046080,0.114176
752.346620,0.108892
752.647120,0.111039
752.947580,0.115783
753.248000,0.112830
753.548380,0.113858
753.848720,0.111397
754.149020,0.107672
754.449280,0.112935
754.749500,0.114134
755.049680,0.108000
755.349820,0.115410
755.649920,0.116986
755.949980,0.118779
756.250000,0.119001
756.549980,0.114191
756.849920,0.108770
757.149820,0.113772
757.449680,0.112211
757.749500,0.112474
758.049280,0.116724
758.349020,0.114743
758.648720,0.115252
758.948380,0.117526
759.248000,0.114555
759.547580,0.118359
759.847120,0.115782
760.146620,0.114344
760.446080,0.118952
760.745500,0.110490
761.044880,0.117187
761.344220,0.118318
761.643520,0.122175
761.942780,0.121064
762.242000,0.118812
762.541180,0.112676
762.840320,0.115169
763.139420,0.116034
763.438480,0.114149
763.737500,0.112336
764.036480,0.118099
764.335420,0.112209
764.634320,0.113652
764.933180,0.111644
765.232000,0.118668
765.530780,0.114386
765.829520,0.116783
766.128220,0.113431
766.426880,0.110163
766.725500,0.113777
767.024080,0.112483
767.322620,0.114108
767.621120,0.111111
767.919580,0.113993
768.218000,0.111491
768.516380,0.116295
768.814720,0.109053
769.113020,0.116471
769.411280,0.116022
769.709500,0.113667
770.007680,0.109066
770.305820,0.117647
770.603920,0.113881
770.901980,0.110656
771.200000,0.109375
771.497980,0.111930
771.795920,0.115719
772.093820,0.114305
772.391680,0.117996
772.689500,0.112162
772.987280,0.111111
773.285020,0.118250
773.582720,0.111486
773.880380,0.110501
774.178000,0.112474
774.475580,0.117883
774.773120,0.115797
775.070620,0.115619
775.368080,0.111556
775.665500,0.110813
775.962880,0.115410
776.260220,0.115074
776.557520,0.114743
776.854780,0.116971
777.152000,0.116711
777.449180,0.118004
777.746320,0.102823
778.043420,0.111869
778.340480,0.112991
778.637500,0.112238
778.934480,0.115669
779.231420,0.111262
779.528320,0.108216
779.825180,0.113307
780.122000,0.106242
780.418780,0.109439
780.715520,0.116700
781.012220,0.114384
781.308880,0.112914
781.605500,0.108904
781.902080,0.117043
782.198620,0.110048
782.495120,0.115912
782.791580,0.115543
783.088000,0.114562
783.384380,0.112105
783.680720,0.115595
783.977020,0.110805
784.273280,0.113287
784.569500,0.109713
784.865680,0.111961
785.161820,0.113194
785.457920,0.108801
785.753980,0.113747
786.050000,0.106354
786.345980,0.111111
786.641920,0.115198
786.937820,0.114672
787.233680,0.112735
787.529500,0.112344
787.825280,0.114731
788.121020,0.111190
788.416720,0.105857
788.712380,0.112835
789.008000,0.109065
789.303580,0.109541
789.599120,0.111273
789.894620,0.116245
790.190080,0.108049
790.485500,0.106551
790.780880,0.112545
791.076220,0.109668
791.371520,0.111837
791.666780,0.116364
791.962000,0.111683
792.257180,0.109810
792.552320,0.115301
792.847420,0.109898
793.142480,0.117949
793.437500,0.111433
793.732480,0.111192
794.027420,0.106825
794.322320,0.119314
794.617180,0.112184
794.912000,0.106241
795.206780,0.109620
795.501520,0.114829
795.796220,0.103704
796.090880,0.113037
796.385500,0.107946
796.680080,0.113687
796.974620,0.116018
797.269120,0.111279
797.563580,0.112977
797.858000,0.110099
798.152380,0.112916
798.446720,0.110769
798.741020,0.111710
799.035280,0.107919
799.329500,0.110855
799.623680,0.110078
