399.985280,0.189189
400.329500,0.108108
400.673680,0.113924
401.017820,0.073529
401.361920,0.136364
401.705980,0.097561
402.050000,0.051948
402.393980,0.164706
402.737920,0.213483
403.081820,0.175258
403.425680,0.151163
403.769500,0.104167
404.113280,0.114943
404.457020,0.168539
404.800720,0.076087
405.144380,0.161616
405.488000,0.107527
405.831580,0.154639
406.175120,0.138298
406.518620,0.130000
406.862080,0.164948
407.205500,0.145833
407.548880,0.183673
407.892220,0.186275
408.235520,0.138298
408.578780,0.161905
408.922000,0.086538
409.265180,0.151515
409.608320,0.131313
409.951420,0.175258
410.294480,0.176471
410.637500,0.119565
410.980480,0.176471
411.323420,0.183673
411.666320,0.192661
412.009180,0.172727
412.352000,0.138614
412.694780,0.192661
413.037520,0.082569
413.380220,0.198198
413.722880,0.142857
414.065500,0.108108
414.408080,0.141593
414.750620,0.106195
415.093120,0.123967
415.435580,0.142857
415.778000,0.136364
416.120380,0.151261
416.462720,0.166667
416.805020,0.150376
417.147280,0.156716
417.489500,0.135714
417.831680,0.150685
418.173820,0.120567
418.515920,0.146853
418.857980,0.170886
419.200000,0.147436
419.541980,0.153846
419.883920,0.140449
420.225820,0.132948
420.567680,0.145251
420.909500,0.147541
421.251280,0.156250
421.593020,0.163265
421.934720,0.136364
422.276380,0.153846
422.618000,0.171569
422.959580,0.156863
423.301120,0.146119
423.642620,0.130435
423.984080,0.158140
424.325500,0.156951
424.666880,0.159483
425.008220,0.134454
425.349520,0.127119
425.690780,0.134615
426.032000,0.141176
426.373180,0.170124
426.714320,0.156250
427.055420,0.138996
427.396480,0.161049
427.737500,0.150198
428.078480,0.154150
428.419420,0.132530
428.760320,0.141762
429.101180,0.157480
429.442000,0.153257
429.782780,0.134615
430.123520,0.160784
430.464220,0.140221
430.804880,0.157088
431.145500,0.127273
431.486080,0.153558
431.826620,0.155039
432.167120,0.136029
432.507580,0.148551
432.848000,0.133094
433.188380,0.162455
433.528720,0.139623
433.869020,0.182143
434.209280,0.140351
434.549500,0.156794
434.889680,0.161616
435.229820,0.139932
435.569920,0.138408
435.909980,0.132686
436.250000,0.152542
436.589980,0.130031
436.929920,0.158730
437.269820,0.147335
437.609680,0.165680
437.949500,0.141566
438.289280,0.138810
438.629020,0.159884
438.968720,0.139535
439.308380,0.135501
439.648000,0.156164
439.987580,0.137566
440.327120,0.144000
440.666620,0.148052
441.006080,0.156010
441.345500,0.132678
441.684880,0.138756
442.024220,0.138958
442.363520,0.138095
442.702780,0.136364
443.042000,0.143172
443.381180,0.150862
443.720320,0.142549
444.059420,0.138655
444.398480,0.150628
444.737500,0.157787
445.076480,0.146825
445.415420,0.139721
445.754320,0.133056
446.093180,0.139450
446.432000,0.144737
446.770780,0.142315
447.109520,0.147059
447.448220,0.150268
447.786880,0.148479
448.125500,0.141379
448.464080,0.144643
448.802620,0.141844
449.141120,0.148789
449.479580,0.139860
449.818000,0.144578
450.156380,0.138796
450.494720,0.148760
450.833020,0.141608
451.171280,0.142123
451.509500,0.142857
451.847680,0.148398
452.185820,0.148021
452.523920,0.152921
452.861980,0.141653
453.200000,0.146179
453.537980,0.141176
453.875920,0.147899
454.213820,0.147260
454.551680,0.150662
454.889500,0.148398
455.227280,0.135231
455.565020,0.144054
455.902720,0.144759
456.240380,0.128120
456.578000,0.135889
456.915580,0.138169
457.253120,0.134868
457.590620,0.152709
457.928080,0.149832
458.265500,0.141892
458.602880,0.147727
458.940220,0.128596
459.277520,0.134400
459.614780,0.148936
459.952000,0.141304
460.289180,0.148734
460.626320,0.140157
460.963420,0.134087
461.300480,0.140673
461.637500,0.144838
461.974480,0.154434
462.311420,0.144560
462.648320,0.134700
462.985180,0.134864
463.322000,0.142857
463.658780,0.136740
463.995520,0.132050
464.332220,0.139889
464.668880,0.141129
465.005500,0.142091
465.342080,0.140845
465.678620,0.142681
466.015120,0.138422
466.351580,0.144121
466.688000,0.147381
467.024380,0.145808
467.360720,0.139773
467.697020,0.140091
468.033280,0.138889
468.369500,0.142384
468.705680,0.148816
469.041820,0.137500
469.377920,0.124729
469.713980,0.136972
470.050000,0.147826
470.385980,0.136986
470.721920,0.136141
471.057820,0.138402
471.393680,0.136576
471.729500,0.139018
472.065280,0.137746
472.401020,0.135638
472.736720,0.139616
473.072380,0.137343
473.408000,0.133159
473.743580,0.129758
474.079120,0.136090
474.414620,0.141645
474.750080,0.136697
475.085500,0.139803
475.420880,0.134888
475.756220,0.126738
476.091520,0.132992
476.426780,0.131877
476.762000,0.126307
477.097180,0.139200
477.432320,0.138126
477.767420,0.135621
478.102480,0.131496
478.437500,0.133005
478.772480,0.133176
479.107420,0.128560
479.442320,0.129496
479.777180,0.137629
480.112000,0.129430
480.446780,0.130943
480.781520,0.137681
481.116220,0.128537
481.450880,0.138173
481.785500,0.132911
482.120080,0.132445
482.454620,0.130536
482.789120,0.135350
483.123580,0.133956
483.458000,0.137658
483.792380,0.132588
484.126720,0.137452
484.461020,0.130367
484.795280,0.140324
485.129500,0.134840
485.463680,0.131783
485.797820,0.139191
486.131920,0.127774
486.465980,0.131274
486.800000,0.139695
487.133980,0.129909
487.467920,0.128539
487.801820,0.138825
488.135680,0.137983
488.469500,0.124811
488.803280,0.132987
489.137020,0.130403
489.470720,0.138724
489.804380,0.137342
490.138000,0.139466
490.471580,0.133382
490.805120,0.135811
491.138620,0.127221
491.472080,0.130742
491.805500,0.131102
492.138880,0.130646
492.472220,0.130796
492.805520,0.131983
493.138780,0.131633
493.472000,0.137793
493.805180,0.135744
494.138320,0.136091
494.471420,0.135417
494.804480,0.131307
495.137500,0.134788
495.470480,0.135118
495.803420,0.127834
496.136320,0.134712
496.469180,0.130755
496.802000,0.132641
497.134780,0.130382
497.467520,0.138838
497.800220,0.133844
498.132880,0.132863
498.465500,0.133835
498.798080,0.130708
499.130620,0.129141
499.463120,0.125772
499.795580,0.129813
500.128000,0.129700
500.460380,0.130248
500.792720,0.126193
501.125020,0.127693
501.457280,0.130548
501.789500,0.131715
502.121680,0.132711
502.453820,0.131566
502.785920,0.130565
503.117980,0.129048
503.450000,0.135108
503.781980,0.131041
504.113920,0.127074
504.445820,0.129801
504.777680,0.128000
505.109500,0.130288
505.441280,0.128107
505.773020,0.131047
506.104720,0.130005
506.436380,0.127780
506.768000,0.133302
507.099580,0.129519
507.431120,0.129274
507.762620,0.131109
508.094080,0.127165
508.425500,0.133520
508.756880,0.124371
509.088220,0.129715
509.419520,0.127095
509.750780,0.126992
510.082000,0.127332
510.413180,0.126670
510.744320,0.129314
511.075420,0.129239
511.406480,0.133051
511.737500,0.126852
512.068480,0.125000
512.399420,0.130986
512.730320,0.125635
513.061180,0.127022
513.392000,0.124468
513.722780,0.126801
514.053520,0.128414
514.384220,0.127973
514.714880,0.132121
515.045500,0.124521
515.376080,0.125908
515.706620,0.128105
516.037120,0.126471
516.367580,0.124692
516.698000,0.126961
517.028380,0.131082
517.358720,0.126420
517.689020,0.130564
518.019280,0.121927
518.349500,0.125190
518.679680,0.127713
519.009820,0.128036
519.339920,0.128758
519.669980,0.124561
520.000000,0.125318
520.329980,0.122343
520.659920,0.126789
520.989820,0.127967
521.319680,0.127572
521.649500,0.122879
521.979280,0.126305
522.309020,0.127593
522.638720,0.120840
522.968380,0.127715
523.298000,0.122129
523.627580,0.128298
523.957120,0.123117
524.286620,0.125065
524.616080,0.130817
524.945500,0.126615
525.274880,0.127758
525.604220,0.128364
525.933520,0.128931
526.262780,0.124176
526.592000,0.126839
526.921180,0.132047
527.250320,0.124302
527.579420,0.133906
527.908480,0.124077
528.237500,0.129096
528.566480,0.122255
528.895420,0.128142
529.224320,0.124814
529.553180,0.127711
529.882000,0.131387
530.210780,0.125000
530.539520,0.126079
530.868220,0.128291
531.196880,0.127090
531.525500,0.136562
531.854080,0.123827
532.182620,0.120037
532.511120,0.119722
532.839580,0.126588
533.168000,0.124886
533.496380,0.125571
533.824720,0.124720
534.153020,0.127508
534.481280,0.125110
534.809500,0.124890
535.137680,0.123264
535.465820,0.126718
535.793920,0.121827
536.121980,0.125052
536.450000,0.122199
536.777980,0.130289
537.105920,0.124948
537.433820,0.123159
537.761680,0.129388
538.089500,0.127883
538.417280,0.122165
538.745020,0.125990
539.072720,0.125732
539.400380,0.125874
539.728000,0.121989
540.055580,0.121348
540.383120,0.124348
540.710620,0.123140
541.038080,0.127997
541.365500,0.130882
541.692880,0.125727
542.020220,0.123786
542.347520,0.126705
542.674780,0.119619
543.002000,0.124913
543.329180,0.128025
543.656320,0.129044
543.983420,0.123077
544.310480,0.124023
544.637500,0.128284
544.964480,0.123822
545.291420,0.126952
545.618320,0.124502
545.945180,0.122281
546.272000,0.122215
546.598780,0.122583
546.925520,0.123970
547.252220,0.123143
547.578880,0.128381
547.905500,0.124837
548.232080,0.127355
548.558620,0.123658
548.885120,0.122342
549.211580,0.126647
549.538000,0.125162
549.864380,0.124437
550.190720,0.122054
550.517020,0.121578
550.843280,0.123127
551.169500,0.122774
551.495680,0.123522
551.821820,0.126061
552.147920,0.122316
552.473980,0.124794
552.800000,0.122956
553.125980,0.121480
553.451920,0.124419
553.777820,0.124584
554.103680,0.122009
554.429500,0.119518
554.755280,0.123832
555.081020,0.125334
555.406720,0.121910
555.732380,0.122331
556.058000,0.124576
556.383580,0.120849
556.709120,0.117505
557.034620,0.121943
557.360080,0.120553
557.685500,0.125173
558.010880,0.126170
558.336220,0.122320
558.661520,0.120170
558.986780,0.125089
559.312000,0.121439
559.637180,0.121364
559.962320,0.117480
560.287420,0.123766
560.612480,0.121995
560.937500,0.122614
561.262480,0.123167
561.587420,0.125136
561.912320,0.123066
562.237180,0.125463
562.562000,0.119342
562.886780,0.123746
563.211520,0.120715
563.536220,0.122820
563.860880,0.123350
564.185500,0.124953
564.510080,0.120391
564.834620,0.120953
565.159120,0.118421
565.483580,0.121627
565.808000,0.117669
566.132380,0.119731
566.456720,0.125094
566.781020,0.120405
567.105280,0.118336
567.429500,0.122914
567.753680,0.120829
568.077820,0.119443
568.401920,0.125286
568.725980,0.121063
569.050000,0.121673
569.373980,0.122954
569.697920,0.118316
570.021820,0.119476
570.345680,0.119786
570.669500,0.121328
570.993280,0.121816
571.317020,0.119109
571.640720,0.121156
571.964380,0.118411
572.288000,0.123145
572.611580,0.123549
572.935120,0.121212
573.258620,0.120793
573.582080,0.118107
573.905500,0.121370
574.228880,0.121752
574.552220,0.119824
574.875520,0.118019
575.198780,0.121431
575.522000,0.122067
575.845180,0.117837
576.168320,0.118936
576.491420,0.124637
576.814480,0.118987
577.137500,0.118326
577.460480,0.119246
577.783420,0.117899
578.106320,0.122863
578.429180,0.123365
578.752000,0.120528
579.074780,0.119353
579.397520,0.118464
579.720220,0.122265
580.042880,0.120581
580.365500,0.118134
580.688080,0.121777
581.010620,0.120486
581.333120,0.114562
581.655580,0.120879
581.978000,0.121051
582.300380,0.122687
582.622720,0.121951
582.945020,0.121586
583.267280,0.123413
583.589500,0.119422
583.911680,0.120038
584.233820,0.121813
584.555920,0.121336
584.877980,0.119975
585.200000,0.117557
585.521980,0.119864
585.843920,0.120195
586.165820,0.122791
586.487680,0.121276
586.809500,0.120912
587.131280,0.120970
587.453020,0.120238
587.774720,0.120047
588.096380,0.118436
588.418000,0.122622
588.739580,0.121587
589.061120,0.120472
589.382620,0.118052
589.704080,0.121739
590.025500,0.122146
590.346880,0.117763
590.668220,0.117894
590.989520,0.115918
591.310780,0.118752
591.632000,0.122131
591.953180,0.122336
592.274320,0.117117
592.595420,0.120959
592.916480,0.118718
593.237500,0.117489
593.558480,0.118375
593.879420,0.120852
594.200320,0.122690
594.521180,0.120053
594.842000,0.120365
595.162780,0.121261
595.483520,0.120181
595.804220,0.117615
596.124880,0.120703
596.445500,0.118942
596.766080,0.122882
597.086620,0.121285
597.407120,0.117957
597.727580,0.120923
598.048000,0.119810
598.368380,0.118096
598.688720,0.122936
599.009020,0.116773
599.329280,0.119212
599.649500,0.116746
599.969680,0.118056
600.289820,0.118323
600.609920,0.118621
600.929980,0.119455
601.250000,0.117297
601.569980,0.121523
601.889920,0.116814
602.209820,0.117695
602.529680,0.123043
602.849500,0.116748
603.169280,0.119317
603.489020,0.117631
603.808720,0.119309
604.128380,0.115894
604.448000,0.117403
604.767580,0.118156
605.087120,0.117452
605.406620,0.117828
605.726080,0.116624
606.045500,0.116188
606.364880,0.117664
606.684220,0.115648
607.003520,0.116686
607.322780,0.115122
607.642000,0.115738
607.961180,0.113617
608.280320,0.118329
608.599420,0.114137
608.918480,0.117302
609.237500,0.116197
609.556480,0.118082
609.875420,0.117247
610.194320,0.117213
610.513180,0.119858
610.832000,0.118523
611.150780,0.120457
611.469520,0.115837
611.788220,0.120314
612.106880,0.117612
612.425500,0.118149
612.744080,0.117267
613.062620,0.116820
613.381120,0.115478
613.699580,0.115880
614.018000,0.114251
614.336380,0.116595
614.654720,0.120310
614.973020,0.113545
615.291280,0.119616
615.609500,0.114422
615.927680,0.115575
616.245820,0.115337
616.563920,0.117190
616.881980,0.119738
617.200000,0.119129
617.517980,0.115121
617.835920,0.116496
618.153820,0.112527
618.471680,0.118140
618.789500,0.114223
619.107280,0.118310
619.425020,0.118617
619.742720,0.113308
620.060380,0.118458
620.378000,0.115167
620.695580,0.118455
621.013120,0.113071
621.330620,0.116724
621.648080,0.115457
621.965500,0.116374
622.282880,0.115385
622.600220,0.117814
622.917520,0.114052
623.234780,0.115076
623.552000,0.118078
623.869180,0.112827
624.186320,0.117160
624.503420,0.117555
624.820480,0.117813
625.137500,0.113988
625.454480,0.113473
625.771420,0.112863
626.088320,0.113493
626.405180,0.117610
626.722000,0.114178
627.038780,0.115915
627.355520,0.113750
627.672220,0.116330
627.988880,0.114152
628.305500,0.113119
628.622080,0.118649
628.938620,0.114985
629.255120,0.114188
629.571580,0.115844
629.888000,0.114452
630.204380,0.114452
630.520720,0.114260
630.837020,0.114709
631.153280,0.114808
631.469500,0.119466
631.785680,0.116034
632.101820,0.116405
632.417920,0.114754
632.733980,0.111645
633.050000,0.114918
633.365980,0.116479
633.681920,0.118735
633.997820,0.117454
634.313680,0.110882
634.629500,0.117075
634.945280,0.114076
635.261020,0.116231
635.576720,0.113623
635.892380,0.114435
636.208000,0.118245
636.523580,0.118679
636.839120,0.114071
637.154620,0.116522
637.470080,0.113917
637.785500,0.116354
638.100880,0.113524
638.416220,0.113604
638.731520,0.114327
639.046780,0.113603
639.362000,0.114679
639.677180,0.115648
639.992320,0.111926
640.307420,0.115763
640.622480,0.114254
640.937500,0.113454
641.252480,0.115889
641.567420,0.116510
641.882320,0.114699
642.197180,0.117911
642.512000,0.111391
642.826780,0.114008
643.141520,0.112253
643.456220,0.115938
643.770880,0.116915
644.085500,0.113471
644.400080,0.113764
644.714620,0.113434
645.029120,0.114961
645.343580,0.114372
645.658000,0.111296
645.972380,0.114004
646.286720,0.116108
646.601020,0.116247
646.915280,0.115437
647.229500,0.114286
647.543680,0.113228
647.857820,0.113405
648.171920,0.114759
648.485980,0.116744
648.800000,0.110774
649.113980,0.115576
649.427920,0.111512
649.741820,0.108821
650.055680,0.113823
650.369500,0.113789
650.683280,0.110433
650.997020,0.114961
651.310720,0.114750
651.624380,0.114011
651.938000,0.116898
652.251580,0.113276
652.565120,0.113751
652.878620,0.114302
653.192080,0.113202
653.505500,0.113885
653.818880,0.113449
654.132220,0.111934
654.445520,0.111174
654.758780,0.112748
655.072000,0.115759
655.385180,0.112411
655.698320,0.111175
656.011420,0.113786
656.324480,0.113669
656.637500,0.115006
656.950480,0.111861
657.263420,0.115873
657.576320,0.110584
657.889180,0.113831
658.202000,0.109903
658.514780,0.117595
658.827520,0.111645
659.140220,0.112077
659.452880,0.114165
659.765500,0.114088
660.078080,0.112850
660.390620,0.109074
660.703120,0.112435
661.015580,0.111043
661.328000,0.114924
661.640380,0.112457
661.952720,0.113983
662.265020,0.113106
662.577280,0.111959
662.889500,0.110060
663.201680,0.111359
663.513820,0.109038
663.825920,0.107909
664.137980,0.113445
664.450000,0.107417
664.761980,0.109002
665.073920,0.112626
665.385820,0.112238
665.697680,0.109752
666.009500,0.111074
666.321280,0.107687
666.633020,0.111037
666.944720,0.112235
667.256380,0.112719
667.568000,0.110054
667.879580,0.109184
668.191120,0.109890
668.502620,0.108867
668.814080,0.112281
669.125500,0.111529
669.436880,0.113762
669.748220,0.111111
670.059520,0.108193
670.370780,0.110299
670.682000,0.113628
670.993180,0.112403
671.304320,0.111814
671.615420,0.108665
671.926480,0.111427
672.237500,0.105038
672.548480,0.108943
672.859420,0.112223
673.170320,0.110990
673.481180,0.111151
673.792000,0.107825
674.102780,0.109156
674.413520,0.107182
674.724220,0.108167
675.034880,0.112211
675.345500,0.108680
675.656080,0.110345
675.966620,0.109858
676.277120,0.107653
676.587580,0.107879
676.898000,0.111609
677.208380,0.109797
677.518720,0.106127
677.829020,0.107539
678.139280,0.111193
678.449500,0.113999
678.759680,0.109404
679.069820,0.107063
679.379920,0.111279
679.689980,0.107687
680.000000,0.106168
680.309980,0.109131
680.619920,0.104506
680.929820,0.112729
681.239680,0.109306
681.549500,0.110370
681.859280,0.109410
682.169020,0.108915
682.478720,0.106956
682.788380,0.105943
683.098000,0.110322
683.407580,0.108818
683.717120,0.107357
684.026620,0.109563
684.336080,0.109890
684.645500,0.102507
684.954880,0.109558
685.264220,0.111740
685.573520,0.113818
685.882780,0.109321
686.192000,0.106471
686.501180,0.104427
686.810320,0.109147
687.119420,0.109464
687.428480,0.108621
687.737500,0.107828
688.046480,0.108512
688.355420,0.109770
688.664320,0.105585
688.973180,0.109495
689.282000,0.107639
689.590780,0.105061
689.899520,0.111660
690.208220,0.108180
690.516880,0.110729
690.825500,0.110943
691.134080,0.110099
691.442620,0.105564
691.751120,0.107319
692.059580,0.109285
692.368000,0.105642
692.676380,0.108779
692.984720,0.108015
693.293020,0.109422
693.601280,0.108737
693.909500,0.108967
694.217680,0.110815
694.525820,0.106626
694.833920,0.113316
695.141980,0.107597
695.450000,0.109542
695.757980,0.107716
696.065920,0.110291
696.373820,0.107775
696.681680,0.107403
696.989500,0.109996
697.297280,0.106573
697.605020,0.108333
697.912720,0.108378
698.220380,0.107044
698.528000,0.110364
698.835580,0.105097
699.143120,0.106781
699.450620,0.107796
699.758080,0.107451
700.065500,0.110934
700.372880,0.107600
700.680220,0.108895
700.987520,0.109127
701.294780,0.110300
701.602000,0.108162
701.909180,0.105723
702.216320,0.103246
702.523420,0.106946
702.830480,0.108515
703.137500,0.109899
703.444480,0.112821
703.751420,0.107298
704.058320,0.105263
704.365180,0.110410
704.672000,0.112475
704.978780,0.109637
705.285520,0.107981
705.592220,0.102353
705.898880,0.107959
706.205500,0.108372
706.512080,0.111374
706.818620,0.107972
707.125120,0.106538
707.431580,0.103556
707.738000,0.108594
708.044380,0.104593
708.350720,0.107375
708.657020,0.107073
708.963280,0.105978
709.269500,0.104110
709.575680,0.104126
709.881820,0.106918
710.187920,0.104669
710.493980,0.104732
710.800000,0.104500
711.105980,0.105422
711.411920,0.105637
711.717820,0.105653
712.023680,0.104936
712.329500,0.105284
712.635280,0.108527
712.941020,0.109007
713.246720,0.108300
713.552380,0.109105
713.858000,0.106031
714.163580,0.107735
714.469120,0.102384
714.774620,0.105014
715.080080,0.108755
715.385500,0.110312
715.690880,0.102959
715.996220,0.102219
716.301520,0.106719
716.606780,0.106132
716.912000,0.106220
717.217180,0.105347
717.522320,0.105368
717.827420,0.106184
718.132480,0.104777
718.437500,0.108031
718.742480,0.104032
719.047420,0.105987
719.352320,0.107929
719.657180,0.107522
719.962000,0.104218
720.266780,0.106356
720.571520,0.103563
720.876220,0.105974
721.180880,0.103261
721.485500,0.104889
721.790080,0.107006
722.094620,0.106775
722.399120,0.105127
722.703580,0.105872
723.008000,0.110824
723.312380,0.102023
723.616720,0.103697
723.921020,0.105240
724.225280,0.105585
724.529500,0.105079
724.833680,0.108096
725.137820,0.106608
725.441920,0.106554
725.745980,0.108725
726.050000,0.106450
726.353980,0.100496
726.657920,0.106163
726.961820,0.106849
727.265680,0.108645
727.569500,0.108318
727.873280,0.105312
728.177020,0.107324
728.480720,0.104630
728.784380,0.108502
729.088000,0.104098
729.391580,0.106585
729.695120,0.107006
729.998620,0.104685
730.302080,0.106199
730.605500,0.102377
730.908880,0.103381
731.212220,0.102351
731.515520,0.102877
731.818780,0.100485
732.122000,0.106791
732.425180,0.101528
732.728320,0.104611
733.031420,0.104762
733.334480,0.101020
733.637500,0.103327
733.940480,0.100819
734.243420,0.107543
734.546320,0.103734
734.849180,0.103822
735.152000,0.099066
735.454780,0.103822
735.757520,0.103793
736.060220,0.104792
736.362880,0.101891
736.665500,0.104961
736.968080,0.110156
737.270620,0.103974
737.573120,0.098253
737.875580,0.110500
738.178000,0.099619
738.480380,0.101622
738.782720,0.105234
739.085020,0.102423
739.387280,0.104213
739.689500,0.096829
739.991680,0.104997
740.293820,0.101161
740.595920,0.106845
740.897980,0.103331
741.200000,0.104879
741.501980,0.109456
741.803920,0.107545
742.105820,0.103215
742.407680,0.103669
742.709500,0.100568
743.011280,0.100234
743.313020,0.101449
743.614720,0.101567
743.916380,0.100000
744.218000,0.105012
744.519580,0.104469
744.821120,0.107186
745.122620,0.107849
745.424080,0.102764
745.725500,0.100785
746.026880,0.097291
746.328220,0.101726
746.629520,0.097532
746.930780,0.105392
747.232000,0.104231
747.533180,0.105552
747.834320,0.105904
748.135420,0.101305
748.436480,0.103556
748.737500,0.101297
749.038480,0.097129
749.339420,0.109521
749.640320,0.106851
749.941180,0.104310
750.242000,0.103643
750.542780,0.103598
750.843520,0.105061
751.144220,0.100641
751.444880,0.111604
751.745500,0.100000
752.046080,0.109686
752.346620,0.106314
752.647120,0.105160
752.947580,0.102199
753.248000,0.105738
753.548380,0.100846
753.848720,0.102382
754.149020,0.098646
754.449280,0.107026
754.749500,0.102190
755.049680,0.106667
755.349820,0.099400
755.649920,0.105089
755.949980,0.098208
756.250000,0.103222
756.549980,0.102970
756.849920,0.104011
757.149820,0.097139
757.449680,0.108251
757.749500,0.102931
758.049280,0.094881
758.349020,0.100139
758.648720,0.105590
758.948380,0.104467
759.248000,0.099730
759.547580,0.101547
759.847120,0.101999
760.146620,0.101488
760.446080,0.103495
760.745500,0.100000
761.044880,0.108665
761.344220,0.102637
761.643520,0.110169
761.942780,0.100770
762.242000,0.103253
762.541180,0.097887
762.840320,0.100421
763.139420,0.101969
763.438480,0.099795
763.737500,0.099242
764.036480,0.104123
764.335420,0.102329
764.634320,0.101178
764.933180,0.104795
765.232000,0.098543
765.530780,0.101053
765.829520,0.106294
766.128220,0.100905
766.426880,0.101635
766.725500,0.105552
767.024080,0.100823
767.322620,0.098893
767.621120,0.099593
767.919580,0.096928
768.218000,0.103283
768.516380,0.106153
768.814720,0.102881
769.113020,0.098553
769.411280,0.104282
769.709500,0.098106
770.007680,0.092706
770.305820,0.098715
770.603920,0.098383
770.901980,0.103825
771.200000,0.100543
771.497980,0.103887
771.795920,0.094314
772.093820,0.102273
772.391680,0.106131
772.689500,0.093243
772.987280,0.100337
773.285020,0.104580
773.582720,0.098649
773.880380,0.101579
774.178000,0.098160
774.475580,0.102478
774.773120,0.097724
775.070620,0.103448
775.368080,0.101536
775.665500,0.096709
775.962880,0.104736
776.260220,0.098923
776.557520,0.101401
776.854780,0.102772
777.152000,0.102122
777.449180,0.103169
777.746320,0.100806
778.043420,0.103683
778.340480,0.101488
778.637500,0.097363
778.934480,0.106254
779.231420,0.097015
779.528320,0.094856
779.825180,0.100132
780.122000,0.102922
780.418780,0.101915
780.715520,0.105298
781.012220,0.106164
781.308880,0.101420
781.605500,0.100685
781.902080,0.098563
782.198620,0.099111
782.495120,0.098765
782.791580,0.098349
783.088000,0.104210
783.384380,0.102476
783.680720,0.099863
783.977020,0.099794
784.273280,0.103497
784.569500,0.097135
784.865680,0.099444
785.161820,0.095139
785.457920,0.098406
785.753980,0.098395
786.050000,0.099448
786.345980,0.102083
786.641920,0.103400
786.937820,0.103276
787.233680,0.093250
787.529500,0.097087
787.825280,0.101275
788.121020,0.100567
788.416720,0.097389
788.712380,0.103667
789.008000,0.098442
789.303580,0.092580
789.599120,0.101818
789.894620,0.100361
790.190080,0.099347
790.485500,0.097912
790.780880,0.099642
791.076220,0.101732
791.371520,0.100944
791.666780,0.103273
791.962000,0.099192
792.257180,0.095168
792.552320,0.100073
792.847420,0.106259
793.142480,0.095971
793.437500,0.100579
793.732480,0.100219
794.027420,0.095697
794.322320,0.100671
794.617180,0.108470
794.912000,0.100297
795.206780,0.104400
795.501520,0.101141
795.796220,0.094074
796.090880,0.103240
796.385500,0.101949
796.680080,0.098728
796.974620,0.104042
797.269120,0.095382
797.563580,0.098473
797.858000,0.099468
798.152380,0.100541
798.446720,0.097692
798.741020,0.106317
799.035280,0.097826
799.329500,0.103156
799.623680,0.097674
