399.985280,0.094595
400.329500,0.202703
400.673680,0.126582
401.017820,0.088235
401.361920,0.045455
401.705980,0.158537
402.050000,0.077922
402.393980,0.094118
402.737920,0.179775
403.081820,0.123711
403.425680,0.127907
403.769500,0.093750
404.113280,0.091954
404.457020,0.123596
404.800720,0.054348
405.144380,0.212121
405.488000,0.129032
405.831580,0.144330
406.175120,0.106383
406.518620,0.160000
406.862080,0.123711
407.205500,0.031250
407.548880,0.102041
407.892220,0.137255
408.235520,0.170213
408.578780,0.161905
408.922000,0.115385
409.265180,0.171717
409.608320,0.121212
409.951420,0.195876
410.294480,0.147059
410.637500,0.086957
410.980480,0.117647
411.323420,0.112245
411.666320,0.110092
412.009180,0.190909
412.352000,0.099010
412.694780,0.146789
413.037520,0.110092
413.380220,0.135135
413.722880,0.133929
414.065500,0.153153
414.408080,0.150442
414.750620,0.123894
415.093120,0.099174
415.435580,0.126050
415.778000,0.128788
416.120380,0.117647
416.462720,0.079365
416.805020,0.187970
417.147280,0.141791
417.489500,0.164286
417.831680,0.136986
418.173820,0.113475
418.515920,0.146853
418.857980,0.145570
419.200000,0.108974
419.541980,0.118343
419.883920,0.129213
420.225820,0.098266
420.567680,0.134078
420.909500,0.136612
421.251280,0.151042
421.593020,0.127551
421.934720,0.121212
422.276380,0.117949
422.618000,0.137255
422.959580,0.127451
423.301120,0.150685
423.642620,0.121739
423.984080,0.111628
424.325500,0.112108
424.666880,0.133621
425.008220,0.134454
425.349520,0.135593
425.690780,0.119231
426.032000,0.121569
426.373180,0.112033
426.714320,0.121094
427.055420,0.131274
427.396480,0.131086
427.737500,0.118577
428.078480,0.114625
428.419420,0.096386
428.760320,0.111111
429.101180,0.149606
429.442000,0.145594
429.782780,0.126923
430.123520,0.129412
430.464220,0.140221
430.804880,0.153257
431.145500,0.120000
431.486080,0.149813
431.826620,0.147287
432.167120,0.125000
432.507580,0.152174
432.848000,0.129496
433.188380,0.122744
433.528720,0.116981
433.869020,0.121429
434.209280,0.115789
434.549500,0.146341
434.889680,0.138047
435.229820,0.126280
435.569920,0.114187
435.909980,0.129450
436.250000,0.138983
436.589980,0.111455
436.929920,0.165079
437.269820,0.128527
437.609680,0.130178
437.949500,0.123494
438.289280,0.116147
438.629020,0.145349
438.968720,0.130814
439.308380,0.119241
439.648000,0.145205
439.987580,0.129630
440.327120,0.122667
440.666620,0.132468
441.006080,0.135550
441.345500,0.125307
441.684880,0.124402
442.024220,0.124069
442.363520,0.119048
442.702780,0.125000
443.042000,0.116740
443.381180,0.131466
443.720320,0.133909
444.059420,0.123950
444.398480,0.115063
444.737500,0.133197
445.076480,0.128968
445.415420,0.125749
445.754320,0.124740
446.093180,0.115596
446.432000,0.120301
446.770780,0.127135
447.109520,0.137868
447.448220,0.123435
447.786880,0.134168
448.125500,0.132759
448.464080,0.126786
448.802620,0.124113
449.141120,0.121107
449.479580,0.138112
449.818000,0.134251
450.156380,0.127090
450.494720,0.127273
450.833020,0.124126
451.171280,0.116438
451.509500,0.121951
451.847680,0.124789
452.185820,0.120482
452.523920,0.125430
452.861980,0.133221
453.200000,0.114618
453.537980,0.112605
453.875920,0.132773
454.213820,0.114726
454.551680,0.124172
454.889500,0.114671
455.227280,0.108541
455.565020,0.132328
455.902720,0.133111
456.240380,0.111481
456.578000,0.123693
456.915580,0.117444
457.253120,0.116776
457.590620,0.126437
457.928080,0.126263
458.265500,0.125000
458.602880,0.112013
458.940220,0.120135
459.277520,0.124800
459.614780,0.129296
459.952000,0.130435
460.289180,0.129747
460.626320,0.133858
460.963420,0.132472
461.300480,0.123853
461.637500,0.114022
461.974480,0.113150
462.311420,0.114754
462.648320,0.121523
462.985180,0.123386
463.322000,0.125000
463.658780,0.124309
463.995520,0.116919
464.332220,0.123269
464.668880,0.129032
465.005500,0.134048
465.342080,0.126761
465.678620,0.125461
466.015120,0.122898
466.351580,0.125158
466.688000,0.131547
467.024380,0.119077
467.360720,0.120455
467.697020,0.121868
468.033280,0.124444
468.369500,0.122517
468.705680,0.122886
469.041820,0.120833
469.377920,0.118221
469.713980,0.121524
470.050000,0.129469
470.385980,0.123288
470.721920,0.115573
471.057820,0.117934
471.393680,0.119738
471.729500,0.116775
472.065280,0.119857
472.401020,0.121454
472.736720,0.118674
473.072380,0.123878
473.408000,0.114883
473.743580,0.119377
474.079120,0.123170
474.414620,0.126378
474.750080,0.120423
475.085500,0.124178
475.420880,0.114072
475.756220,0.120196
476.091520,0.117647
476.426780,0.117314
476.762000,0.120676
477.097180,0.125600
477.432320,0.118740
477.767420,0.124183
478.102480,0.118110
478.437500,0.110837
478.772480,0.118203
479.107420,0.118796
479.442320,0.118305
479.777180,0.119332
480.112000,0.124807
480.446780,0.112237
480.781520,0.119163
481.116220,0.119644
481.450880,0.113973
481.785500,0.122627
482.120080,0.120690
482.454620,0.121212
482.789120,0.121815
483.123580,0.115265
483.458000,0.113133
483.792380,0.112620
484.126720,0.112741
484.461020,0.117096
484.795280,0.121049
485.129500,0.123149
485.463680,0.115504
485.797820,0.119751
486.131920,0.117062
486.465980,0.115830
486.800000,0.121374
487.133980,0.114048
487.467920,0.118592
487.801820,0.125095
488.135680,0.121304
488.469500,0.113464
488.803280,0.121100
489.137020,0.113553
489.470720,0.120920
489.804380,0.113586
490.138000,0.117211
490.471580,0.124539
490.805120,0.110079
491.138620,0.117982
491.472080,0.118021
491.805500,0.119944
492.138880,0.118833
492.472220,0.115571
492.805520,0.113128
493.138780,0.115093
493.472000,0.122408
493.805180,0.124147
494.138320,0.114076
494.471420,0.115885
494.804480,0.113195
495.137500,0.121309
495.470480,0.125558
495.803420,0.115869
496.136320,0.117794
496.469180,0.118478
496.802000,0.119193
497.134780,0.114008
497.467520,0.118043
497.800220,0.117925
498.132880,0.118754
498.465500,0.121089
498.798080,0.114155
499.130620,0.115665
499.463120,0.119596
499.795580,0.116612
500.128000,0.119891
500.460380,0.119483
500.792720,0.115058
501.125020,0.118234
501.457280,0.114360
501.789500,0.118802
502.121680,0.120270
502.453820,0.114737
502.785920,0.115558
503.117980,0.116781
503.450000,0.123556
503.781980,0.117090
504.113920,0.115695
504.445820,0.116675
504.777680,0.110588
505.109500,0.110577
505.441280,0.115679
505.773020,0.113668
506.104720,0.115403
506.436380,0.116895
506.768000,0.117399
507.099580,0.111213
507.431120,0.112881
507.762620,0.113722
508.094080,0.115314
508.425500,0.118114
508.756880,0.118884
509.088220,0.114995
509.419520,0.112663
509.750780,0.113402
510.082000,0.115672
510.413180,0.115615
510.744320,0.116429
511.075420,0.114574
511.406480,0.112835
511.737500,0.109722
512.068480,0.116071
512.399420,0.114554
512.730320,0.112240
513.061180,0.115604
513.392000,0.114529
513.722780,0.111431
514.053520,0.110685
514.384220,0.114177
514.714880,0.112494
515.045500,0.108716
515.376080,0.109927
515.706620,0.115441
516.037120,0.112745
516.367580,0.113849
516.698000,0.110784
517.028380,0.114201
517.358720,0.116543
517.689020,0.116222
518.019280,0.115906
518.349500,0.115053
518.679680,0.113579
519.009820,0.112854
519.339920,0.115230
519.669980,0.114013
520.000000,0.115639
520.329980,0.109902
520.659920,0.113497
520.989820,0.117131
521.319680,0.117284
521.649500,0.113111
521.979280,0.114823
522.309020,0.106846
522.638720,0.108551
522.968380,0.113237
523.298000,0.110647
523.627580,0.112261
523.957120,0.113247
524.286620,0.113080
524.616080,0.111686
524.945500,0.111111
525.274880,0.115957
525.604220,0.114389
525.933520,0.114256
526.262780,0.113533
526.592000,0.115170
526.921180,0.115795
527.250320,0.113648
527.579420,0.114199
527.908480,0.111768
528.237500,0.109732
528.566480,0.113772
528.895420,0.115821
529.224320,0.115404
529.553180,0.114699
529.882000,0.115815
530.210780,0.109073
530.539520,0.113615
530.868220,0.116802
531.196880,0.108935
531.525500,0.118644
531.854080,0.113508
532.182620,0.110229
532.511120,0.109977
532.839580,0.113884
533.168000,0.114403
533.496380,0.114155
533.824720,0.113055
534.153020,0.112350
534.481280,0.112335
534.809500,0.113017
535.137680,0.112413
535.465820,0.109966
535.793920,0.115905
536.121980,0.110785
536.450000,0.112051
536.777980,0.111856
537.105920,0.115816
537.433820,0.114566
537.761680,0.115918
538.089500,0.115338
538.417280,0.112216
538.745020,0.110935
539.072720,0.110113
539.400380,0.115773
539.728000,0.112428
540.055580,0.113858
540.383120,0.111690
540.710620,0.113095
541.038080,0.111398
541.365500,0.110662
541.692880,0.113735
542.020220,0.114430
542.347520,0.113424
542.674780,0.113620
543.002000,0.112316
543.329180,0.116100
543.656320,0.114979
543.983420,0.109402
544.310480,0.113490
544.637500,0.113954
544.964480,0.116420
545.291420,0.110336
545.618320,0.110890
545.945180,0.111074
546.272000,0.107143
546.598780,0.110783
546.925520,0.111441
547.252220,0.108947
547.578880,0.110134
547.905500,0.114052
548.232080,0.110786
548.558620,0.113570
548.885120,0.112202
549.211580,0.109290
549.538000,0.110246
549.864380,0.112540
550.190720,0.110752
550.517020,0.111147
550.843280,0.113029
551.169500,0.106870
551.495680,0.108081
551.821820,0.113978
552.147920,0.109954
552.473980,0.112282
552.800000,0.107587
553.125980,0.113621
553.451920,0.111148
553.777820,0.109927
554.103680,0.109875
554.429500,0.112822
554.755280,0.108144
555.081020,0.111631
555.406720,0.108703
555.732380,0.108438
556.058000,0.112016
556.383580,0.106470
556.709120,0.113025
557.034620,0.106786
557.360080,0.107772
557.685500,0.110650
558.010880,0.111265
558.336220,0.106854
558.661520,0.111663
558.986780,0.111977
559.312000,0.109687
559.637180,0.110952
559.962320,0.109648
560.287420,0.110367
560.612480,0.106207
560.937500,0.109031
561.262480,0.112170
561.587420,0.110627
561.912320,0.107959
562.237180,0.110289
562.562000,0.110737
562.886780,0.107023
563.211520,0.109165
563.536220,0.107236
563.860880,0.105998
564.185500,0.108818
564.510080,0.110986
564.834620,0.109416
565.159120,0.107143
565.483580,0.108704
565.808000,0.109724
566.132380,0.107050
566.456720,0.110355
566.781020,0.107277
567.105280,0.108885
567.429500,0.108877
567.753680,0.108170
568.077820,0.107074
568.401920,0.106952
568.725980,0.110436
569.050000,0.109886
569.373980,0.106205
569.697920,0.113007
570.021820,0.111236
570.345680,0.107922
570.669500,0.107593
570.993280,0.110742
571.317020,0.108878
571.640720,0.107077
571.964380,0.108760
572.288000,0.112760
572.611580,0.107450
572.935120,0.107744
573.258620,0.109200
573.582080,0.107675
573.905500,0.108340
574.228880,0.112101
574.552220,0.111763
574.875520,0.108340
575.198780,0.110228
575.522000,0.109604
575.845180,0.103152
576.168320,0.109235
576.491420,0.110102
576.814480,0.109584
577.137500,0.108586
577.460480,0.109460
577.783420,0.106824
578.106320,0.108262
578.429180,0.113114
578.752000,0.109413
579.074780,0.106878
579.397520,0.107166
579.720220,0.107786
580.042880,0.110010
580.365500,0.109861
580.688080,0.112280
581.010620,0.111036
581.333120,0.111890
581.655580,0.111888
581.978000,0.111074
582.300380,0.110029
582.622720,0.109756
582.945020,0.108257
583.267280,0.107782
583.589500,0.109791
583.911680,0.113052
584.233820,0.105445
584.555920,0.110936
584.877980,0.109925
585.200000,0.105586
585.521980,0.109361
585.843920,0.108908
586.165820,0.106033
586.487680,0.108637
586.809500,0.108911
587.131280,0.106477
587.453020,0.107143
587.774720,0.109107
588.096380,0.105893
588.418000,0.106526
588.739580,0.110951
589.061120,0.108683
589.382620,0.104585
589.704080,0.108836
590.025500,0.110160
590.346880,0.109331
590.668220,0.105853
590.989520,0.108153
591.310780,0.107429
591.632000,0.109016
591.953180,0.108497
592.274320,0.108108
592.595420,0.108297
592.916480,0.107036
593.237500,0.109135
593.558480,0.109497
593.879420,0.112490
594.200320,0.107956
594.521180,0.107570
594.842000,0.112037
595.162780,0.110577
595.483520,0.108748
595.804220,0.107411
596.124880,0.111111
596.445500,0.108200
596.766080,0.105674
597.086620,0.108546
597.407120,0.107425
597.727580,0.108194
598.048000,0.109759
598.368380,0.104682
598.688720,0.109830
599.009020,0.106423
599.329280,0.108036
599.649500,0.107237
599.969680,0.109509
600.289820,0.108440
600.609920,0.106065
600.929980,0.108231
601.250000,0.103784
601.569980,0.104510
601.889920,0.109596
602.209820,0.107143
602.529680,0.108212
602.849500,0.107747
603.169280,0.106641
603.489020,0.107113
603.808720,0.106967
604.128380,0.107340
604.448000,0.109392
604.767580,0.108939
605.087120,0.106094
605.406620,0.107753
605.726080,0.109210
606.045500,0.104207
606.364880,0.109158
606.684220,0.109366
607.003520,0.108658
607.322780,0.106310
607.642000,0.107984
607.961180,0.108991
608.280320,0.107019
608.599420,0.104577
608.918480,0.103812
609.237500,0.106221
609.556480,0.106540
609.875420,0.107797
610.194320,0.106584
610.513180,0.106836
610.832000,0.108100
611.150780,0.106939
611.469520,0.106787
611.788220,0.107618
612.106880,0.109168
612.425500,0.107186
612.744080,0.105263
613.062620,0.107034
613.381120,0.108775
613.699580,0.106070
614.018000,0.105958
614.336380,0.106107
614.654720,0.108837
614.973020,0.102129
615.291280,0.105981
615.609500,0.110301
615.927680,0.108467
616.245820,0.103896
616.563920,0.108175
616.881980,0.106018
617.200000,0.108865
617.517980,0.102054
617.835920,0.104691
618.153820,0.104445
618.471680,0.104806
618.789500,0.109188
619.107280,0.106103
619.425020,0.108151
619.742720,0.100439
620.060380,0.105610
620.378000,0.109503
620.695580,0.105045
621.013120,0.105197
621.330620,0.107311
621.648080,0.101577
621.965500,0.104141
622.282880,0.103090
622.600220,0.104232
622.917520,0.103655
623.234780,0.108647
623.552000,0.104710
623.869180,0.106209
624.186320,0.106654
624.503420,0.107524
624.820480,0.106503
625.137500,0.105147
625.454480,0.102845
625.771420,0.105612
626.088320,0.101513
626.405180,0.107343
626.722000,0.104768
627.038780,0.101190
627.355520,0.105625
627.672220,0.103577
627.988880,0.104821
628.305500,0.103459
628.622080,0.108736
628.938620,0.106116
629.255120,0.108276
629.571580,0.104812
629.888000,0.105861
630.204380,0.104633
630.520720,0.105728
630.837020,0.104533
631.153280,0.106115
631.469500,0.106125
631.785680,0.108800
632.101820,0.107961
632.417920,0.108793
632.733980,0.101741
633.050000,0.104609
633.365980,0.104920
633.681920,0.106205
633.997820,0.108189
634.313680,0.102035
634.629500,0.104099
634.945280,0.103812
635.261020,0.106545
635.576720,0.107164
635.892380,0.104850
636.208000,0.109239
636.523580,0.103771
636.839120,0.103358
637.154620,0.105797
637.470080,0.099857
637.785500,0.104924
638.100880,0.105995
638.416220,0.101812
638.731520,0.104011
639.046780,0.103117
639.362000,0.102351
639.677180,0.107082
639.992320,0.103750
640.307420,0.105086
640.622480,0.104733
640.937500,0.105409
641.252480,0.103044
641.567420,0.102870
641.882320,0.103285
642.197180,0.107243
642.512000,0.102995
642.826780,0.103190
643.141520,0.105029
643.456220,0.104040
643.770880,0.103925
644.085500,0.104248
644.400080,0.104775
644.714620,0.105072
645.029120,0.105061
645.343580,0.102030
645.658000,0.102692
645.972380,0.104960
646.286720,0.104388
646.601020,0.104622
646.915280,0.108308
647.229500,0.104121
647.543680,0.104115
647.857820,0.104597
648.171920,0.101736
648.485980,0.103316
648.800000,0.103610
649.113980,0.101996
649.427920,0.104854
649.741820,0.100577
650.055680,0.103950
650.369500,0.105661
650.683280,0.102664
650.997020,0.101485
651.310720,0.102917
651.624380,0.100549
651.938000,0.103878
652.251580,0.102143
652.565120,0.103969
652.878620,0.103604
653.192080,0.101966
653.505500,0.104067
653.818880,0.107478
654.132220,0.103389
654.445520,0.101531
654.758780,0.101416
655.072000,0.104011
655.385180,0.104993
655.698320,0.101458
656.011420,0.102322
656.324480,0.101137
656.637500,0.100521
656.950480,0.102466
657.263420,0.100503
657.576320,0.103172
657.889180,0.103804
658.202000,0.101751
658.514780,0.100923
658.827520,0.101441
659.140220,0.100989
659.452880,0.102688
659.765500,0.102950
660.078080,0.099308
660.390620,0.098381
660.703120,0.103575
661.015580,0.103681
661.328000,0.106108
661.640380,0.101895
661.952720,0.104640
662.265020,0.100819
662.577280,0.103372
662.889500,0.100599
663.201680,0.102744
663.513820,0.099389
663.825920,0.099904
664.137980,0.101487
664.450000,0.099105
664.761980,0.105074
665.073920,0.101915
665.385820,0.098822
665.697680,0.103140
666.009500,0.102428
666.321280,0.102717
666.633020,0.102726
666.944720,0.101112
667.256380,0.100269
667.568000,0.101902
667.879580,0.100680
668.191120,0.099931
668.502620,0.101678
668.814080,0.103860
669.125500,0.098187
669.436880,0.103389
669.748220,0.101073
670.059520,0.101190
670.370780,0.102296
670.682000,0.100177
670.993180,0.101128
671.304320,0.104782
671.615420,0.101918
671.926480,0.099361
672.237500,0.094319
672.548480,0.102910
672.859420,0.101501
673.170320,0.098658
673.481180,0.102100
673.792000,0.098089
674.102780,0.095512
674.413520,0.104265
674.724220,0.100181
675.034880,0.100477
675.345500,0.100292
675.656080,0.104900
675.966620,0.100764
676.277120,0.104357
676.587580,0.099411
676.898000,0.100411
677.208380,0.100185
677.518720,0.096645
677.829020,0.101996
678.139280,0.102298
678.449500,0.101374
678.759680,0.099288
679.069820,0.100743
679.379920,0.099585
679.689980,0.099517
680.000000,0.100561
680.309980,0.100965
680.619920,0.098069
680.929820,0.100037
681.239680,0.100074
681.549500,0.103333
681.859280,0.095967
682.169020,0.100709
682.478720,0.105460
682.788380,0.099299
683.098000,0.100224
683.407580,0.101313
683.717120,0.099099
684.026620,0.100151
684.336080,0.101933
684.645500,0.095398
684.954880,0.098980
685.264220,0.103813
685.573520,0.102398
685.882780,0.100115
686.192000,0.103085
686.501180,0.097616
686.810320,0.100307
687.119420,0.099202
687.428480,0.103304
687.737500,0.099770
688.046480,0.099310
688.355420,0.103734
688.664320,0.098317
688.973180,0.098392
689.282000,0.097608
689.590780,0.097776
689.899520,0.095708
690.208220,0.103593
690.516880,0.101565
690.825500,0.102642
691.134080,0.100228
691.442620,0.099466
691.751120,0.100872
692.059580,0.099350
692.368000,0.099205
692.676380,0.098473
692.984720,0.096565
693.293020,0.099164
693.601280,0.098817
693.909500,0.096103
694.217680,0.097867
694.525820,0.105103
694.833920,0.093476
695.141980,0.099884
695.450000,0.102290
695.757980,0.101222
696.065920,0.098252
696.373820,0.098537
696.681680,0.098964
696.989500,0.104979
697.297280,0.100350
697.605020,0.102381
697.912720,0.102229
698.220380,0.096025
698.528000,0.098497
698.835580,0.096405
699.143120,0.099766
699.450620,0.100239
699.758080,0.095686
700.065500,0.100559
700.372880,0.101200
700.680220,0.099322
700.987520,0.098810
701.294780,0.100568
701.602000,0.099842
701.909180,0.100954
702.216320,0.095815
702.523420,0.097474
702.830480,0.097822
703.137500,0.100156
703.444480,0.100197
703.751420,0.101775
704.058320,0.097349
704.365180,0.094243
704.672000,0.098614
704.978780,0.099493
705.285520,0.093897
705.592220,0.096863
705.898880,0.100079
706.205500,0.101721
706.512080,0.102686
706.818620,0.098684
707.125120,0.102308
707.431580,0.100430
707.738000,0.103125
708.044380,0.097260
708.350720,0.099733
708.657020,0.095741
708.963280,0.098991
709.269500,0.099413
709.575680,0.097446
709.881820,0.097484
710.187920,0.099222
710.493980,0.098138
710.800000,0.095728
711.105980,0.095633
711.411920,0.099724
711.717820,0.100975
712.023680,0.098717
712.329500,0.098975
712.635280,0.101938
712.941020,0.098183
713.246720,0.098814
713.552380,0.098116
713.858000,0.100118
714.163580,0.095501
714.469120,0.097304
714.774620,0.096723
715.080080,0.100510
715.385500,0.098721
715.690880,0.099408
715.996220,0.095483
716.301520,0.096838
716.606780,0.095519
716.912000,0.100565
717.217180,0.097366
717.522320,0.094632
717.827420,0.094386
718.132480,0.093135
718.437500,0.097432
718.742480,0.098387
719.047420,0.094660
719.352320,0.099211
719.657180,0.101390
719.962000,0.098015
720.266780,0.095139
720.571520,0.097349
720.876220,0.097791
721.180880,0.093645
721.485500,0.100293
721.790080,0.095966
722.094620,0.100343
722.399120,0.099095
722.703580,0.094299
723.008000,0.100043
723.312380,0.098579
723.616720,0.097323
723.921020,0.096146
724.225280,0.092932
724.529500,0.098949
724.833680,0.100089
725.137820,0.096476
725.441920,0.098083
725.745980,0.094855
726.050000,0.097880
726.353980,0.095539
726.657920,0.094017
726.961820,0.097260
727.265680,0.099861
727.569500,0.097806
727.873280,0.101617
728.177020,0.103178
728.480720,0.103704
728.784380,0.100517
729.088000,0.097504
729.391580,0.096637
729.695120,0.098848
729.998620,0.095602
730.302080,0.096588
730.605500,0.091218
730.908880,0.097011
731.212220,0.097453
731.515520,0.097513
731.818780,0.098544
732.122000,0.094980
732.425180,0.095614
732.728320,0.095687
733.031420,0.095739
733.334480,0.097449
733.637500,0.097278
733.940480,0.096213
734.243420,0.099388
734.546320,0.098029
734.849180,0.100723
735.152000,0.092842
735.454780,0.095558
735.757520,0.093256
736.060220,0.094260
736.362880,0.098739
736.665500,0.094517
736.968080,0.098872
737.270620,0.097986
737.573120,0.095524
737.875580,0.101704
738.178000,0.097441
738.480380,0.092432
738.782720,0.094329
739.085020,0.089207
739.387280,0.093126
739.689500,0.093998
739.991680,0.098821
740.293820,0.097844
740.595920,0.100167
740.897980,0.098814
741.200000,0.100953
741.501980,0.098567
741.803920,0.098536
742.105820,0.095883
742.407680,0.095515
742.709500,0.092614
743.011280,0.094959
743.313020,0.100870
743.614720,0.091701
743.916380,0.090116
744.218000,0.100835
744.519580,0.096618
744.821120,0.095808
745.122620,0.097064
745.424080,0.091947
745.725500,0.093543
746.026880,0.099754
746.328220,0.096794
746.629520,0.095123
746.930780,0.097426
747.232000,0.099939
747.533180,0.097010
747.834320,0.099817
748.135420,0.093847
748.436480,0.100437
748.737500,0.095120
749.038480,0.097740
749.339420,0.099564
749.640320,0.094280
749.941180,0.096190
750.242000,0.089824
750.542780,0.092432
750.843520,0.099936
751.144220,0.098077
751.444880,0.101458
751.745500,0.091558
752.046080,0.096857
752.346620,0.090851
752.647120,0.093403
752.947580,0.100259
753.248000,0.092843
753.548380,0.093689
753.848720,0.094012
754.149020,0.089620
754.449280,0.097833
754.749500,0.095554
755.049680,0.091333
755.349820,0.094063
755.649920,0.096497
755.949980,0.099536
756.250000,0.092045
756.549980,0.089109
756.849920,0.098572
757.149820,0.093147
757.449680,0.097030
757.749500,0.097478
758.049280,0.099659
758.349020,0.100139
758.648720,0.097308
758.948380,0.094158
759.248000,0.096361
759.547580,0.094149
759.847120,0.091661
760.146620,0.096076
760.446080,0.096774
760.745500,0.092308
761.044880,0.091619
761.344220,0.092659
761.643520,0.096751
761.942780,0.099370
762.242000,0.096181
762.541180,0.097887
762.840320,0.096208
763.139420,0.093530
763.438480,0.089542
763.737500,0.098553
764.036480,0.096436
764.335420,0.093860
764.634320,0.093555
764.933180,0.097945
765.232000,0.097155
765.530780,0.094737
765.829520,0.097902
766.128220,0.096729
766.426880,0.093106
766.725500,0.098012
767.024080,0.093964
767.322620,0.094053
767.621120,0.096206
767.919580,0.088737
768.218000,0.093023
768.516380,0.095335
768.814720,0.089163
769.113020,0.093728
769.411280,0.098066
769.709500,0.090663
770.007680,0.086571
770.305820,0.092630
770.603920,0.088949
770.901980,0.096311
771.200000,0.091712
771.497980,0.093834
771.795920,0.086288
772.093820,0.093583
772.391680,0.095583
772.689500,0.091892
772.987280,0.089562
773.285020,0.094327
773.582720,0.091216
773.880380,0.097461
774.178000,0.094751
774.475580,0.098459
774.773120,0.095047
775.070620,0.096687
775.368080,0.097528
775.665500,0.092008
775.962880,0.093396
776.260220,0.094886
776.557520,0.094730
776.854780,0.093982
777.152000,0.088859
777.449180,0.091032
777.746320,0.092070
778.043420,0.098226
778.340480,0.090663
778.637500,0.088573
778.934480,0.088769
779.231420,0.087517
779.528320,0.093520
779.825180,0.094862
780.122000,0.091633
780.418780,0.097127
780.715520,0.092555
781.012220,0.099315
781.308880,0.093982
781.605500,0.092466
781.902080,0.093087
782.198620,0.089542
782.495120,0.091221
782.791580,0.093535
783.088000,0.093168
783.384380,0.094911
783.680720,0.095075
783.977020,0.092223
784.273280,0.093706
784.569500,0.092942
784.865680,0.097357
785.161820,0.096528
785.457920,0.091476
785.753980,0.095604
786.050000,0.090470
786.345980,0.097222
786.641920,0.095073
786.937820,0.096154
787.233680,0.091858
787.529500,0.095007
787.825280,0.095609
788.121020,0.089943
788.416720,0.092449
788.712380,0.093089
789.008000,0.092776
789.303580,0.090459
789.599120,0.090182
789.894620,0.089531
790.190080,0.087745
790.485500,0.091433
790.780880,0.093907
791.076220,0.093795
791.371520,0.091503
791.666780,0.098909
791.962000,0.094783
792.257180,0.090044
792.552320,0.101523
792.847420,0.095342
793.142480,0.100366
793.437500,0.093343
793.732480,0.095830
794.027420,0.089021
794.322320,0.093214
794.617180,0.092868
794.912000,0.086924
795.206780,0.092468
795.501520,0.093536
795.796220,0.091852
796.090880,0.091937
796.385500,0.089205
796.680080,0.090501
796.974620,0.093563
797.269120,0.089326
797.563580,0.095420
797.858000,0.100228
798.152380,0.091261
798.446720,0.094615
798.741020,0.087827
799.035280,0.094720
799.329500,0.092379
799.623680,0.094574
