399.985280,0.148649
400.329500,0.094595
400.673680,0.139241
401.017820,0.117647
401.361920,0.090909
401.705980,0.085366
402.050000,0.064935
402.393980,0.129412
402.737920,0.146067
403.081820,0.103093
403.425680,0.139535
403.769500,0.083333
404.113280,0.114943
404.457020,0.157303
404.800720,0.043478
405.144380,0.151515
405.488000,0.086022
405.831580,0.072165
406.175120,0.085106
406.518620,0.130000
406.862080,0.134021
407.205500,0.125000
407.548880,0.122449
407.892220,0.156863
408.235520,0.138298
408.578780,0.180952
408.922000,0.125000
409.265180,0.121212
409.608320,0.101010
409.951420,0.134021
410.294480,0.166667
410.637500,0.108696
410.980480,0.147059
411.323420,0.112245
411.666320,0.155963
412.009180,0.145455
412.352000,0.089109
412.694780,0.128440
413.037520,0.119266
413.380220,0.135135
413.722880,0.142857
414.065500,0.162162
414.408080,0.106195
414.750620,0.115044
415.093120,0.074380
415.435580,0.100840
415.778000,0.136364
416.120380,0.092437
416.462720,0.087302
416.805020,0.120301
417.147280,0.134328
417.489500,0.114286
417.831680,0.116438
418.173820,0.085106
418.515920,0.167832
418.857980,0.107595
419.200000,0.128205
419.541980,0.100592
419.883920,0.089888
420.225820,0.109827
420.567680,0.117318
420.909500,0.092896
421.251280,0.140625
421.593020,0.112245
421.934720,0.121212
422.276380,0.112821
422.618000,0.122549
422.959580,0.098039
423.301120,0.109589
423.642620,0.091304
423.984080,0.079070
424.325500,0.107623
424.666880,0.116379
425.008220,0.084034
425.349520,0.093220
425.690780,0.115385
426.032000,0.109804
426.373180,0.107884
426.714320,0.128906
427.055420,0.119691
427.396480,0.093633
427.737500,0.083004
428.078480,0.114625
428.419420,0.124498
428.760320,0.103448
429.101180,0.122047
429.442000,0.111111
429.782780,0.123077
430.123520,0.121569
430.464220,0.088561
430.804880,0.145594
431.145500,0.090909
431.486080,0.108614
431.826620,0.089147
432.167120,0.117647
432.507580,0.108696
432.848000,0.140288
433.188380,0.133574
433.528720,0.101887
433.869020,0.128571
434.209280,0.112281
434.549500,0.125436
434.889680,0.117845
435.229820,0.112628
435.569920,0.100346
435.909980,0.106796
436.250000,0.138983
436.589980,0.080495
436.929920,0.126984
437.269820,0.128527
437.609680,0.112426
437.949500,0.108434
438.289280,0.099150
438.629020,0.127907
438.968720,0.113372
439.308380,0.100271
439.648000,0.109589
439.987580,0.116402
440.327120,0.104000
440.666620,0.114286
441.006080,0.112532
441.345500,0.113022
441.684880,0.114833
442.024220,0.104218
442.363520,0.109524
442.702780,0.109091
443.042000,0.105727
443.381180,0.120690
443.720320,0.125270
444.059420,0.111345
444.398480,0.102510
444.737500,0.108607
445.076480,0.105159
445.415420,0.117764
445.754320,0.108108
446.093180,0.115596
446.432000,0.124060
446.770780,0.113852
447.109520,0.115809
447.448220,0.123435
447.786880,0.125224
448.125500,0.115517
448.464080,0.107143
448.802620,0.113475
449.141120,0.108997
449.479580,0.110140
449.818000,0.115318
450.156380,0.120401
450.494720,0.114050
450.833020,0.120629
451.171280,0.111301
451.509500,0.118467
451.847680,0.106239
452.185820,0.111876
452.523920,0.127148
452.861980,0.101180
453.200000,0.112957
453.537980,0.109244
453.875920,0.112605
454.213820,0.099315
454.551680,0.109272
454.889500,0.107926
455.227280,0.103203
455.565020,0.115578
455.902720,0.118136
456.240380,0.094842
456.578000,0.114983
456.915580,0.101900
457.253120,0.111842
457.590620,0.118227
457.928080,0.114478
458.265500,0.114865
458.602880,0.110390
458.940220,0.118443
459.277520,0.116800
459.614780,0.114566
459.952000,0.107143
460.289180,0.113924
460.626320,0.099213
460.963420,0.111470
461.300480,0.116208
461.637500,0.104777
461.974480,0.119266
462.311420,0.101341
462.648320,0.114202
462.985180,0.096126
463.322000,0.110119
463.658780,0.099448
463.995520,0.111417
464.332220,0.099723
464.668880,0.114247
465.005500,0.113941
465.342080,0.111396
465.678620,0.110701
466.015120,0.116429
466.351580,0.109987
466.688000,0.109622
467.024380,0.104496
467.360720,0.109091
467.697020,0.111617
468.033280,0.123333
468.369500,0.120309
468.705680,0.112740
469.041820,0.104167
469.377920,0.105206
469.713980,0.107106
470.050000,0.108213
470.385980,0.100783
470.721920,0.105779
471.057820,0.106238
471.393680,0.106642
471.729500,0.099166
472.065280,0.106440
472.401020,0.105496
472.736720,0.113438
473.072380,0.112208
473.408000,0.102698
473.743580,0.100346
474.079120,0.113695
474.414620,0.103478
474.750080,0.107404
475.085500,0.111842
475.420880,0.100749
475.756220,0.113655
476.091520,0.106564
476.426780,0.103560
476.762000,0.098954
477.097180,0.114400
477.432320,0.104200
477.767420,0.107843
478.102480,0.107874
478.437500,0.110016
478.772480,0.102443
479.107420,0.101709
479.442320,0.103917
479.777180,0.106603
480.112000,0.105547
480.446780,0.105222
480.781520,0.102254
481.116220,0.100243
481.450880,0.105386
481.785500,0.109177
482.120080,0.108934
482.454620,0.101787
482.789120,0.102707
483.123580,0.102804
483.458000,0.105222
483.792380,0.107029
484.126720,0.109653
484.461020,0.106167
484.795280,0.107170
485.129500,0.108340
485.463680,0.105426
485.797820,0.110420
486.131920,0.107116
486.465980,0.106564
486.800000,0.105344
487.133980,0.104230
487.467920,0.102525
487.801820,0.107551
488.135680,0.106141
488.469500,0.103631
488.803280,0.107727
489.137020,0.102564
489.470720,0.106825
489.804380,0.108389
490.138000,0.108309
490.471580,0.104643
490.805120,0.102216
491.138620,0.101635
491.472080,0.107420
491.805500,0.103905
492.138880,0.107019
492.472220,0.103114
492.805520,0.105447
493.138780,0.106134
493.472000,0.107692
493.805180,0.104366
494.138320,0.103402
494.471420,0.104818
494.804480,0.107374
495.137500,0.103979
495.470480,0.105800
495.803420,0.102645
496.136320,0.104010
496.469180,0.107428
496.802000,0.101467
497.134780,0.104912
497.467520,0.105810
497.800220,0.099646
498.132880,0.102293
498.465500,0.110660
498.798080,0.101598
499.130620,0.106682
499.463120,0.106682
499.795580,0.104510
500.128000,0.101362
500.460380,0.105490
500.792720,0.103924
501.125020,0.101944
501.457280,0.101305
501.789500,0.104339
502.121680,0.103681
502.453820,0.103519
502.785920,0.101551
503.117980,0.102061
503.450000,0.111502
503.781980,0.102143
504.113920,0.101944
504.445820,0.101604
504.777680,0.101647
505.109500,0.100000
505.441280,0.102294
505.773020,0.103805
506.104720,0.102685
506.436380,0.107903
506.768000,0.103835
507.099580,0.100686
507.431120,0.102576
507.762620,0.101974
508.094080,0.099362
508.425500,0.104108
508.756880,0.100594
509.088220,0.102116
509.419520,0.106145
509.750780,0.104967
510.082000,0.104944
510.413180,0.100875
510.744320,0.108606
511.075420,0.103116
511.406480,0.100141
511.737500,0.102778
512.068480,0.100094
512.399420,0.102347
512.730320,0.097921
513.061180,0.100381
513.392000,0.101751
513.722780,0.102786
514.053520,0.103977
514.384220,0.100381
514.714880,0.101484
515.045500,0.100575
515.376080,0.101695
515.706620,0.104238
516.037120,0.102941
516.367580,0.101528
516.698000,0.100490
517.028380,0.099305
517.358720,0.103210
517.689020,0.101879
518.019280,0.102358
518.349500,0.100355
518.679680,0.100959
519.009820,0.097166
519.339920,0.109719
519.669980,0.099950
520.000000,0.104432
520.329980,0.104199
520.659920,0.102249
520.989820,0.103199
521.319680,0.102881
521.649500,0.100257
521.979280,0.099165
522.309020,0.096473
522.638720,0.102407
522.968380,0.103413
523.298000,0.102818
523.627580,0.101397
523.957120,0.100779
524.286620,0.101615
524.616080,0.098759
524.945500,0.099742
525.274880,0.105695
525.604220,0.106108
525.933520,0.100105
526.262780,0.099341
526.592000,0.106038
526.921180,0.103606
527.250320,0.097412
527.579420,0.102577
527.908480,0.102905
528.237500,0.103277
528.566480,0.104291
528.895420,0.105471
529.224320,0.102526
529.553180,0.104578
529.882000,0.102676
530.210780,0.098456
530.539520,0.098274
530.868220,0.099090
531.196880,0.099857
531.525500,0.105569
531.854080,0.101313
532.182620,0.101822
532.511120,0.098376
532.839580,0.099819
533.168000,0.098906
533.496380,0.101370
533.824720,0.100493
534.153020,0.103879
534.481280,0.103965
534.809500,0.104661
535.137680,0.102431
535.465820,0.104811
535.793920,0.101523
536.121980,0.100294
536.450000,0.104017
536.777980,0.103058
537.105920,0.100457
537.433820,0.101064
537.761680,0.102857
538.089500,0.100769
538.417280,0.101074
538.745020,0.104992
539.072720,0.097228
539.400380,0.104895
539.728000,0.099044
540.055580,0.100000
540.383120,0.099777
540.710620,0.101935
541.038080,0.102545
541.365500,0.101838
541.692880,0.101017
542.020220,0.100396
542.347520,0.101579
542.674780,0.098800
543.002000,0.099370
543.329180,0.104875
543.656320,0.109001
543.983420,0.097778
544.310480,0.097520
544.637500,0.102354
544.964480,0.103297
545.291420,0.102360
545.618320,0.099270
545.945180,0.100198
546.272000,0.098296
546.598780,0.098328
546.925520,0.100231
547.252220,0.094421
547.578880,0.103617
547.905500,0.097059
548.232080,0.098765
548.558620,0.099252
548.885120,0.096827
549.211580,0.099646
549.538000,0.099222
549.864380,0.098392
550.190720,0.100097
550.517020,0.097784
550.843280,0.100000
551.169500,0.099237
551.495680,0.103482
551.821820,0.100914
552.147920,0.099870
552.473980,0.096148
552.800000,0.098430
553.125980,0.102489
553.451920,0.101194
553.777820,0.100933
554.103680,0.100438
554.429500,0.096418
554.755280,0.101469
555.081020,0.098596
555.406720,0.098544
555.732380,0.097933
556.058000,0.097420
556.383580,0.096885
556.709120,0.101999
557.034620,0.098174
557.360080,0.096028
557.685500,0.102006
558.010880,0.094281
558.336220,0.097364
558.661520,0.100674
558.986780,0.100283
559.312000,0.102564
559.637180,0.097666
559.962320,0.099324
560.287420,0.096968
560.612480,0.099749
560.937500,0.101322
561.262480,0.097507
561.587420,0.101560
561.912320,0.102432
562.237180,0.099556
562.562000,0.096521
562.886780,0.101821
563.211520,0.099851
563.536220,0.099814
563.860880,0.096945
564.185500,0.096060
564.510080,0.103461
564.834620,0.098623
565.159120,0.097744
565.483580,0.094261
565.808000,0.092698
566.132380,0.099963
566.456720,0.101285
566.781020,0.099400
567.105280,0.096786
567.429500,0.102428
567.753680,0.097430
568.077820,0.098183
568.401920,0.101604
568.725980,0.098672
569.050000,0.101141
569.373980,0.097069
569.697920,0.098218
570.021820,0.096629
570.345680,0.096824
570.669500,0.099962
570.993280,0.096346
571.317020,0.096821
571.640720,0.096702
571.964380,0.097996
572.288000,0.102374
572.611580,0.100337
572.935120,0.097643
573.258620,0.098355
573.582080,0.099851
573.905500,0.094937
574.228880,0.100965
574.552220,0.097472
574.875520,0.097915
575.198780,0.099024
575.522000,0.100440
575.845180,0.095272
576.168320,0.097018
576.491420,0.096657
576.814480,0.096203
577.137500,0.099567
577.460480,0.098949
577.783420,0.098249
578.106320,0.099359
578.429180,0.100035
578.752000,0.097256
579.074780,0.103169
579.397520,0.097805
579.720220,0.097490
580.042880,0.099108
580.365500,0.098279
580.688080,0.099050
581.010620,0.100236
581.333120,0.099532
581.655580,0.101898
581.978000,0.093781
582.300380,0.100617
582.622720,0.104153
582.945020,0.101105
583.267280,0.098665
583.589500,0.099197
583.911680,0.098762
584.233820,0.097891
584.555920,0.102112
584.877980,0.099246
585.200000,0.098220
585.521980,0.096386
585.843920,0.098841
586.165820,0.095673
586.487680,0.097502
586.809500,0.095110
587.131280,0.096421
587.453020,0.096429
587.774720,0.095801
588.096380,0.097433
588.418000,0.100966
588.739580,0.100604
589.061120,0.100633
589.382620,0.099427
589.704080,0.098177
590.025500,0.099600
590.346880,0.098370
590.668220,0.099692
590.989520,0.093733
591.310780,0.096382
591.632000,0.100273
591.953180,0.096596
592.274320,0.094185
592.595420,0.099946
592.916480,0.099158
593.237500,0.099165
593.558480,0.097928
593.879420,0.096304
594.200320,0.099384
594.521180,0.099867
594.842000,0.098334
595.162780,0.095620
595.483520,0.097315
595.804220,0.096670
596.124880,0.099654
596.445500,0.097459
596.766080,0.098414
597.086620,0.099257
597.407120,0.096630
597.727580,0.097322
598.048000,0.096800
598.368380,0.095739
598.688720,0.096461
599.009020,0.095807
599.329280,0.096062
599.649500,0.096144
599.969680,0.098024
600.289820,0.099893
600.609920,0.094309
600.929980,0.096205
601.250000,0.093243
601.569980,0.095328
601.889920,0.098102
602.209820,0.094156
602.529680,0.099698
602.849500,0.096836
603.169280,0.097548
603.489020,0.095765
603.808720,0.097093
604.128380,0.099062
604.448000,0.098895
604.767580,0.095531
605.087120,0.094737
605.406620,0.095998
605.726080,0.099230
606.045500,0.096963
606.364880,0.096399
606.684220,0.096516
607.003520,0.096904
607.322780,0.097499
607.642000,0.097358
607.961180,0.094247
608.280320,0.095418
608.599420,0.096466
608.918480,0.096481
609.237500,0.095657
609.556480,0.096774
609.875420,0.095983
610.194320,0.093003
610.513180,0.093815
610.832000,0.094104
611.150780,0.095825
611.469520,0.095928
611.788220,0.096131
612.106880,0.097105
612.425500,0.094397
612.744080,0.093875
613.062620,0.096636
613.381120,0.093845
613.699580,0.098099
614.018000,0.095823
614.336380,0.096854
614.654720,0.100155
614.973020,0.096884
615.291280,0.100403
615.609500,0.097940
615.927680,0.097960
616.245820,0.095547
616.563920,0.098539
616.881980,0.096040
617.200000,0.093935
617.517980,0.095208
617.835920,0.092575
618.153820,0.096052
618.471680,0.097054
618.789500,0.094399
619.107280,0.097966
619.425020,0.096416
619.742720,0.095417
620.060380,0.094641
620.378000,0.098804
620.695580,0.095785
621.013120,0.097008
621.330620,0.098525
621.648080,0.095899
621.965500,0.096926
622.282880,0.093317
622.600220,0.096652
622.917520,0.096093
623.234780,0.096753
623.552000,0.093889
623.869180,0.098645
624.186320,0.099331
624.503420,0.095298
624.820480,0.096450
625.137500,0.097253
625.454480,0.096905
625.771420,0.095839
626.088320,0.094893
626.405180,0.094275
626.722000,0.096612
627.038780,0.096178
627.355520,0.098437
627.672220,0.096423
627.988880,0.093002
628.305500,0.096915
628.622080,0.096964
628.938620,0.094801
629.255120,0.096453
629.571580,0.096843
629.888000,0.095121
630.204380,0.090519
630.520720,0.097502
630.837020,0.095899
631.153280,0.090827
631.469500,0.097332
631.785680,0.092224
632.101820,0.097105
632.417920,0.098063
632.733980,0.092437
633.050000,0.096119
633.365980,0.095436
633.681920,0.097255
633.997820,0.093843
634.313680,0.095842
634.629500,0.093483
634.945280,0.092375
635.261020,0.093337
635.576720,0.093658
635.892380,0.093523
636.208000,0.097618
636.523580,0.094417
636.839120,0.098147
637.154620,0.098551
637.470080,0.095552
637.785500,0.095252
638.100880,0.098755
638.416220,0.095772
638.731520,0.094269
639.046780,0.095543
639.362000,0.094610
639.677180,0.092519
639.992320,0.094728
640.307420,0.093847
640.622480,0.093251
640.937500,0.093204
641.252480,0.096621
641.567420,0.093777
641.882320,0.095768
642.197180,0.098259
642.512000,0.093199
642.826780,0.093204
643.141520,0.093915
643.456220,0.092418
643.770880,0.093422
644.085500,0.095305
644.400080,0.095506
644.714620,0.093924
645.029120,0.093784
645.343580,0.094350
645.658000,0.093533
645.972380,0.095643
646.286720,0.095939
646.601020,0.098533
646.915280,0.094872
647.229500,0.093956
647.543680,0.094173
647.857820,0.092761
648.171920,0.094411
648.485980,0.094820
648.800000,0.094241
649.113980,0.092572
649.427920,0.094868
649.741820,0.093432
650.055680,0.094624
650.369500,0.093330
650.683280,0.094340
650.997020,0.092409
651.310720,0.095762
651.624380,0.094780
651.938000,0.098615
652.251580,0.094907
652.565120,0.095305
652.878620,0.094595
653.192080,0.094944
653.505500,0.092006
653.818880,0.093261
654.132220,0.093136
654.445520,0.094441
654.758780,0.093201
655.072000,0.095415
655.385180,0.091298
655.698320,0.092884
656.011420,0.094583
656.324480,0.093559
656.637500,0.094148
656.950480,0.092484
657.263420,0.093999
657.576320,0.092796
657.889180,0.094957
658.202000,0.093297
658.514780,0.093778
658.827520,0.091837
659.140220,0.092598
659.452880,0.090305
659.765500,0.094220
660.078080,0.093590
660.390620,0.090742
660.703120,0.091353
661.015580,0.092331
661.328000,0.093514
661.640380,0.095371
661.952720,0.094675
662.265020,0.094833
662.577280,0.092875
662.889500,0.092400
663.201680,0.091576
663.513820,0.091991
663.825920,0.090618
664.137980,0.096315
664.450000,0.090473
664.761980,0.092962
665.073920,0.091853
665.385820,0.095877
665.697680,0.090248
666.009500,0.095444
666.321280,0.096753
666.633020,0.094747
666.944720,0.092012
667.256380,0.091521
667.568000,0.092391
667.879580,0.091156
668.191120,0.090659
668.502620,0.092092
668.814080,0.089474
669.125500,0.094766
669.436880,0.089557
669.748220,0.094150
670.059520,0.091737
670.370780,0.092554
670.682000,0.092743
670.993180,0.093728
671.304320,0.093530
671.615420,0.090199
671.926480,0.092264
672.237500,0.090032
672.548480,0.093329
672.859420,0.091494
673.170320,0.093580
673.481180,0.091962
673.792000,0.090876
674.102780,0.091562
674.413520,0.090777
674.724220,0.092559
675.034880,0.094976
675.345500,0.088257
675.656080,0.094737
675.966620,0.091306
676.277120,0.091908
676.587580,0.090943
676.898000,0.090705
677.208380,0.089464
677.518720,0.090445
677.829020,0.091648
678.139280,0.092661
678.449500,0.091348
678.759680,0.092544
679.069820,0.087732
679.379920,0.093927
679.689980,0.090977
680.000000,0.090093
680.309980,0.092056
680.619920,0.089739
680.929820,0.089959
681.239680,0.090473
681.549500,0.090370
681.859280,0.089246
682.169020,0.091757
682.478720,0.093867
682.788380,0.091178
683.098000,0.092371
683.407580,0.093058
683.717120,0.090090
684.026620,0.089608
684.336080,0.087912
684.645500,0.087168
684.954880,0.091424
685.264220,0.093243
685.573520,0.091359
685.882780,0.095129
686.192000,0.093679
686.501180,0.091184
686.810320,0.092237
687.119420,0.087419
687.428480,0.090391
687.737500,0.090944
688.046480,0.088574
688.355420,0.091664
688.664320,0.092961
688.973180,0.093032
689.282000,0.089892
689.590780,0.093175
689.899520,0.090011
690.208220,0.091743
690.516880,0.091638
690.825500,0.087170
691.134080,0.089977
691.442620,0.091082
691.751120,0.089496
692.059580,0.092854
692.368000,0.093904
692.676380,0.095420
692.984720,0.093130
693.293020,0.091945
693.601280,0.090042
693.909500,0.089292
694.217680,0.092536
694.525820,0.093298
694.833920,0.091568
695.141980,0.092943
695.450000,0.092366
695.757980,0.092055
696.065920,0.092039
696.373820,0.092379
696.681680,0.090526
696.989500,0.091856
697.297280,0.092182
697.605020,0.091667
697.912720,0.092237
698.220380,0.090516
698.528000,0.092959
698.835580,0.088898
699.143120,0.089634
699.450620,0.092283
699.758080,0.090980
700.065500,0.092179
700.372880,0.090400
700.680220,0.088951
700.987520,0.095238
701.294780,0.094485
701.602000,0.086371
701.909180,0.091812
702.216320,0.089167
702.523420,0.089976
702.830480,0.091485
703.137500,0.089244
703.444480,0.091913
703.751420,0.091519
704.058320,0.092600
704.365180,0.094637
704.672000,0.095050
704.978780,0.090519
705.285520,0.086854
705.592220,0.092549
705.898880,0.089046
706.205500,0.088419
706.512080,0.090442
706.818620,0.090557
707.125120,0.093077
707.431580,0.093005
707.738000,0.094141
708.044380,0.088769
708.350720,0.092854
708.657020,0.087925
708.963280,0.091615
709.269500,0.091977
709.575680,0.093910
709.881820,0.089623
710.187920,0.087549
710.493980,0.089216
710.800000,0.091915
711.105980,0.088479
711.411920,0.090264
711.717820,0.088889
712.023680,0.089390
712.329500,0.095426
712.635280,0.094186
712.941020,0.090066
713.246720,0.090909
713.552380,0.088305
713.858000,0.091052
714.163580,0.089582
714.469120,0.089097
714.774620,0.088827
715.080080,0.087554
715.385500,0.091127
715.690880,0.088757
715.996220,0.090729
716.301520,0.088142
716.606780,0.088443
716.912000,0.091680
717.217180,0.090583
717.522320,0.089463
717.827420,0.090317
718.132480,0.088719
718.437500,0.091317
718.742480,0.088710
719.047420,0.089806
719.352320,0.092985
719.657180,0.092805
719.962000,0.087262
720.266780,0.091400
720.571520,0.086578
720.876220,0.091653
721.180880,0.090301
721.485500,0.088174
721.790080,0.088747
722.094620,0.091767
722.399120,0.092202
722.703580,0.086584
723.008000,0.095731
723.312380,0.091692
723.616720,0.089248
723.921020,0.091382
724.225280,0.089442
724.529500,0.087128
724.833680,0.092972
725.137820,0.088106
725.441920,0.087829
725.745980,0.092170
726.050000,0.092467
726.353980,0.088328
726.657920,0.087269
726.961820,0.091781
727.265680,0.089690
727.569500,0.092779
727.873280,0.089145
728.177020,0.089820
728.480720,0.086574
728.784380,0.093471
729.088000,0.087141
729.391580,0.086215
729.695120,0.089731
729.998620,0.086520
730.302080,0.093224
730.605500,0.086851
730.908880,0.088682
731.212220,0.087169
731.515520,0.089225
731.818780,0.088835
732.122000,0.091535
732.425180,0.086249
732.728320,0.086267
733.031420,0.091228
733.334480,0.086735
733.637500,0.085181
733.940480,0.088025
734.243420,0.088685
734.546320,0.087137
734.849180,0.089876
735.152000,0.088174
735.454780,0.087810
735.757520,0.086407
736.060220,0.091101
736.362880,0.089286
736.665500,0.085117
736.968080,0.090811
737.270620,0.091998
737.573120,0.088974
737.875580,0.091259
738.178000,0.089276
738.480380,0.092973
738.782720,0.088332
739.085020,0.089207
739.387280,0.088137
739.689500,0.088335
739.991680,0.091522
740.293820,0.087341
740.595920,0.087924
740.897980,0.086392
741.200000,0.091419
741.501980,0.092264
741.803920,0.086712
742.105820,0.087422
742.407680,0.089109
742.709500,0.090909
743.011280,0.087925
743.313020,0.085797
743.614720,0.088218
743.916380,0.084884
744.218000,0.094272
744.519580,0.087560
744.821120,0.086228
745.122620,0.088676
745.424080,0.088341
745.725500,0.088715
746.026880,0.086207
746.328220,0.087546
746.629520,0.089103
746.930780,0.093137
747.232000,0.084611
747.533180,0.090299
747.834320,0.087036
748.135420,0.088254
748.436480,0.089832
748.737500,0.089561
749.038480,0.089798
749.339420,0.090230
749.640320,0.091138
749.941180,0.093067
750.242000,0.087940
750.542780,0.089950
750.843520,0.092249
751.144220,0.089103
751.444880,0.090679
751.745500,0.085714
752.046080,0.085311
752.346620,0.083119
752.647120,0.086218
752.947580,0.089909
753.248000,0.087041
753.548380,0.087183
753.848720,0.091436
754.149020,0.085106
754.449280,0.089954
754.749500,0.087591
755.049680,0.087333
755.349820,0.090060
755.649920,0.086583
755.949980,0.083610
756.250000,0.090072
756.549980,0.075908
756.849920,0.084976
757.149820,0.085163
757.449680,0.089769
757.749500,0.085208
758.049280,0.087372
758.349020,0.083449
758.648720,0.090407
758.948380,0.084536
759.248000,0.091644
759.547580,0.086079
759.847120,0.088904
760.146620,0.089986
760.446080,0.087366
760.745500,0.087413
761.044880,0.090199
761.344220,0.088382
761.643520,0.086864
761.942780,0.083975
762.242000,0.084158
762.541180,0.086620
762.840320,0.092697
763.139420,0.085795
763.438480,0.084757
763.737500,0.090283
764.036480,0.088749
764.335420,0.087509
764.634320,0.085932
764.933180,0.088356
765.232000,0.088827
765.530780,0.086316
765.829520,0.090210
766.128220,0.095338
766.426880,0.090263
766.725500,0.087731
767.024080,0.089849
767.322620,0.084371
767.621120,0.085366
767.919580,0.083276
768.218000,0.087551
768.516380,0.088573
768.814720,0.085048
769.113020,0.084769
769.411280,0.093923
769.709500,0.087957
770.007680,0.083845
770.305820,0.090602
770.603920,0.085580
770.901980,0.090847
771.200000,0.088315
771.497980,0.092493
771.795920,0.085619
772.093820,0.083556
772.391680,0.084377
772.689500,0.083108
772.987280,0.090236
773.285020,0.092276
773.582720,0.089865
773.880380,0.086479
774.178000,0.085890
774.475580,0.090422
774.773120,0.085007
775.070620,0.085869
775.368080,0.092184
775.665500,0.088650
775.962880,0.090060
776.260220,0.086137
776.557520,0.092061
776.854780,0.084517
777.152000,0.086207
777.449180,0.087660
777.746320,0.082661
778.043420,0.089359
778.340480,0.087280
778.637500,0.093306
778.934480,0.085407
779.231420,0.087517
779.528320,0.084836
779.825180,0.083663
780.122000,0.083001
780.418780,0.088235
780.715520,0.087860
781.012220,0.089041
781.308880,0.089249
781.605500,0.084247
781.902080,0.084189
782.198620,0.092960
782.495120,0.087791
782.791580,0.092847
783.088000,0.090407
783.384380,0.083906
783.680720,0.086867
783.977020,0.085341
784.273280,0.086014
784.569500,0.081761
784.865680,0.083449
785.161820,0.090278
785.457920,0.081081
785.753980,0.088625
786.050000,0.086326
786.345980,0.088194
786.641920,0.090909
786.937820,0.086182
787.233680,0.082811
787.529500,0.088766
787.825280,0.091360
788.121020,0.077195
788.416720,0.086097
788.712380,0.086742
789.008000,0.087110
789.303580,0.083392
789.599120,0.086545
789.894620,0.086643
790.190080,0.083394
790.485500,0.080634
790.780880,0.083871
791.076220,0.087302
791.371520,0.086420
791.666780,0.098182
791.962000,0.084497
792.257180,0.092240
792.552320,0.093546
792.847420,0.090247
793.142480,0.092308
793.437500,0.081766
793.732480,0.084126
794.027420,0.084570
794.322320,0.082774
794.617180,0.083210
794.912000,0.084695
795.206780,0.085757
795.501520,0.090494
795.796220,0.083704
796.090880,0.082140
796.385500,0.082459
796.680080,0.084518
796.974620,0.088323
797.269120,0.082513
797.563580,0.084733
797.858000,0.089598
798.152380,0.088167
798.446720,0.090769
798.741020,0.090139
799.035280,0.083851
799.329500,0.089299
799.623680,0.089147
