399.985280,0.121622
400.329500,0.121622
400.673680,0.113924
401.017820,0.117647
401.361920,0.136364
401.705980,0.060976
402.050000,0.090909
402.393980,0.164706
402.737920,0.101124
403.081820,0.123711
403.425680,0.174419
403.769500,0.083333
404.113280,0.091954
404.457020,0.112360
404.800720,0.032609
405.144380,0.141414
405.488000,0.118280
405.831580,0.103093
406.175120,0.148936
406.518620,0.120000
406.862080,0.103093
407.205500,0.145833
407.548880,0.112245
407.892220,0.117647
408.235520,0.138298
408.578780,0.161905
408.922000,0.048077
409.265180,0.101010
409.608320,0.080808
409.951420,0.185567
410.294480,0.186275
410.637500,0.141304
410.980480,0.107843
411.323420,0.102041
411.666320,0.155963
412.009180,0.172727
412.352000,0.079208
412.694780,0.119266
413.037520,0.137615
413.380220,0.117117
413.722880,0.142857
414.065500,0.171171
414.408080,0.132743
414.750620,0.088496
415.093120,0.074380
415.435580,0.126050
415.778000,0.181818
416.120380,0.126050
416.462720,0.087302
416.805020,0.150376
417.147280,0.119403
417.489500,0.135714
417.831680,0.116438
418.173820,0.120567
418.515920,0.139860
418.857980,0.101266
419.200000,0.108974
419.541980,0.130178
419.883920,0.112360
420.225820,0.132948
420.567680,0.139665
420.909500,0.169399
421.251280,0.156250
421.593020,0.117347
421.934720,0.131313
422.276380,0.102564
422.618000,0.117647
422.959580,0.137255
423.301120,0.114155
423.642620,0.126087
423.984080,0.116279
424.325500,0.112108
424.666880,0.142241
425.008220,0.113445
425.349520,0.114407
425.690780,0.111538
426.032000,0.082353
426.373180,0.120332
426.714320,0.117187
427.055420,0.100386
427.396480,0.119850
427.737500,0.094862
428.078480,0.094862
428.419420,0.132530
428.760320,0.103448
429.101180,0.114173
429.442000,0.126437
429.782780,0.096154
430.123520,0.109804
430.464220,0.121771
430.804880,0.137931
431.145500,0.105455
431.486080,0.127341
431.826620,0.124031
432.167120,0.102941
432.507580,0.126812
432.848000,0.129496
433.188380,0.119134
433.528720,0.124528
433.869020,0.121429
434.209280,0.105263
434.549500,0.118467
434.889680,0.131313
435.229820,0.129693
435.569920,0.114187
435.909980,0.093851
436.250000,0.125424
436.589980,0.114551
436.929920,0.126984
437.269820,0.112853
437.609680,0.127219
437.949500,0.120482
438.289280,0.127479
438.629020,0.127907
438.968720,0.136628
439.308380,0.105691
439.648000,0.106849
439.987580,0.126984
440.327120,0.125333
440.666620,0.116883
441.006080,0.109974
441.345500,0.125307
441.684880,0.107656
442.024220,0.109181
442.363520,0.121429
442.702780,0.109091
443.042000,0.112335
443.381180,0.118534
443.720320,0.116631
444.059420,0.126050
444.398480,0.106695
444.737500,0.125000
445.076480,0.125000
445.415420,0.115768
445.754320,0.114345
446.093180,0.117431
446.432000,0.122180
446.770780,0.113852
447.109520,0.121324
447.448220,0.123435
447.786880,0.116279
448.125500,0.118966
448.464080,0.112500
448.802620,0.106383
449.141120,0.117647
449.479580,0.122378
449.818000,0.129088
450.156380,0.120401
450.494720,0.114050
450.833020,0.118881
451.171280,0.104452
451.509500,0.120209
451.847680,0.119730
452.185820,0.117040
452.523920,0.111684
452.861980,0.116358
453.200000,0.114618
453.537980,0.124370
453.875920,0.129412
454.213820,0.111301
454.551680,0.110927
454.889500,0.107926
455.227280,0.108541
455.565020,0.118928
455.902720,0.119800
456.240380,0.103161
456.578000,0.116725
456.915580,0.113990
457.253120,0.105263
457.590620,0.116585
457.928080,0.114478
458.265500,0.118243
458.602880,0.121753
458.940220,0.108291
459.277520,0.113600
459.614780,0.116203
459.952000,0.114907
460.289180,0.125000
460.626320,0.118110
460.963420,0.116317
461.300480,0.113150
461.637500,0.107858
461.974480,0.111621
462.311420,0.116244
462.648320,0.112738
462.985180,0.113343
463.322000,0.119048
463.658780,0.103591
463.995520,0.097662
464.332220,0.108033
464.668880,0.118280
465.005500,0.120643
465.342080,0.110115
465.678620,0.108241
466.015120,0.108668
466.351580,0.116308
466.688000,0.113276
467.024380,0.108141
467.360720,0.113636
467.697020,0.118451
468.033280,0.115556
468.369500,0.115894
468.705680,0.124014
469.041820,0.107292
469.377920,0.109544
469.713980,0.107106
470.050000,0.115942
470.385980,0.110568
470.721920,0.108717
471.057820,0.112086
471.393680,0.113190
471.729500,0.108434
472.065280,0.111807
472.401020,0.109043
472.736720,0.112565
473.072380,0.109515
473.408000,0.111401
473.743580,0.108997
474.079120,0.119724
474.414620,0.104326
474.750080,0.106591
475.085500,0.116776
475.420880,0.109908
475.756220,0.121014
476.091520,0.109122
476.426780,0.111650
476.762000,0.111022
477.097180,0.110400
477.432320,0.112278
477.767420,0.117647
478.102480,0.111024
478.437500,0.112479
478.772480,0.104807
479.107420,0.111473
479.442320,0.111111
479.777180,0.112967
480.112000,0.106317
480.446780,0.106781
480.781520,0.116747
481.116220,0.111560
481.450880,0.106948
481.785500,0.115506
482.120080,0.112069
482.454620,0.108003
482.789120,0.108280
483.123580,0.111371
483.458000,0.113924
483.792380,0.107029
484.126720,0.108108
484.461020,0.110851
484.795280,0.111025
485.129500,0.109899
485.463680,0.107752
485.797820,0.115086
486.131920,0.111706
486.465980,0.109653
486.800000,0.116794
487.133980,0.109517
487.467920,0.111706
487.801820,0.110603
488.135680,0.109932
488.469500,0.108926
488.803280,0.108470
489.137020,0.109158
489.470720,0.103858
489.804380,0.112843
490.138000,0.111276
490.471580,0.103906
490.805120,0.103645
491.138620,0.102345
491.472080,0.111661
491.805500,0.108089
492.138880,0.111883
492.472220,0.107266
492.805520,0.108939
493.138780,0.113025
493.472000,0.108361
493.805180,0.105730
494.138320,0.108072
494.471420,0.110677
494.804480,0.108668
495.137500,0.107189
495.470480,0.114723
495.803420,0.112720
496.136320,0.113409
496.469180,0.106200
496.802000,0.100856
497.134780,0.106125
497.467520,0.113761
497.800220,0.110259
498.132880,0.112287
498.465500,0.110660
498.798080,0.105594
499.130620,0.115104
499.463120,0.115665
499.795580,0.105061
500.128000,0.108992
500.460380,0.108181
500.792720,0.106575
501.125020,0.107199
501.457280,0.108094
501.789500,0.108471
502.121680,0.106791
502.453820,0.105558
502.785920,0.105053
503.117980,0.112856
503.450000,0.109995
503.781980,0.110613
504.113920,0.105737
504.445820,0.105493
504.777680,0.104941
505.109500,0.105769
505.441280,0.107075
505.773020,0.107562
506.104720,0.105982
506.436380,0.106484
506.768000,0.107109
507.099580,0.104348
507.431120,0.108197
507.762620,0.103853
508.094080,0.105743
508.425500,0.107376
508.756880,0.106996
509.088220,0.105336
509.419520,0.100093
509.750780,0.106842
510.082000,0.107743
510.413180,0.106863
510.744320,0.104464
511.075420,0.106324
511.406480,0.106723
511.737500,0.106481
512.068480,0.107613
512.399420,0.107981
512.730320,0.103002
513.061180,0.102759
513.392000,0.104591
513.722780,0.107589
514.053520,0.106373
514.384220,0.105138
514.714880,0.105792
515.045500,0.098180
515.376080,0.103632
515.706620,0.106673
516.037120,0.104902
516.367580,0.106456
516.698000,0.104902
517.028380,0.104270
517.358720,0.106173
517.689020,0.106825
518.019280,0.108379
518.349500,0.104916
518.679680,0.102978
519.009820,0.100709
519.339920,0.115230
519.669980,0.106981
520.000000,0.100866
520.329980,0.105236
520.659920,0.101227
520.989820,0.108359
521.319680,0.107510
521.649500,0.103856
521.979280,0.104906
522.309020,0.098029
522.638720,0.102407
522.968380,0.111686
523.298000,0.105950
523.627580,0.103983
523.957120,0.104416
524.286620,0.106826
524.616080,0.107549
524.945500,0.110078
525.274880,0.105182
525.604220,0.106625
525.933520,0.105870
526.262780,0.106437
526.592000,0.103501
526.921180,0.108177
527.250320,0.105530
527.579420,0.111167
527.908480,0.105367
528.237500,0.107249
528.566480,0.102295
528.895420,0.108921
529.224320,0.107479
529.553180,0.103614
529.882000,0.105596
530.210780,0.104247
530.539520,0.104506
530.868220,0.108186
531.196880,0.104634
531.525500,0.106538
531.854080,0.100375
532.182620,0.108361
532.511120,0.104872
532.839580,0.107532
533.168000,0.106655
533.496380,0.102740
533.824720,0.107223
534.153020,0.105662
534.481280,0.104405
534.809500,0.109059
535.137680,0.107205
535.465820,0.106100
535.793920,0.104907
536.121980,0.101553
536.450000,0.106131
536.777980,0.104734
537.105920,0.107929
537.433820,0.108838
537.761680,0.105714
538.089500,0.105221
538.417280,0.100676
538.745020,0.104992
539.072720,0.099570
539.400380,0.104507
539.728000,0.106310
540.055580,0.102247
540.383120,0.104617
540.710620,0.105283
541.038080,0.104390
541.365500,0.105147
541.692880,0.105015
542.020220,0.105074
542.347520,0.104810
542.674780,0.105152
543.002000,0.105318
543.329180,0.108032
543.656320,0.103024
543.983420,0.105983
544.310480,0.104655
544.637500,0.106789
544.964480,0.106999
545.291420,0.108009
545.618320,0.104914
545.945180,0.102835
546.272000,0.100262
546.598780,0.103245
546.925520,0.102868
547.252220,0.099043
547.578880,0.104594
547.905500,0.105556
548.232080,0.103639
548.558620,0.101855
548.885120,0.104678
549.211580,0.101896
549.538000,0.106031
549.864380,0.104823
550.190720,0.104617
550.517020,0.105606
550.843280,0.104560
551.169500,0.103690
551.495680,0.102825
551.821820,0.102547
552.147920,0.098894
552.473980,0.101087
552.800000,0.100065
553.125980,0.104453
553.451920,0.107498
553.777820,0.104930
554.103680,0.102797
554.429500,0.098092
554.755280,0.101469
555.081020,0.103944
555.406720,0.101592
555.732380,0.105727
556.058000,0.105567
556.383580,0.103732
556.709120,0.102688
557.034620,0.101619
557.360080,0.103972
557.685500,0.105118
558.010880,0.102946
558.336220,0.100176
558.661520,0.103864
558.986780,0.100283
559.312000,0.100783
559.637180,0.103411
559.962320,0.106800
560.287420,0.106135
560.612480,0.098672
560.937500,0.103891
561.262480,0.101540
561.587420,0.100109
561.912320,0.104274
562.237180,0.102147
562.562000,0.101758
562.886780,0.103307
563.211520,0.101714
563.536220,0.100928
563.860880,0.100339
564.185500,0.102064
564.510080,0.104214
564.834620,0.099367
565.159120,0.101504
565.483580,0.102242
565.808000,0.097616
566.132380,0.103320
566.456720,0.106576
566.781020,0.104276
567.105280,0.099055
567.429500,0.100152
567.753680,0.103184
568.077820,0.103595
568.401920,0.105424
568.725980,0.102846
569.050000,0.102662
569.373980,0.102018
569.697920,0.100493
570.021820,0.098127
570.345680,0.103712
570.669500,0.100725
570.993280,0.103359
571.317020,0.100110
571.640720,0.101149
571.964380,0.103563
572.288000,0.104970
572.611580,0.104081
572.935120,0.104751
573.258620,0.102468
573.582080,0.100224
573.905500,0.100521
574.228880,0.099109
574.552220,0.104067
574.875520,0.103872
575.198780,0.103000
575.522000,0.103006
575.845180,0.099570
576.168320,0.100611
576.491420,0.105015
576.814480,0.100542
577.137500,0.104978
577.460480,0.102211
577.783420,0.099678
578.106320,0.101496
578.429180,0.099328
578.752000,0.101424
579.074780,0.103169
579.397520,0.099419
579.720220,0.099743
580.042880,0.099438
580.365500,0.103243
580.688080,0.101425
581.010620,0.102599
581.333120,0.100534
581.655580,0.100899
581.978000,0.103758
582.300380,0.103862
582.622720,0.102175
582.945020,0.102731
583.267280,0.100619
583.589500,0.105939
583.911680,0.104478
584.233820,0.100724
584.555920,0.106839
584.877980,0.101445
585.200000,0.100061
585.521980,0.101637
585.843920,0.102807
586.165820,0.099025
586.487680,0.099910
586.809500,0.099610
587.131280,0.103520
587.453020,0.102381
587.774720,0.104080
588.096380,0.103267
588.418000,0.104770
588.739580,0.104628
589.061120,0.101208
589.382620,0.103438
589.704080,0.102665
590.025500,0.103596
590.346880,0.102024
590.668220,0.101372
590.989520,0.100666
591.310780,0.101077
591.632000,0.104372
591.953180,0.103238
592.274320,0.101829
592.595420,0.103448
592.916480,0.098886
593.237500,0.104554
593.558480,0.101964
593.879420,0.099272
594.200320,0.101527
594.521180,0.101992
594.842000,0.105051
595.162780,0.101496
595.483520,0.099442
595.804220,0.099624
596.124880,0.101785
596.445500,0.100341
596.766080,0.104867
597.086620,0.101645
597.407120,0.099263
597.727580,0.101830
598.048000,0.102618
598.368380,0.104156
598.688720,0.100131
599.009020,0.101115
599.329280,0.100585
599.649500,0.100634
599.969680,0.102297
600.289820,0.103098
600.609920,0.099653
600.929980,0.097541
601.250000,0.101081
601.569980,0.100189
601.889920,0.101577
602.209820,0.097403
602.529680,0.101620
602.849500,0.100927
603.169280,0.101956
603.489020,0.102685
603.808720,0.099013
604.128380,0.102097
604.448000,0.099448
604.767580,0.101676
605.087120,0.097507
605.406620,0.102435
605.726080,0.100371
606.045500,0.101142
606.364880,0.099802
606.684220,0.101942
607.003520,0.100057
607.322780,0.102331
607.642000,0.100230
607.961180,0.095692
608.280320,0.099478
608.599420,0.097625
608.918480,0.099707
609.237500,0.099178
609.556480,0.100917
609.875420,0.099527
610.194320,0.100089
610.513180,0.098846
610.832000,0.100357
611.150780,0.101832
611.469520,0.101659
611.788220,0.100665
612.106880,0.100422
612.425500,0.099878
612.744080,0.101570
613.062620,0.098471
613.381120,0.096892
613.699580,0.097486
614.018000,0.100430
614.336380,0.099938
614.654720,0.099845
614.973020,0.097192
615.291280,0.098234
615.609500,0.101743
615.927680,0.102287
616.245820,0.100804
616.563920,0.099782
616.881980,0.096040
617.200000,0.096112
617.517980,0.098320
617.835920,0.097235
618.153820,0.097296
618.471680,0.100465
618.789500,0.102580
619.107280,0.100156
619.425020,0.100856
619.742720,0.098242
620.060380,0.099342
620.378000,0.099434
620.695580,0.097063
621.013120,0.098583
621.330620,0.098525
621.648080,0.098107
621.965500,0.098181
622.282880,0.093632
622.600220,0.097284
622.917520,0.099559
623.234780,0.100932
623.552000,0.100891
623.869180,0.099905
624.186320,0.099968
624.503420,0.099373
624.820480,0.100534
625.137500,0.101042
625.454480,0.096280
625.771420,0.095208
626.088320,0.098045
626.405180,0.102365
626.722000,0.100376
627.038780,0.096805
627.355520,0.100000
627.672220,0.098289
627.988880,0.098600
628.305500,0.099720
628.622080,0.096964
628.938620,0.098471
629.255120,0.102365
629.571580,0.097150
629.888000,0.098496
630.204380,0.096349
630.520720,0.099939
630.837020,0.097132
631.153280,0.101319
631.469500,0.097635
631.785680,0.100964
632.101820,0.098613
632.417920,0.098063
632.733980,0.099640
633.050000,0.097938
633.365980,0.098992
633.681920,0.100239
633.997820,0.099223
634.313680,0.098496
634.629500,0.102035
634.945280,0.101173
635.261020,0.102143
635.576720,0.100411
635.892380,0.100784
636.208000,0.099070
636.523580,0.099386
636.839120,0.095831
637.154620,0.098551
637.470080,0.098422
637.785500,0.101114
638.100880,0.098755
638.416220,0.097785
638.731520,0.099713
639.046780,0.097291
639.362000,0.099197
639.677180,0.101656
639.992320,0.098111
640.307420,0.098623
640.622480,0.093811
640.937500,0.097642
641.252480,0.100531
641.567420,0.099460
641.882320,0.093541
642.197180,0.098259
642.512000,0.098517
642.826780,0.099307
643.141520,0.098361
643.456220,0.098783
643.770880,0.094804
644.085500,0.097820
644.400080,0.096629
644.714620,0.097547
645.029120,0.098460
645.343580,0.099013
645.658000,0.095198
645.972380,0.098383
646.286720,0.097847
646.601020,0.097149
646.915280,0.100356
647.229500,0.098077
647.543680,0.096658
647.857820,0.098816
648.171920,0.097667
648.485980,0.094546
648.800000,0.096996
649.113980,0.099501
649.427920,0.100416
649.741820,0.096455
650.055680,0.097093
650.369500,0.096693
650.683280,0.096559
650.997020,0.092684
651.310720,0.097413
651.624380,0.096703
651.938000,0.096122
652.251580,0.097133
652.565120,0.096143
652.878620,0.097691
653.192080,0.094663
653.505500,0.092567
653.818880,0.099801
654.132220,0.097123
654.445520,0.094158
654.758780,0.096317
655.072000,0.096562
655.385180,0.096719
655.698320,0.096313
656.011420,0.095156
656.324480,0.098222
656.637500,0.095886
656.950480,0.098649
657.263420,0.099911
657.576320,0.094278
657.889180,0.096137
658.202000,0.095109
658.514780,0.099137
658.827520,0.096339
659.140220,0.096494
659.452880,0.094231
659.765500,0.097833
660.078080,0.095697
660.390620,0.095631
660.703120,0.097159
661.015580,0.093558
661.328000,0.096662
661.640380,0.099410
661.952720,0.098100
662.265020,0.096093
662.577280,0.098282
662.889500,0.095238
663.201680,0.098915
663.513820,0.096172
663.825920,0.097663
664.137980,0.098255
664.450000,0.090793
664.761980,0.093617
665.073920,0.098020
665.385820,0.094895
665.697680,0.093884
666.009500,0.099435
666.321280,0.098078
666.633020,0.098737
666.944720,0.097405
667.256380,0.097914
667.568000,0.095448
667.879580,0.093878
668.191120,0.095124
668.502620,0.091749
668.814080,0.097544
669.125500,0.096476
669.436880,0.094053
669.748220,0.095189
670.059520,0.097339
670.370780,0.095685
670.682000,0.094867
670.993180,0.093023
671.304320,0.094233
671.615420,0.093040
671.926480,0.094038
672.237500,0.091104
672.548480,0.092974
672.859420,0.095783
673.170320,0.096482
673.481180,0.097031
673.792000,0.091958
674.102780,0.094434
674.413520,0.095516
674.724220,0.092922
675.034880,0.098643
675.345500,0.094821
675.656080,0.098004
675.966620,0.093852
676.277120,0.094105
676.587580,0.093888
676.898000,0.093692
677.208380,0.094270
677.518720,0.095551
677.829020,0.095713
678.139280,0.098221
678.449500,0.096175
678.759680,0.097415
679.069820,0.091822
679.379920,0.094681
679.689980,0.093576
680.000000,0.094579
680.309980,0.095397
680.619920,0.097312
680.929820,0.095558
681.239680,0.096381
681.549500,0.097407
681.859280,0.092606
682.169020,0.099590
682.478720,0.096485
682.788380,0.095976
683.098000,0.096111
683.407580,0.095310
683.717120,0.094595
684.026620,0.097139
684.336080,0.095870
684.645500,0.089413
684.954880,0.092935
685.264220,0.098150
685.573520,0.097450
685.882780,0.096279
686.192000,0.095184
686.501180,0.093076
686.810320,0.095696
687.119420,0.094261
687.428480,0.094569
687.737500,0.096316
688.046480,0.094325
688.355420,0.095058
688.664320,0.096021
688.973180,0.094181
689.282000,0.093364
689.590780,0.092791
689.899520,0.093050
690.208220,0.092508
690.516880,0.098893
690.825500,0.099623
691.134080,0.092255
691.442620,0.090701
691.751120,0.095942
692.059580,0.094001
692.368000,0.094282
692.676380,0.094656
692.984720,0.089313
693.293020,0.093085
693.601280,0.093094
693.909500,0.096103
694.217680,0.094059
694.525820,0.095583
694.833920,0.094239
695.141980,0.091786
695.450000,0.091985
695.757980,0.094347
696.065920,0.093592
696.373820,0.092379
696.681680,0.091293
696.989500,0.095716
697.297280,0.092960
697.605020,0.092857
697.912720,0.095696
698.220380,0.091303
698.528000,0.094541
698.835580,0.097195
699.143120,0.091582
699.450620,0.094272
699.758080,0.095294
700.065500,0.097765
700.372880,0.092800
700.680220,0.095333
700.987520,0.092063
701.294780,0.092457
701.602000,0.092710
701.909180,0.092607
702.216320,0.095815
702.523420,0.095107
702.830480,0.096238
703.137500,0.095479
703.444480,0.098619
703.751420,0.094675
704.058320,0.091413
704.365180,0.095032
704.672000,0.097030
704.978780,0.092080
705.285520,0.094288
705.592220,0.094118
705.898880,0.093381
706.205500,0.092723
706.512080,0.098736
706.818620,0.096749
707.125120,0.091923
707.431580,0.090660
707.738000,0.092578
708.044380,0.091856
708.350720,0.094001
708.657020,0.097694
708.963280,0.096273
709.269500,0.091977
709.575680,0.095874
709.881820,0.094340
710.187920,0.090661
710.493980,0.090380
710.800000,0.091533
711.105980,0.088102
711.411920,0.092629
711.717820,0.094347
712.023680,0.092499
712.329500,0.088328
712.635280,0.093023
712.941020,0.093158
713.246720,0.094071
713.552380,0.095369
713.858000,0.094600
714.163580,0.091949
714.469120,0.094959
714.774620,0.095539
715.080080,0.093836
715.385500,0.092326
715.690880,0.090730
715.996220,0.094691
716.301520,0.093281
716.606780,0.094340
716.912000,0.094103
717.217180,0.092578
717.522320,0.089066
717.827420,0.089504
718.132480,0.093938
718.437500,0.090501
718.742480,0.092339
719.047420,0.091424
719.352320,0.092570
719.657180,0.087899
719.962000,0.090157
720.266780,0.088492
720.571520,0.092378
720.876220,0.090016
721.180880,0.087793
721.485500,0.087338
721.790080,0.091295
722.094620,0.092196
722.399120,0.094787
722.703580,0.089584
723.008000,0.094006
723.312380,0.089109
723.616720,0.093498
723.921020,0.090082
724.225280,0.087260
724.529500,0.088004
724.833680,0.092972
725.137820,0.090749
725.441920,0.086045
725.745980,0.091723
726.050000,0.088859
726.353980,0.091933
726.657920,0.089969
726.961820,0.091324
727.265680,0.093851
727.569500,0.091408
727.873280,0.088222
728.177020,0.096269
728.480720,0.092593
728.784380,0.093941
729.088000,0.094206
729.391580,0.087636
729.695120,0.089251
729.998620,0.094646
730.302080,0.092263
730.605500,0.090247
730.908880,0.091132
731.212220,0.083252
731.515520,0.089712
731.818780,0.093689
732.122000,0.089075
732.425180,0.095614
732.728320,0.091225
733.031420,0.089724
733.334480,0.088776
733.637500,0.085685
733.940480,0.091095
734.243420,0.094292
734.546320,0.091805
734.849180,0.089876
735.152000,0.089212
735.454780,0.090393
735.757520,0.091675
736.060220,0.088994
736.362880,0.091387
736.665500,0.085117
736.968080,0.090811
737.270620,0.093087
737.573120,0.093341
737.875580,0.094557
738.178000,0.091453
738.480380,0.087027
738.782720,0.087241
739.085020,0.088656
739.387280,0.091463
739.689500,0.090600
739.991680,0.086468
740.293820,0.090105
740.595920,0.092933
740.897980,0.095991
741.200000,0.090858
741.501980,0.095129
741.803920,0.090653
742.105820,0.088550
742.407680,0.093186
742.709500,0.090909
743.011280,0.086753
743.313020,0.088696
743.614720,0.087638
743.916380,0.089535
744.218000,0.094869
744.519580,0.089372
744.821120,0.094611
745.122620,0.091072
745.424080,0.083534
745.725500,0.091129
746.026880,0.091749
746.328220,0.093711
746.629520,0.089705
746.930780,0.091299
747.232000,0.089516
747.533180,0.092739
747.834320,0.091296
748.135420,0.087011
748.436480,0.098565
748.737500,0.087708
749.038480,0.090409
749.339420,0.090230
749.640320,0.090509
749.941180,0.091818
750.242000,0.089824
750.542780,0.088710
750.843520,0.092249
751.144220,0.092949
751.444880,0.088142
751.745500,0.088312
752.046080,0.091725
752.346620,0.085696
752.647120,0.092750
752.947580,0.095084
753.248000,0.090264
753.548380,0.089785
753.848720,0.088216
754.149020,0.090264
754.449280,0.090611
754.749500,0.090246
755.049680,0.088667
755.349820,0.090060
755.649920,0.091210
755.949980,0.092236
756.250000,0.088100
756.549980,0.088449
756.849920,0.093814
757.149820,0.090486
757.449680,0.086469
757.749500,0.092025
758.049280,0.090785
758.349020,0.086231
758.648720,0.089717
758.948380,0.089347
759.248000,0.084906
759.547580,0.088769
759.847120,0.087526
760.146620,0.091340
760.446080,0.088038
760.745500,0.093706
761.044880,0.090909
761.344220,0.085531
761.643520,0.095339
761.942780,0.090273
762.242000,0.094767
762.541180,0.085915
762.840320,0.089888
763.139420,0.087904
763.438480,0.090909
763.737500,0.086837
764.036480,0.089448
764.335420,0.092449
764.634320,0.085932
764.933180,0.093836
765.232000,0.090215
765.530780,0.087719
765.829520,0.090210
766.128220,0.093946
766.426880,0.086709
766.725500,0.093215
767.024080,0.089849
767.322620,0.086445
767.621120,0.088753
767.919580,0.086007
768.218000,0.089603
768.516380,0.093306
768.814720,0.087791
769.113020,0.089593
769.411280,0.089779
769.709500,0.092016
770.007680,0.085890
770.305820,0.095335
770.603920,0.084906
770.901980,0.092213
771.200000,0.090353
771.497980,0.091153
771.795920,0.088294
772.093820,0.086898
772.391680,0.092947
772.689500,0.088514
772.987280,0.088215
773.285020,0.091593
773.582720,0.086486
773.880380,0.093342
774.178000,0.084526
774.475580,0.089752
774.773120,0.087015
775.070620,0.091954
775.368080,0.094856
775.665500,0.088650
775.962880,0.090060
776.260220,0.084791
776.557520,0.087392
776.854780,0.091278
777.152000,0.090186
777.449180,0.088334
777.746320,0.087366
778.043420,0.091405
778.340480,0.086604
778.637500,0.088573
778.934480,0.090787
779.231420,0.088874
779.528320,0.087508
779.825180,0.090909
780.122000,0.085657
780.418780,0.092339
780.715520,0.090543
781.012220,0.093151
781.308880,0.090602
781.605500,0.085616
781.902080,0.092402
782.198620,0.090909
782.495120,0.091907
782.791580,0.088721
783.088000,0.088337
783.384380,0.092160
783.680720,0.085499
783.977020,0.090847
784.273280,0.095105
784.569500,0.083857
784.865680,0.091794
785.161820,0.089583
785.457920,0.086625
785.753980,0.087230
786.050000,0.088398
786.345980,0.090972
786.641920,0.093685
786.937820,0.092593
787.233680,0.082811
787.529500,0.087379
787.825280,0.092776
788.121020,0.090652
788.416720,0.090332
788.712380,0.086037
789.008000,0.085694
789.303580,0.090459
789.599120,0.095273
789.894620,0.088087
790.190080,0.086294
790.485500,0.086393
790.780880,0.088172
791.076220,0.089466
791.371520,0.090051
791.666780,0.089455
791.962000,0.088905
792.257180,0.087116
792.552320,0.089195
792.847420,0.097525
793.142480,0.093773
793.437500,0.085384
793.732480,0.088515
794.027420,0.089021
794.322320,0.085757
794.617180,0.087667
794.912000,0.088410
795.206780,0.089485
795.501520,0.088973
795.796220,0.089630
796.090880,0.085908
796.385500,0.086957
796.680080,0.087509
796.974620,0.091317
797.269120,0.077214
797.563580,0.090076
797.858000,0.091875
798.152380,0.087394
798.446720,0.090000
798.741020,0.087827
799.035280,0.091615
799.329500,0.085450
799.623680,0.089922
