399.985280,0.135135
400.329500,0.094595
400.673680,0.075949
401.017820,0.073529
401.361920,0.075758
401.705980,0.097561
402.050000,0.025974
402.393980,0.117647
402.737920,0.089888
403.081820,0.061856
403.425680,0.116279
403.769500,0.041667
404.113280,0.045977
404.457020,0.067416
404.800720,0.076087
405.144380,0.131313
405.488000,0.075269
405.831580,0.123711
406.175120,0.063830
406.518620,0.090000
406.862080,0.061856
407.205500,0.062500
407.548880,0.081633
407.892220,0.098039
408.235520,0.074468
408.578780,0.133333
408.922000,0.038462
409.265180,0.070707
409.608320,0.060606
409.951420,0.082474
410.294480,0.137255
410.637500,0.054348
410.980480,0.117647
411.323420,0.091837
411.666320,0.110092
412.009180,0.118182
412.352000,0.049505
412.694780,0.110092
413.037520,0.073394
413.380220,0.090090
413.722880,0.107143
414.065500,0.144144
414.408080,0.106195
414.750620,0.061947
415.093120,0.090909
415.435580,0.100840
415.778000,0.136364
416.120380,0.109244
416.462720,0.063492
416.805020,0.135338
417.147280,0.104478
417.489500,0.100000
417.831680,0.102740
418.173820,0.078014
418.515920,0.083916
418.857980,0.075949
419.200000,0.070513
419.541980,0.124260
419.883920,0.112360
420.225820,0.109827
420.567680,0.094972
420.909500,0.098361
421.251280,0.083333
421.593020,0.107143
421.934720,0.101010
422.276380,0.097436
422.618000,0.102941
422.959580,0.122549
423.301120,0.105023
423.642620,0.091304
423.984080,0.102326
424.325500,0.103139
424.666880,0.090517
425.008220,0.084034
425.349520,0.093220
425.690780,0.076923
426.032000,0.058824
426.373180,0.103734
426.714320,0.109375
427.055420,0.081081
427.396480,0.078652
427.737500,0.079051
428.078480,0.067194
428.419420,0.104418
428.760320,0.076628
429.101180,0.110236
429.442000,0.095785
429.782780,0.115385
430.123520,0.086275
430.464220,0.088561
430.804880,0.126437
431.145500,0.098182
431.486080,0.112360
431.826620,0.100775
432.167120,0.091912
432.507580,0.094203
432.848000,0.100719
433.188380,0.093863
433.528720,0.086792
433.869020,0.100000
434.209280,0.101754
434.549500,0.087108
434.889680,0.107744
435.229820,0.092150
435.569920,0.065744
435.909980,0.084142
436.250000,0.091525
436.589980,0.092879
436.929920,0.095238
437.269820,0.097179
437.609680,0.124260
437.949500,0.087349
438.289280,0.110482
438.629020,0.113372
438.968720,0.095930
439.308380,0.094851
439.648000,0.090411
439.987580,0.095238
440.327120,0.088000
440.666620,0.098701
441.006080,0.094629
441.345500,0.095823
441.684880,0.095694
442.024220,0.089330
442.363520,0.090476
442.702780,0.095455
443.042000,0.092511
443.381180,0.094828
443.720320,0.103672
444.059420,0.098739
444.398480,0.092050
444.737500,0.108607
445.076480,0.093254
445.415420,0.095808
445.754320,0.089397
446.093180,0.106422
446.432000,0.103383
446.770780,0.098672
447.109520,0.101103
447.448220,0.100179
447.786880,0.100179
448.125500,0.103448
448.464080,0.096429
448.802620,0.092199
449.141120,0.105536
449.479580,0.096154
449.818000,0.099828
450.156380,0.093645
450.494720,0.099174
450.833020,0.090909
451.171280,0.094178
451.509500,0.097561
451.847680,0.092749
452.185820,0.099828
452.523920,0.101375
452.861980,0.101180
453.200000,0.101329
453.537980,0.092437
453.875920,0.105882
454.213820,0.095890
454.551680,0.092715
454.889500,0.099494
455.227280,0.088968
455.565020,0.098827
455.902720,0.109817
456.240380,0.099834
456.578000,0.097561
456.915580,0.101900
457.253120,0.098684
457.590620,0.105090
457.928080,0.104377
458.265500,0.109797
458.602880,0.102273
458.940220,0.087986
459.277520,0.089600
459.614780,0.096563
459.952000,0.093168
460.289180,0.101266
460.626320,0.094488
460.963420,0.088853
461.300480,0.093272
461.637500,0.095532
461.974480,0.088685
462.311420,0.092399
462.648320,0.096633
462.985180,0.096126
463.322000,0.096726
463.658780,0.088398
463.995520,0.085282
464.332220,0.095568
464.668880,0.103495
465.005500,0.087131
465.342080,0.097311
465.678620,0.108241
466.015120,0.107374
466.351580,0.096081
466.688000,0.098660
467.024380,0.088700
467.360720,0.088636
467.697020,0.095672
468.033280,0.102222
468.369500,0.090508
468.705680,0.099211
469.041820,0.101042
469.377920,0.094360
469.713980,0.104016
470.050000,0.097585
470.385980,0.096869
470.721920,0.092067
471.057820,0.097466
471.393680,0.097287
471.729500,0.090825
472.065280,0.100179
472.401020,0.093972
472.736720,0.098604
473.072380,0.093357
473.408000,0.092254
473.743580,0.101211
474.079120,0.099914
474.414620,0.094996
474.750080,0.098454
475.085500,0.093750
475.420880,0.094921
475.756220,0.094031
476.091520,0.092072
476.426780,0.095469
476.762000,0.085278
477.097180,0.096800
477.432320,0.095315
477.767420,0.093954
478.102480,0.097638
478.437500,0.088670
478.772480,0.091411
479.107420,0.097640
479.442320,0.091127
479.777180,0.095465
480.112000,0.092450
480.446780,0.090413
480.781520,0.088567
481.116220,0.095392
481.450880,0.095238
481.785500,0.098892
482.120080,0.098746
482.454620,0.092463
482.789120,0.092357
483.123580,0.097352
483.458000,0.090981
483.792380,0.089457
484.126720,0.094208
484.461020,0.097580
484.795280,0.093292
485.129500,0.092751
485.463680,0.091473
485.797820,0.094868
486.131920,0.095639
486.465980,0.091120
486.800000,0.096947
487.133980,0.090634
487.467920,0.091813
487.801820,0.095347
488.135680,0.095527
488.469500,0.093041
488.803280,0.100297
489.137020,0.089377
489.470720,0.091988
489.804380,0.097253
490.138000,0.093472
490.471580,0.095800
490.805120,0.090779
491.138620,0.093817
491.472080,0.096113
491.805500,0.093445
492.138880,0.093815
492.472220,0.094810
492.805520,0.094274
493.138780,0.097174
493.472000,0.093645
493.805180,0.097544
494.138320,0.100734
494.471420,0.093750
494.804480,0.095084
495.137500,0.094994
495.470480,0.091778
495.803420,0.091310
496.136320,0.090852
496.469180,0.095764
496.802000,0.092910
497.134780,0.091571
497.467520,0.094190
497.800220,0.093750
498.132880,0.094650
498.465500,0.093859
498.798080,0.089612
499.130620,0.089837
499.463120,0.093768
499.795580,0.095710
500.128000,0.094278
500.460380,0.091496
500.792720,0.094910
501.125020,0.091435
501.457280,0.089817
501.789500,0.092975
502.121680,0.096941
502.453820,0.093320
502.785920,0.093547
503.117980,0.096173
503.450000,0.097941
503.781980,0.097658
504.113920,0.093409
504.445820,0.090423
504.777680,0.092235
505.109500,0.092308
505.441280,0.092256
505.773020,0.090183
506.104720,0.091380
506.436380,0.092759
506.768000,0.095884
507.099580,0.087872
507.431120,0.091803
507.762620,0.093515
508.094080,0.092981
508.425500,0.094771
508.756880,0.087334
509.088220,0.093376
509.419520,0.090782
509.750780,0.089972
510.082000,0.094683
510.413180,0.095808
510.744320,0.091578
511.075420,0.090742
511.406480,0.092149
511.737500,0.091204
512.068480,0.088816
512.399420,0.090610
512.730320,0.087298
513.061180,0.091817
513.392000,0.090393
513.722780,0.091258
514.053520,0.091040
514.384220,0.090866
514.714880,0.093346
515.045500,0.092433
515.376080,0.092010
515.706620,0.092547
516.037120,0.091176
516.367580,0.092164
516.698000,0.088235
517.028380,0.087885
517.358720,0.093827
517.689020,0.092483
518.019280,0.091320
518.349500,0.090218
518.679680,0.091873
519.009820,0.088563
519.339920,0.092685
519.669980,0.093420
520.000000,0.090678
520.329980,0.086573
520.659920,0.091513
520.989820,0.092363
521.319680,0.090535
521.649500,0.088946
521.979280,0.088205
522.309020,0.086618
522.638720,0.090118
522.968380,0.095140
523.298000,0.093946
523.627580,0.090016
523.957120,0.086753
524.286620,0.093799
524.616080,0.093588
524.945500,0.090956
525.274880,0.094407
525.604220,0.092133
525.933520,0.088574
526.262780,0.086670
526.592000,0.093861
526.921180,0.093448
527.250320,0.093861
527.579420,0.094997
527.908480,0.087149
528.237500,0.091360
528.566480,0.091317
528.895420,0.096106
529.224320,0.092125
529.553180,0.090120
529.882000,0.097324
530.210780,0.093629
530.539520,0.092522
530.868220,0.093825
531.196880,0.090301
531.525500,0.093462
531.854080,0.090525
532.182620,0.086875
532.511120,0.090487
532.839580,0.090290
533.168000,0.095260
533.496380,0.091781
533.824720,0.092418
534.153020,0.094962
534.481280,0.091630
534.809500,0.092348
535.137680,0.088976
535.465820,0.089777
535.793920,0.088409
536.121980,0.092740
536.450000,0.091755
536.777980,0.095936
537.105920,0.093400
537.433820,0.090835
537.761680,0.090204
538.089500,0.091056
538.417280,0.093514
538.745020,0.090729
539.072720,0.090199
539.400380,0.092463
539.728000,0.092543
540.055580,0.091760
540.383120,0.091586
540.710620,0.091518
541.038080,0.092586
541.365500,0.088603
541.692880,0.092297
542.020220,0.092479
542.347520,0.092247
542.674780,0.091390
543.002000,0.092372
543.329180,0.096107
543.656320,0.091421
543.983420,0.090940
544.310480,0.091743
544.637500,0.094848
544.964480,0.090848
545.291420,0.087737
545.618320,0.092629
545.945180,0.087343
546.272000,0.089450
546.598780,0.090462
546.925520,0.090010
547.252220,0.090459
547.578880,0.093842
547.905500,0.091176
548.232080,0.090968
548.558620,0.092418
548.885120,0.090285
549.211580,0.089682
549.538000,0.090791
549.864380,0.090354
550.190720,0.090733
550.517020,0.090613
550.843280,0.090879
551.169500,0.090331
551.495680,0.090013
551.821820,0.093403
552.147920,0.089785
552.473980,0.089562
552.800000,0.089274
553.125980,0.092665
553.451920,0.090577
553.777820,0.091272
554.103680,0.089316
554.429500,0.087379
554.755280,0.092457
555.081020,0.089238
555.406720,0.088723
555.732380,0.086750
556.058000,0.093347
556.383580,0.089011
556.709120,0.090627
557.034620,0.086462
557.360080,0.092228
557.685500,0.092324
558.010880,0.088388
558.336220,0.086819
558.661520,0.091102
558.986780,0.090361
559.312000,0.092593
559.637180,0.086894
559.962320,0.089000
560.287420,0.090973
560.612480,0.089343
560.937500,0.091043
561.262480,0.089443
561.587420,0.092492
561.912320,0.092115
562.237180,0.090303
562.562000,0.090161
562.886780,0.091044
563.211520,0.087556
563.536220,0.090167
563.860880,0.089777
564.185500,0.091932
564.510080,0.088036
564.834620,0.090808
565.159120,0.086466
565.483580,0.090080
565.808000,0.088157
566.132380,0.088027
566.456720,0.091459
566.781020,0.087397
567.105280,0.089981
567.429500,0.090668
567.753680,0.089758
568.077820,0.088133
568.401920,0.089763
568.725980,0.087287
569.050000,0.090494
569.373980,0.092120
569.697920,0.089116
570.021820,0.093258
570.345680,0.087256
570.669500,0.086608
570.993280,0.090808
571.317020,0.088053
571.640720,0.090033
571.964380,0.087231
572.288000,0.091988
572.611580,0.094721
572.935120,0.089787
573.258620,0.090127
573.582080,0.089419
573.905500,0.085257
574.228880,0.089829
574.552220,0.090509
574.875520,0.084885
575.198780,0.089266
575.522000,0.089076
575.845180,0.087751
576.168320,0.088034
576.491420,0.087936
576.814480,0.089331
577.137500,0.091270
577.460480,0.086263
577.783420,0.086102
578.106320,0.091524
578.429180,0.092612
578.752000,0.088920
579.074780,0.092717
579.397520,0.089090
579.720220,0.087516
580.042880,0.090188
580.365500,0.090007
580.688080,0.092944
581.010620,0.092136
581.333120,0.092518
581.655580,0.088911
581.978000,0.091453
582.300380,0.091529
582.622720,0.090639
582.945020,0.092978
583.267280,0.089547
583.589500,0.090530
583.911680,0.089552
584.233820,0.090022
584.555920,0.093917
584.877980,0.088568
585.200000,0.091467
585.521980,0.088044
585.843920,0.090299
586.165820,0.089275
586.487680,0.092085
586.809500,0.090309
587.131280,0.088731
587.453020,0.089286
587.774720,0.087226
588.096380,0.090140
588.418000,0.089845
588.739580,0.091406
589.061120,0.089994
589.382620,0.089398
589.704080,0.090603
590.025500,0.092751
590.346880,0.088252
590.668220,0.089611
590.989520,0.089018
591.310780,0.090030
591.632000,0.092350
591.953180,0.090507
592.274320,0.088179
592.595420,0.089978
592.916480,0.091551
593.237500,0.090272
593.558480,0.088512
593.879420,0.089291
594.200320,0.092151
594.521180,0.092165
594.842000,0.090543
595.162780,0.090278
595.483520,0.089604
595.804220,0.086735
596.124880,0.088729
596.445500,0.088551
596.766080,0.092498
597.086620,0.088110
597.407120,0.088994
597.727580,0.093344
598.048000,0.091246
598.368380,0.089427
598.688720,0.089384
599.009020,0.088376
599.329280,0.091006
599.649500,0.089012
599.969680,0.088675
600.289820,0.091880
600.609920,0.090035
600.929980,0.086317
601.250000,0.088378
601.569980,0.086686
601.889920,0.088746
602.209820,0.086310
602.529680,0.091184
602.849500,0.088925
603.169280,0.089005
603.489020,0.089676
603.808720,0.088590
604.128380,0.089404
604.448000,0.087845
604.767580,0.089106
605.087120,0.088089
605.406620,0.089561
605.726080,0.088965
606.045500,0.089161
606.364880,0.091012
606.684220,0.090520
607.003520,0.090310
607.322780,0.087834
607.642000,0.091614
607.961180,0.084707
608.280320,0.087007
608.599420,0.087486
608.918480,0.088270
609.237500,0.089495
609.556480,0.088488
609.875420,0.087419
610.194320,0.089755
610.513180,0.088192
610.832000,0.088446
611.150780,0.089817
611.469520,0.087783
611.788220,0.090085
612.106880,0.088661
612.425500,0.088307
612.744080,0.088335
613.062620,0.085015
613.381120,0.086837
613.699580,0.088903
614.018000,0.091523
614.336380,0.090068
614.654720,0.088682
614.973020,0.084850
615.291280,0.090487
615.609500,0.090967
615.927680,0.088690
616.245820,0.088126
616.563920,0.086416
616.881980,0.086685
617.200000,0.087714
617.517980,0.086185
617.835920,0.089469
618.153820,0.086727
618.471680,0.088062
618.789500,0.085903
619.107280,0.088576
619.425020,0.088487
619.742720,0.087884
620.060380,0.086807
620.378000,0.089364
620.695580,0.088123
621.013120,0.086614
621.330620,0.088484
621.648080,0.086120
621.965500,0.087202
622.282880,0.089533
622.600220,0.086860
622.917520,0.084436
623.234780,0.090646
623.552000,0.089752
623.869180,0.088245
624.186320,0.087552
624.503420,0.086834
624.820480,0.087025
625.137500,0.086201
625.454480,0.086590
625.771420,0.085750
626.088320,0.085750
626.405180,0.086185
626.722000,0.088770
627.038780,0.089912
627.355520,0.087500
627.672220,0.088647
627.988880,0.086159
628.305500,0.088501
628.622080,0.089529
628.938620,0.089602
629.255120,0.088986
629.571580,0.087343
629.888000,0.084995
630.204380,0.085916
630.520720,0.086228
630.837020,0.088498
631.153280,0.088129
631.469500,0.086113
631.785680,0.087101
632.101820,0.089566
632.417920,0.087928
632.733980,0.087635
633.050000,0.086416
633.365980,0.088322
633.681920,0.087411
633.997820,0.086372
634.313680,0.089059
634.629500,0.087290
634.945280,0.085044
635.261020,0.088641
635.576720,0.088080
635.892380,0.086262
636.208000,0.087740
636.523580,0.089155
636.839120,0.090330
637.154620,0.088986
637.470080,0.088092
637.785500,0.088804
638.100880,0.088039
638.416220,0.088295
638.731520,0.088252
639.046780,0.088844
639.362000,0.087443
639.677180,0.087664
639.992320,0.086834
640.307420,0.088789
640.622480,0.089331
640.937500,0.089043
641.252480,0.088802
641.567420,0.086104
641.882320,0.086024
642.197180,0.089276
642.512000,0.084523
642.826780,0.086546
643.141520,0.087246
643.456220,0.086331
643.770880,0.087617
644.085500,0.088038
644.400080,0.087079
644.714620,0.088629
645.029120,0.084433
645.343580,0.083653
645.658000,0.084929
645.972380,0.091258
646.286720,0.086945
646.601020,0.088292
646.915280,0.087743
647.229500,0.085440
647.543680,0.088926
647.857820,0.087256
648.171920,0.088714
648.485980,0.084955
648.800000,0.084872
649.113980,0.085920
649.427920,0.084882
649.741820,0.083539
650.055680,0.086945
650.369500,0.085482
650.683280,0.084351
650.997020,0.085534
651.310720,0.084205
651.624380,0.087363
651.938000,0.084765
652.251580,0.086279
652.565120,0.084405
652.878620,0.087838
653.192080,0.085112
653.505500,0.084993
653.818880,0.088143
654.132220,0.087724
654.445520,0.084231
654.758780,0.084986
655.072000,0.087679
655.385180,0.083310
655.698320,0.084881
656.011420,0.087704
656.324480,0.088021
656.637500,0.084009
656.950480,0.083969
657.263420,0.088974
657.576320,0.084791
657.889180,0.085520
658.202000,0.086655
658.514780,0.086633
658.827520,0.087935
659.140220,0.085706
659.452880,0.086077
659.765500,0.084588
660.078080,0.086067
660.390620,0.085854
660.703120,0.085854
661.015580,0.084969
661.328000,0.089736
661.640380,0.086984
661.952720,0.087512
662.265020,0.087272
662.577280,0.083969
662.889500,0.085147
663.201680,0.086471
663.513820,0.085558
663.825920,0.086776
664.137980,0.086619
664.450000,0.085997
664.761980,0.083470
665.073920,0.082441
665.385820,0.084097
665.697680,0.083306
666.009500,0.087130
666.321280,0.089795
666.633020,0.089096
666.944720,0.084934
667.256380,0.085801
667.568000,0.083220
667.879580,0.085034
668.191120,0.087225
668.502620,0.085587
668.814080,0.084561
669.125500,0.085529
669.436880,0.086100
669.748220,0.084804
670.059520,0.090686
670.370780,0.087335
670.682000,0.086372
670.993180,0.084567
671.304320,0.085795
671.615420,0.085227
671.926480,0.088361
672.237500,0.084673
672.548480,0.084457
672.859420,0.085418
673.170320,0.084875
673.481180,0.085083
673.792000,0.084025
674.102780,0.084022
674.413520,0.087495
674.724220,0.085299
675.034880,0.086175
675.345500,0.082786
675.656080,0.084211
675.966620,0.084394
676.277120,0.088612
676.587580,0.085788
676.898000,0.082867
677.208380,0.083179
677.518720,0.080233
677.829020,0.086844
678.139280,0.084136
678.449500,0.086149
678.759680,0.084301
679.069820,0.085502
679.379920,0.088269
679.689980,0.084664
680.000000,0.087477
680.309980,0.085746
680.619920,0.084816
680.929820,0.086226
681.239680,0.084195
681.549500,0.082593
681.859280,0.084765
682.169020,0.081313
682.478720,0.087135
682.788380,0.083426
683.098000,0.086761
683.407580,0.086679
683.717120,0.084084
684.026620,0.083961
684.336080,0.082986
684.645500,0.081182
684.954880,0.086135
685.264220,0.086070
685.573520,0.086030
685.882780,0.085155
686.192000,0.084274
686.501180,0.086266
686.810320,0.086088
687.119420,0.083998
687.428480,0.086213
687.737500,0.084037
688.046480,0.085506
688.355420,0.086760
688.664320,0.081102
688.973180,0.082312
689.282000,0.084877
689.590780,0.084739
689.899520,0.083555
690.208220,0.085245
690.516880,0.086292
690.825500,0.084528
691.134080,0.085421
691.442620,0.081555
691.751120,0.086841
692.059580,0.085976
692.368000,0.080651
692.676380,0.083969
692.984720,0.086260
693.293020,0.087006
693.601280,0.084700
693.909500,0.083617
694.217680,0.086062
694.525820,0.086824
694.833920,0.085845
695.141980,0.084844
695.450000,0.083969
695.757980,0.084416
696.065920,0.083107
696.373820,0.083141
696.681680,0.084005
696.989500,0.086453
697.297280,0.084014
697.605020,0.087698
697.912720,0.084166
698.220380,0.084612
698.528000,0.088212
698.835580,0.080996
699.143120,0.082229
699.450620,0.080350
699.758080,0.082353
700.065500,0.082602
700.372880,0.084800
700.680220,0.085760
700.987520,0.089286
701.294780,0.084753
701.602000,0.083994
701.909180,0.084658
702.216320,0.084083
702.523420,0.086425
702.830480,0.083168
703.137500,0.085347
703.444480,0.085602
703.751420,0.084813
704.058320,0.084685
704.365180,0.083596
704.672000,0.087129
704.978780,0.083106
705.285520,0.081377
705.592220,0.082745
705.898880,0.084318
706.205500,0.084507
706.512080,0.084123
706.818620,0.084365
707.125120,0.084615
707.431580,0.084017
707.738000,0.087109
708.044380,0.081822
708.350720,0.083684
708.657020,0.084799
708.963280,0.084627
709.269500,0.083366
709.575680,0.085265
709.881820,0.086478
710.187920,0.082101
710.493980,0.081458
710.800000,0.084287
711.105980,0.081702
711.411920,0.081592
711.717820,0.083041
712.023680,0.083949
712.329500,0.085568
712.635280,0.087209
712.941020,0.085814
713.246720,0.079447
713.552380,0.085557
713.858000,0.085140
714.163580,0.083268
714.469120,0.080109
714.774620,0.081326
715.080080,0.084020
715.385500,0.081535
715.690880,0.084813
715.996220,0.082409
716.301520,0.085771
716.606780,0.086085
716.912000,0.082795
717.217180,0.083001
717.522320,0.080318
717.827420,0.082587
718.132480,0.082296
718.437500,0.082756
718.742480,0.086694
719.047420,0.084547
719.352320,0.080946
719.657180,0.083810
719.962000,0.082299
720.266780,0.083922
720.571520,0.081607
720.876220,0.083061
721.180880,0.084448
721.485500,0.086084
721.790080,0.084501
722.094620,0.084048
722.399120,0.081861
722.703580,0.084012
723.008000,0.086675
723.312380,0.083943
723.616720,0.081173
723.921020,0.083153
724.225280,0.084642
724.529500,0.081436
724.833680,0.084520
725.137820,0.082379
725.441920,0.082925
725.745980,0.085459
726.050000,0.082544
726.353980,0.080216
726.657920,0.082771
726.961820,0.088128
727.265680,0.079982
727.569500,0.084552
727.873280,0.082679
728.177020,0.086596
728.480720,0.081944
728.784380,0.084547
729.088000,0.086199
729.391580,0.081952
729.695120,0.084453
729.998620,0.087476
730.302080,0.082653
730.605500,0.079573
730.908880,0.082803
731.212220,0.087169
731.515520,0.083862
731.818780,0.086893
732.122000,0.085630
732.425180,0.081814
732.728320,0.081309
733.031420,0.080201
733.334480,0.080612
733.637500,0.079637
733.940480,0.083419
734.243420,0.083078
734.546320,0.082469
734.849180,0.084711
735.152000,0.078838
735.454780,0.077479
735.757520,0.083246
736.060220,0.083202
736.362880,0.081933
736.665500,0.079373
736.968080,0.083826
737.270620,0.086554
737.573120,0.086790
737.875580,0.084662
738.178000,0.082199
738.480380,0.085946
738.782720,0.083969
739.085020,0.078744
739.387280,0.081486
739.689500,0.077576
739.991680,0.084784
740.293820,0.080708
740.595920,0.083472
740.897980,0.080745
741.200000,0.089736
741.501980,0.091691
741.803920,0.078266
742.105820,0.080090
742.407680,0.080955
742.709500,0.084091
743.011280,0.080891
743.313020,0.082899
743.614720,0.084156
743.916380,0.078488
744.218000,0.082936
744.519580,0.081522
744.821120,0.083234
745.122620,0.081486
745.424080,0.079928
745.725500,0.087508
746.026880,0.080665
746.328220,0.079531
746.629520,0.083082
746.930780,0.085784
747.232000,0.082771
747.533180,0.083588
747.834320,0.080341
748.135420,0.077688
748.436480,0.081722
748.737500,0.080914
749.038480,0.082468
749.339420,0.082763
749.640320,0.082338
749.941180,0.082448
750.242000,0.077889
750.542780,0.081886
750.843520,0.081999
751.144220,0.085256
751.444880,0.082435
751.745500,0.080519
752.046080,0.083387
752.346620,0.072809
752.647120,0.080993
752.947580,0.083441
753.248000,0.086396
753.548380,0.081978
753.848720,0.082421
754.149020,0.075435
754.449280,0.083388
754.749500,0.072993
755.049680,0.080667
755.349820,0.081388
755.649920,0.081956
755.949980,0.076311
756.250000,0.083498
756.549980,0.079868
756.849920,0.083617
757.149820,0.080506
757.449680,0.087129
757.749500,0.083163
758.049280,0.083276
758.349020,0.083449
758.648720,0.085576
758.948380,0.079725
759.248000,0.080189
759.547580,0.084734
759.847120,0.083391
760.146620,0.078484
760.446080,0.080645
760.745500,0.086713
761.044880,0.083807
761.344220,0.077691
761.643520,0.085452
761.942780,0.081176
762.242000,0.086280
762.541180,0.078169
762.840320,0.082865
763.139420,0.079466
763.438480,0.077239
763.737500,0.079945
764.036480,0.078966
764.335420,0.083275
764.634320,0.076923
764.933180,0.082192
765.232000,0.082582
765.530780,0.080702
765.829520,0.083217
766.128220,0.081420
766.426880,0.081023
766.725500,0.083619
767.024080,0.085048
767.322620,0.076763
767.621120,0.081301
767.919580,0.082594
768.218000,0.077975
768.516380,0.079784
768.814720,0.078189
769.113020,0.085458
769.411280,0.083564
769.709500,0.077131
770.007680,0.070893
770.305820,0.083164
770.603920,0.076819
770.901980,0.086066
771.200000,0.082880
771.497980,0.082440
771.795920,0.081605
772.093820,0.076203
772.391680,0.080422
772.689500,0.078378
772.987280,0.078788
773.285020,0.086808
773.582720,0.080405
773.880380,0.083047
774.178000,0.076346
774.475580,0.084394
774.773120,0.072959
775.070620,0.083840
775.368080,0.080160
775.665500,0.075890
775.962880,0.082722
776.260220,0.078735
776.557520,0.078052
776.854780,0.085193
777.152000,0.078912
777.449180,0.083614
777.746320,0.075269
778.043420,0.088677
778.340480,0.076455
778.637500,0.081136
778.934480,0.082717
779.231420,0.079376
779.528320,0.078156
779.825180,0.081686
780.122000,0.078353
780.418780,0.083447
780.715520,0.086519
781.012220,0.082877
781.308880,0.081812
781.605500,0.081507
781.902080,0.080082
782.198620,0.079973
782.495120,0.084362
782.791580,0.081843
783.088000,0.080745
783.384380,0.082531
783.680720,0.083447
783.977020,0.083276
784.273280,0.084615
784.569500,0.077568
784.865680,0.087622
785.161820,0.083333
785.457920,0.080388
785.753980,0.079553
786.050000,0.078729
786.345980,0.079167
786.641920,0.082582
786.937820,0.086182
787.233680,0.078636
787.529500,0.079057
787.825280,0.080028
788.121020,0.078612
788.416720,0.079746
788.712380,0.083216
789.008000,0.079320
789.303580,0.077739
789.599120,0.077091
789.894620,0.080144
790.190080,0.079043
790.485500,0.079194
790.780880,0.075269
791.076220,0.077201
791.371520,0.082062
791.666780,0.084364
791.962000,0.078619
792.257180,0.079063
792.552320,0.079768
792.847420,0.077875
793.142480,0.084249
793.437500,0.083936
793.732480,0.082663
794.027420,0.083828
794.322320,0.077554
794.617180,0.077266
794.912000,0.075037
795.206780,0.083520
795.501520,0.082890
795.796220,0.074074
796.090880,0.077619
796.385500,0.083958
796.680080,0.080778
796.974620,0.085329
797.269120,0.080242
797.563580,0.084733
797.858000,0.082005
798.152380,0.081980
798.446720,0.080769
798.741020,0.082435
799.035280,0.083075
799.329500,0.084681
799.623680,0.079845
