399.985280,0.081081
400.329500,0.081081
400.673680,0.037975
401.017820,-0.014706
401.361920,0.060606
401.705980,0.048780
402.050000,0.025974
402.393980,0.117647
402.737920,0.146067
403.081820,0.082474
403.425680,0.069767
403.769500,0.052083
404.113280,0.057471
404.457020,0.078652
404.800720,0.086957
405.144380,0.131313
405.488000,0.086022
405.831580,0.113402
406.175120,0.085106
406.518620,0.120000
406.862080,0.123711
407.205500,0.031250
407.548880,0.091837
407.892220,0.127451
408.235520,0.148936
408.578780,0.142857
408.922000,0.086538
409.265180,0.101010
409.608320,0.080808
409.951420,0.134021
410.294480,0.176471
410.637500,0.086957
410.980480,0.117647
411.323420,0.081633
411.666320,0.128440
412.009180,0.109091
412.352000,0.118812
412.694780,0.082569
413.037520,0.082569
413.380220,0.099099
413.722880,0.098214
414.065500,0.108108
414.408080,0.070796
414.750620,0.079646
415.093120,0.008264
415.435580,0.100840
415.778000,0.113636
416.120380,0.109244
416.462720,0.055556
416.805020,0.120301
417.147280,0.111940
417.489500,0.078571
417.831680,0.095890
418.173820,0.078014
418.515920,0.069930
418.857980,0.082278
419.200000,0.083333
419.541980,0.100592
419.883920,0.101124
420.225820,0.104046
420.567680,0.100559
420.909500,0.087432
421.251280,0.104167
421.593020,0.096939
421.934720,0.106061
422.276380,0.107692
422.618000,0.117647
422.959580,0.098039
423.301120,0.091324
423.642620,0.082609
423.984080,0.083721
424.325500,0.103139
424.666880,0.086207
425.008220,0.092437
425.349520,0.080508
425.690780,0.092308
426.032000,0.074510
426.373180,0.087137
426.714320,0.101562
427.055420,0.104247
427.396480,0.101124
427.737500,0.086957
428.078480,0.094862
428.419420,0.056225
428.760320,0.068966
429.101180,0.086614
429.442000,0.084291
429.782780,0.092308
430.123520,0.090196
430.464220,0.073801
430.804880,0.095785
431.145500,0.083636
431.486080,0.093633
431.826620,0.100775
432.167120,0.095588
432.507580,0.086957
432.848000,0.082734
433.188380,0.093863
433.528720,0.101887
433.869020,0.100000
434.209280,0.066667
434.549500,0.090592
434.889680,0.097643
435.229820,0.098976
435.569920,0.069204
435.909980,0.087379
436.250000,0.094915
436.589980,0.074303
436.929920,0.104762
437.269820,0.087774
437.609680,0.115385
437.949500,0.090361
438.289280,0.110482
438.629020,0.113372
438.968720,0.110465
439.308380,0.070461
439.648000,0.087671
439.987580,0.103175
440.327120,0.090667
440.666620,0.093506
441.006080,0.089514
441.345500,0.090909
441.684880,0.095694
442.024220,0.091811
442.363520,0.085714
442.702780,0.090909
443.042000,0.094714
443.381180,0.092672
443.720320,0.105832
444.059420,0.071429
444.398480,0.075314
444.737500,0.092213
445.076480,0.093254
445.415420,0.099800
445.754320,0.095634
446.093180,0.093578
446.432000,0.086466
446.770780,0.094877
447.109520,0.097426
447.448220,0.096601
447.786880,0.101968
448.125500,0.098276
448.464080,0.101786
448.802620,0.099291
449.141120,0.091696
449.479580,0.092657
449.818000,0.098107
450.156380,0.091973
450.494720,0.092562
450.833020,0.106643
451.171280,0.090753
451.509500,0.095819
451.847680,0.089376
452.185820,0.099828
452.523920,0.096220
452.861980,0.091062
453.200000,0.086379
453.537980,0.089076
453.875920,0.094118
454.213820,0.087329
454.551680,0.096026
454.889500,0.087690
455.227280,0.076512
455.565020,0.090452
455.902720,0.091514
456.240380,0.079867
456.578000,0.081882
456.915580,0.093264
457.253120,0.100329
457.590620,0.087028
457.928080,0.097643
458.265500,0.091216
458.602880,0.086039
458.940220,0.082910
459.277520,0.096000
459.614780,0.090016
459.952000,0.082298
460.289180,0.093354
460.626320,0.089764
460.963420,0.085622
461.300480,0.087156
461.637500,0.089368
461.974480,0.094801
462.311420,0.081967
462.648320,0.079063
462.985180,0.084648
463.322000,0.084821
463.658780,0.082873
463.995520,0.085282
464.332220,0.081717
464.668880,0.090054
465.005500,0.093834
465.342080,0.093470
465.678620,0.091021
466.015120,0.086675
466.351580,0.093552
466.688000,0.093788
467.024380,0.092345
467.360720,0.086364
467.697020,0.080866
468.033280,0.093333
468.369500,0.087196
468.705680,0.095829
469.041820,0.094792
469.377920,0.084599
469.713980,0.090628
470.050000,0.091787
470.385980,0.083170
470.721920,0.081293
471.057820,0.086745
471.393680,0.088868
471.729500,0.081557
472.065280,0.084079
472.401020,0.087766
472.736720,0.092496
473.072380,0.083483
473.408000,0.089643
473.743580,0.085640
474.079120,0.090439
474.414620,0.088210
474.750080,0.082994
475.085500,0.089638
475.420880,0.086595
475.756220,0.090760
476.091520,0.092072
476.426780,0.086570
476.762000,0.083669
477.097180,0.088800
477.432320,0.092084
477.767420,0.078431
478.102480,0.088976
478.437500,0.082923
478.772480,0.085106
479.107420,0.082181
479.442320,0.087130
479.777180,0.092283
480.112000,0.091680
480.446780,0.088854
480.781520,0.083736
481.116220,0.088925
481.450880,0.084309
481.785500,0.095728
482.120080,0.091693
482.454620,0.088578
482.789120,0.081210
483.123580,0.086449
483.458000,0.081487
483.792380,0.087061
484.126720,0.081853
484.461020,0.086651
484.795280,0.085582
485.129500,0.091972
485.463680,0.083721
485.797820,0.089425
486.131920,0.084927
486.465980,0.084170
486.800000,0.093893
487.133980,0.086103
487.467920,0.083397
487.801820,0.090770
488.135680,0.090978
488.469500,0.086233
488.803280,0.084695
489.137020,0.088645
489.470720,0.087537
489.804380,0.089087
490.138000,0.091988
490.471580,0.089167
490.805120,0.084346
491.138620,0.083866
491.472080,0.082686
491.805500,0.090656
492.138880,0.090341
492.472220,0.093426
492.805520,0.089385
493.138780,0.093039
493.472000,0.090970
493.805180,0.092087
494.138320,0.089393
494.471420,0.089193
494.804480,0.086028
495.137500,0.093068
495.470480,0.089866
495.803420,0.086902
496.136320,0.094612
496.469180,0.082873
496.802000,0.088020
497.134780,0.086113
497.467520,0.099694
497.800220,0.088443
498.132880,0.084068
498.465500,0.087486
498.798080,0.085046
499.130620,0.084784
499.463120,0.089837
499.795580,0.086359
500.128000,0.090463
500.460380,0.088805
500.792720,0.085896
501.125020,0.084603
501.457280,0.085640
501.789500,0.089876
502.121680,0.090721
502.453820,0.086690
502.785920,0.087544
503.117980,0.088813
503.450000,0.088398
503.781980,0.093174
504.113920,0.083452
504.445820,0.085561
504.777680,0.083294
505.109500,0.087500
505.441280,0.087476
505.773020,0.086426
506.104720,0.081959
506.436380,0.086607
506.768000,0.086997
507.099580,0.082380
507.431120,0.088056
507.762620,0.086466
508.094080,0.088423
508.425500,0.087768
508.756880,0.082762
509.088220,0.087397
509.419520,0.090782
509.750780,0.087160
510.082000,0.089086
510.413180,0.086135
510.744320,0.085596
511.075420,0.086618
511.406480,0.084156
511.737500,0.087037
512.068480,0.088816
512.399420,0.084038
512.730320,0.084988
513.061180,0.088011
513.392000,0.085660
513.722780,0.084054
514.053520,0.081936
514.384220,0.086584
514.714880,0.084730
515.045500,0.083812
515.376080,0.085714
515.706620,0.086702
516.037120,0.083824
516.367580,0.082307
516.698000,0.081373
517.028380,0.083416
517.358720,0.083951
517.689020,0.088526
518.019280,0.085299
518.349500,0.088191
518.679680,0.085815
519.009820,0.085020
519.339920,0.086673
519.669980,0.082371
520.000000,0.085583
520.329980,0.085018
520.659920,0.084356
520.989820,0.085139
521.319680,0.086934
521.649500,0.083290
521.979280,0.086117
522.309020,0.080394
522.638720,0.083973
522.968380,0.086867
523.298000,0.085595
523.627580,0.085877
523.957120,0.084156
524.286620,0.088588
524.616080,0.082730
524.945500,0.087339
525.274880,0.086198
525.604220,0.083333
525.933520,0.083333
526.262780,0.084643
526.592000,0.089295
526.921180,0.087862
527.250320,0.084221
527.579420,0.085902
527.908480,0.085672
528.237500,0.088878
528.566480,0.086826
528.895420,0.085757
529.224320,0.084200
529.553180,0.089157
529.882000,0.093431
530.210780,0.081081
530.539520,0.084851
530.868220,0.088559
531.196880,0.087434
531.525500,0.090557
531.854080,0.083490
532.182620,0.086875
532.511120,0.088167
532.839580,0.087114
533.168000,0.088879
533.496380,0.086301
533.824720,0.082100
534.153020,0.087383
534.481280,0.088106
534.809500,0.087511
535.137680,0.086806
535.465820,0.086340
535.793920,0.087986
536.121980,0.086446
536.450000,0.085412
536.777980,0.089233
537.105920,0.084267
537.433820,0.085925
537.761680,0.088571
538.089500,0.085391
538.417280,0.087147
538.745020,0.083597
539.072720,0.085513
539.400380,0.085470
539.728000,0.086424
540.055580,0.090262
540.383120,0.087118
540.710620,0.085937
541.038080,0.088528
541.365500,0.081985
541.692880,0.085756
542.020220,0.087082
542.347520,0.086504
542.674780,0.082569
543.002000,0.086774
543.329180,0.085584
543.656320,0.086850
543.983420,0.086496
544.310480,0.084947
544.637500,0.085977
544.964480,0.083109
545.291420,0.086740
545.618320,0.086985
545.945180,0.085366
546.272000,0.081586
546.598780,0.084890
546.925520,0.085724
547.252220,0.084186
547.578880,0.086999
547.905500,0.084314
548.232080,0.081871
548.558620,0.086235
548.885120,0.085051
549.211580,0.086146
549.538000,0.084955
549.864380,0.088746
550.190720,0.086212
550.517020,0.085398
550.843280,0.087622
551.169500,0.085878
551.495680,0.087057
551.821820,0.085892
552.147920,0.084580
552.473980,0.083635
552.800000,0.084696
553.125980,0.086771
553.451920,0.084937
553.777820,0.084610
554.103680,0.084934
554.429500,0.081353
554.755280,0.087450
555.081020,0.084893
555.406720,0.083305
555.732380,0.085395
556.058000,0.086897
556.383580,0.083533
556.709120,0.085114
557.034620,0.086807
557.360080,0.082556
557.685500,0.087137
558.010880,0.083882
558.336220,0.081547
558.661520,0.083304
558.986780,0.088235
559.312000,0.082621
559.637180,0.081867
559.962320,0.083660
560.287420,0.089563
560.612480,0.085755
560.937500,0.084435
561.262480,0.082478
561.587420,0.081973
561.912320,0.085114
562.237180,0.085862
562.562000,0.084175
562.886780,0.087328
563.211520,0.085693
563.536220,0.088683
563.860880,0.083365
564.185500,0.084428
564.510080,0.082393
564.834620,0.085969
565.159120,0.084586
565.483580,0.085139
565.808000,0.085131
566.132380,0.086535
566.456720,0.085412
566.781020,0.084021
567.105280,0.084310
567.429500,0.083839
567.753680,0.084005
568.077820,0.084654
568.401920,0.088617
568.725980,0.083491
569.050000,0.087452
569.373980,0.087172
569.697920,0.083428
570.021820,0.087266
570.345680,0.082664
570.669500,0.084700
570.993280,0.084902
571.317020,0.084034
571.640720,0.085217
571.964380,0.084633
572.288000,0.084570
572.611580,0.083864
572.935120,0.086046
573.258620,0.086387
573.582080,0.083458
573.905500,0.087118
574.228880,0.086117
574.552220,0.083181
574.875520,0.089352
575.198780,0.084930
575.522000,0.082845
575.845180,0.080946
576.168320,0.087675
576.491420,0.085029
576.814480,0.087523
577.137500,0.082973
577.460480,0.088438
577.783420,0.083959
578.106320,0.084046
578.429180,0.086250
578.752000,0.082320
579.074780,0.087997
579.397520,0.086185
579.720220,0.085586
580.042880,0.084903
580.365500,0.087690
580.688080,0.086839
581.010620,0.087411
581.333120,0.085170
581.655580,0.087246
581.978000,0.086132
582.300380,0.085037
582.622720,0.085036
582.945020,0.086476
583.267280,0.081732
583.589500,0.083467
583.911680,0.087647
584.233820,0.083727
584.555920,0.089505
584.877980,0.082915
585.200000,0.081031
585.521980,0.082175
585.843920,0.087553
586.165820,0.085009
586.487680,0.083960
586.809500,0.084608
587.131280,0.083407
587.453020,0.087500
587.774720,0.084565
588.096380,0.083139
588.418000,0.084284
588.739580,0.085369
589.061120,0.086544
589.382620,0.084814
589.704080,0.086957
590.025500,0.086758
590.346880,0.084879
590.668220,0.086810
590.989520,0.081531
591.310780,0.083126
591.632000,0.087705
591.953180,0.086908
592.274320,0.084630
592.595420,0.086207
592.916480,0.087205
593.237500,0.082727
593.558480,0.086091
593.879420,0.084974
594.200320,0.084650
594.521180,0.083665
594.842000,0.083020
595.162780,0.086271
595.483520,0.082957
595.804220,0.082438
596.124880,0.084999
596.445500,0.086193
596.766080,0.086851
597.086620,0.086253
597.407120,0.085571
597.727580,0.086449
598.048000,0.085427
598.368380,0.086007
598.688720,0.083355
599.009020,0.082537
599.329280,0.084087
599.649500,0.081881
599.969680,0.084669
600.289820,0.081731
600.609920,0.086562
600.929980,0.084180
601.250000,0.084054
601.569980,0.083986
601.889920,0.084202
602.209820,0.084145
602.529680,0.085691
602.849500,0.085106
603.169280,0.084045
603.489020,0.084971
603.808720,0.084750
604.128380,0.083333
604.448000,0.083702
604.767580,0.082123
605.087120,0.084211
605.406620,0.083123
605.726080,0.085258
606.045500,0.083031
606.364880,0.083640
606.684220,0.084809
607.003520,0.084002
607.322780,0.083002
607.642000,0.083860
607.961180,0.081526
608.280320,0.084687
608.599420,0.081402
608.918480,0.085044
609.237500,0.083920
609.556480,0.084344
609.875420,0.086828
610.194320,0.085917
610.513180,0.086416
610.832000,0.082787
611.150780,0.083809
611.469520,0.082655
611.788220,0.082830
612.106880,0.085042
612.425500,0.083130
612.744080,0.084334
613.062620,0.083180
613.381120,0.085009
613.699580,0.086143
614.018000,0.085688
614.336380,0.084207
614.654720,0.081240
614.973020,0.082382
615.291280,0.085528
615.609500,0.082726
615.927680,0.087145
616.245820,0.085652
616.563920,0.084240
616.881980,0.082944
617.200000,0.086470
617.517980,0.084319
617.835920,0.080770
618.153820,0.082064
618.471680,0.084651
618.789500,0.083071
619.107280,0.084820
619.425020,0.083730
619.742720,0.080665
620.060380,0.085240
620.378000,0.084330
620.695580,0.084291
621.013120,0.080630
621.330620,0.081581
621.648080,0.085174
621.965500,0.085006
622.282880,0.082913
622.600220,0.083386
622.917520,0.084121
623.234780,0.083253
623.552000,0.084023
623.869180,0.084778
624.186320,0.081821
624.503420,0.083386
624.820480,0.083255
625.137500,0.087149
625.454480,0.083151
625.771420,0.083859
626.088320,0.085120
626.405180,0.081829
626.722000,0.083124
627.038780,0.083020
627.355520,0.083437
627.672220,0.085848
627.988880,0.083670
628.305500,0.082580
628.622080,0.084263
628.938620,0.084404
629.255120,0.084319
629.571580,0.084585
629.888000,0.082847
630.204380,0.082541
630.520720,0.078915
630.837020,0.083256
631.153280,0.081235
631.469500,0.085203
631.785680,0.084991
632.101820,0.086550
632.417920,0.083756
632.733980,0.080732
633.050000,0.087022
633.365980,0.086248
633.681920,0.084427
633.997820,0.083383
634.313680,0.081687
634.629500,0.083751
634.945280,0.083871
635.261020,0.087467
635.576720,0.082795
635.892380,0.079001
636.208000,0.085706
636.523580,0.086817
636.839120,0.082224
637.154620,0.084638
637.470080,0.084075
637.785500,0.084701
638.100880,0.083116
638.416220,0.084268
638.731520,0.082808
639.046780,0.080687
639.362000,0.080849
639.677180,0.086808
639.992320,0.082041
640.307420,0.082607
640.622480,0.083170
640.937500,0.082663
641.252480,0.082379
641.567420,0.082410
641.882320,0.081849
642.197180,0.084503
642.512000,0.083403
642.826780,0.081831
643.141520,0.084468
643.456220,0.082457
643.770880,0.082919
644.085500,0.083566
644.400080,0.081742
644.714620,0.081940
645.029120,0.084983
645.343580,0.082008
645.658000,0.083819
645.972380,0.082488
646.286720,0.083129
646.601020,0.084694
646.915280,0.085824
647.229500,0.082143
647.543680,0.082850
647.857820,0.082576
648.171920,0.084645
648.485980,0.081118
648.800000,0.082392
649.113980,0.082594
649.427920,0.085992
649.741820,0.082715
650.055680,0.082008
650.369500,0.084361
650.683280,0.082408
650.997020,0.082783
651.310720,0.084480
651.624380,0.082418
651.938000,0.082548
652.251580,0.084052
652.565120,0.078256
652.878620,0.082770
653.192080,0.083989
653.505500,0.080505
653.818880,0.085584
654.132220,0.085731
654.445520,0.081679
654.758780,0.082153
655.072000,0.081375
655.385180,0.079601
655.698320,0.083167
656.011420,0.080252
656.324480,0.080734
656.637500,0.080243
656.950480,0.080740
657.263420,0.082176
657.576320,0.079454
657.889180,0.083751
658.202000,0.081824
658.514780,0.083656
658.827520,0.080732
659.140220,0.081211
659.452880,0.082150
659.765500,0.082480
660.078080,0.077942
660.390620,0.079438
660.703120,0.084937
661.015580,0.084356
661.328000,0.082179
661.640380,0.083877
661.952720,0.082217
662.265020,0.080970
662.577280,0.082379
662.889500,0.079470
663.201680,0.083918
663.513820,0.079447
663.825920,0.083573
664.137980,0.084680
664.450000,0.081202
664.761980,0.080851
665.073920,0.081467
665.385820,0.082134
665.697680,0.078017
666.009500,0.082807
666.321280,0.083499
666.633020,0.082779
666.944720,0.081227
667.256380,0.081763
667.568000,0.082201
667.879580,0.084014
668.191120,0.079327
668.502620,0.078740
668.814080,0.081754
669.125500,0.079371
669.436880,0.083333
669.748220,0.083074
670.059520,0.084734
670.370780,0.082463
670.682000,0.080354
670.993180,0.083157
671.304320,0.081224
671.615420,0.078835
671.926480,0.082328
672.237500,0.077528
672.548480,0.082328
672.859420,0.083274
673.170320,0.083787
673.481180,0.081825
673.792000,0.081861
674.102780,0.083662
674.413520,0.080933
674.724220,0.076951
675.034880,0.084708
675.345500,0.082057
675.656080,0.085662
675.966620,0.081484
676.277120,0.080190
676.587580,0.078424
676.898000,0.079134
677.208380,0.077634
677.518720,0.082057
677.829020,0.079823
678.139280,0.081542
678.449500,0.080951
678.759680,0.082803
679.069820,0.078439
679.379920,0.080724
679.689980,0.079465
680.000000,0.076262
680.309980,0.081663
680.619920,0.079515
680.929820,0.079881
681.239680,0.080502
681.549500,0.081852
681.859280,0.081777
682.169020,0.083924
682.478720,0.085639
682.788380,0.077889
683.098000,0.083022
683.407580,0.081426
683.717120,0.081832
684.026620,0.079066
684.336080,0.077302
684.645500,0.077815
684.954880,0.076691
685.264220,0.084938
685.573520,0.085649
685.882780,0.084388
686.192000,0.081640
686.501180,0.080212
686.810320,0.084935
687.119420,0.082098
687.428480,0.083175
687.737500,0.082502
688.046480,0.078221
688.355420,0.081856
688.664320,0.079954
688.973180,0.081930
689.282000,0.080633
689.590780,0.081672
689.899520,0.082795
690.208220,0.081804
690.516880,0.078656
690.825500,0.080377
691.134080,0.076310
691.442620,0.081174
691.751120,0.078878
692.059580,0.080245
692.368000,0.078758
692.676380,0.083206
692.984720,0.082443
693.293020,0.081307
693.601280,0.079741
693.909500,0.079077
694.217680,0.081112
694.525820,0.084920
694.833920,0.080885
695.141980,0.083687
695.450000,0.077863
695.757980,0.079450
696.065920,0.080000
696.373820,0.080831
696.681680,0.080169
696.989500,0.082594
697.297280,0.083236
697.605020,0.080952
697.912720,0.080707
698.220380,0.078709
698.528000,0.085839
698.835580,0.082971
699.143120,0.080670
699.450620,0.080350
699.758080,0.080000
700.065500,0.080607
700.372880,0.080800
700.680220,0.080973
700.987520,0.081746
701.294780,0.082320
701.602000,0.080032
701.909180,0.079889
702.216320,0.080172
702.523420,0.082084
702.830480,0.078416
703.137500,0.079891
703.444480,0.084813
703.751420,0.077712
704.058320,0.079145
704.365180,0.080047
704.672000,0.084752
704.978780,0.079204
705.285520,0.076291
705.592220,0.081176
705.898880,0.079590
706.205500,0.081768
706.512080,0.078594
706.818620,0.081656
707.125120,0.078077
707.431580,0.081282
707.738000,0.080859
708.044380,0.077190
708.350720,0.082155
708.657020,0.087534
708.963280,0.081522
709.269500,0.081409
709.575680,0.080943
709.881820,0.080582
710.187920,0.080545
710.493980,0.077192
710.800000,0.080854
711.105980,0.075301
711.411920,0.078045
711.717820,0.081871
712.023680,0.080062
712.329500,0.077287
712.635280,0.082171
712.941020,0.079242
713.246720,0.077075
713.552380,0.080063
713.858000,0.082775
714.163580,0.080505
714.469120,0.078546
714.774620,0.079353
715.080080,0.081665
715.385500,0.079137
715.690880,0.079684
715.996220,0.080428
716.301520,0.079051
716.606780,0.081761
716.912000,0.081179
717.217180,0.076616
717.522320,0.078330
717.827420,0.078926
718.132480,0.075472
718.437500,0.081125
718.742480,0.079435
719.047420,0.078479
719.352320,0.080531
719.657180,0.084219
719.962000,0.079818
720.266780,0.083506
720.571520,0.077465
720.876220,0.078151
721.180880,0.080268
721.485500,0.075219
721.790080,0.078132
722.094620,0.081475
722.399120,0.080569
722.703580,0.075011
723.008000,0.078482
723.312380,0.080930
723.616720,0.076923
723.921020,0.080121
724.225280,0.078534
724.529500,0.077496
724.833680,0.083630
725.137820,0.077093
725.441920,0.077575
725.745980,0.080089
726.050000,0.080289
726.353980,0.077512
726.657920,0.080072
726.961820,0.082192
727.265680,0.085067
727.569500,0.079525
727.873280,0.078060
728.177020,0.084754
728.480720,0.082407
728.784380,0.082198
729.088000,0.081959
729.391580,0.078636
729.695120,0.082534
729.998620,0.078872
730.302080,0.079769
730.605500,0.074236
730.908880,0.075453
731.212220,0.077865
731.515520,0.078986
731.818780,0.083010
732.122000,0.077756
732.425180,0.080828
732.728320,0.076351
733.031420,0.076190
733.334480,0.077041
733.637500,0.075101
733.940480,0.079324
734.243420,0.082569
734.546320,0.079357
734.849180,0.081095
735.152000,0.080394
735.454780,0.077996
735.757520,0.080611
736.060220,0.075303
736.362880,0.078782
736.665500,0.075196
736.968080,0.074154
737.270620,0.083832
737.573120,0.083515
737.875580,0.083013
738.178000,0.072401
738.480380,0.077297
738.782720,0.080153
739.085020,0.078194
739.387280,0.079823
739.689500,0.082673
739.991680,0.083661
740.293820,0.080155
740.595920,0.081803
740.897980,0.080745
741.200000,0.081884
741.501980,0.083668
741.803920,0.078266
742.105820,0.082910
742.407680,0.078043
742.709500,0.077841
743.011280,0.076202
743.313020,0.073623
743.614720,0.079512
743.916380,0.077326
744.218000,0.085322
744.519580,0.082126
744.821120,0.080240
745.122620,0.081486
745.424080,0.077524
745.725500,0.077852
746.026880,0.080049
746.328220,0.081381
746.629520,0.080674
746.930780,0.077819
747.232000,0.077866
747.533180,0.076876
747.834320,0.080341
748.135420,0.079553
748.436480,0.077979
748.737500,0.083385
749.038480,0.077581
749.339420,0.080274
749.640320,0.079824
749.941180,0.078076
750.242000,0.079146
750.542780,0.083747
750.843520,0.081358
751.144220,0.077564
751.444880,0.081167
751.745500,0.077922
752.046080,0.081462
752.346620,0.078608
752.647120,0.075114
752.947580,0.081501
753.248000,0.082527
753.548380,0.076773
753.848720,0.083709
754.149020,0.075435
754.449280,0.084045
754.749500,0.074983
755.049680,0.076667
755.349820,0.078719
755.649920,0.076008
755.949980,0.080956
756.250000,0.075608
756.549980,0.079208
756.849920,0.080218
757.149820,0.071191
757.449680,0.083168
757.749500,0.077710
758.049280,0.080546
758.349020,0.077886
758.648720,0.079365
758.948380,0.079725
759.248000,0.080863
759.547580,0.078682
759.847120,0.078567
760.146620,0.081191
760.446080,0.077285
760.745500,0.079720
761.044880,0.078835
761.344220,0.078403
761.643520,0.075565
761.942780,0.076277
762.242000,0.077086
762.541180,0.078873
762.840320,0.077949
763.139420,0.074543
763.438480,0.076555
763.737500,0.073742
764.036480,0.081761
764.335420,0.076923
764.634320,0.081774
764.933180,0.082877
765.232000,0.079112
765.530780,0.078596
765.829520,0.079720
766.128220,0.081420
766.426880,0.083866
766.725500,0.079507
767.024080,0.076818
767.322620,0.077455
767.621120,0.081301
767.919580,0.069625
768.218000,0.077291
768.516380,0.084517
768.814720,0.069959
769.113020,0.080634
769.411280,0.080110
769.709500,0.076455
770.007680,0.073620
770.305820,0.079784
770.603920,0.072102
770.901980,0.077186
771.200000,0.078804
771.497980,0.080429
771.795920,0.077592
772.093820,0.078209
772.391680,0.077126
772.689500,0.075676
772.987280,0.072054
773.285020,0.077239
773.582720,0.076351
773.880380,0.073439
774.178000,0.081800
774.475580,0.081045
774.773120,0.079652
775.070620,0.083164
775.368080,0.079492
775.665500,0.073875
775.962880,0.080053
776.260220,0.078062
776.557520,0.079386
776.854780,0.075727
777.152000,0.074934
777.449180,0.082266
777.746320,0.075269
778.043420,0.084584
778.340480,0.077131
778.637500,0.077755
778.934480,0.075992
779.231420,0.072592
779.528320,0.078824
779.825180,0.075099
780.122000,0.081009
780.418780,0.078659
780.715520,0.080483
781.012220,0.080137
781.308880,0.079784
781.605500,0.079452
781.902080,0.074606
782.198620,0.080656
782.495120,0.079561
782.791580,0.082531
783.088000,0.077295
783.384380,0.083906
783.680720,0.077975
783.977020,0.078458
784.273280,0.083916
784.569500,0.073375
784.865680,0.079972
785.161820,0.079861
785.457920,0.074844
785.753980,0.080949
786.050000,0.075276
786.345980,0.078472
786.641920,0.080500
786.937820,0.085470
787.233680,0.084203
787.529500,0.077670
787.825280,0.077195
788.121020,0.075071
788.416720,0.076923
788.712380,0.079690
789.008000,0.076487
789.303580,0.076325
789.599120,0.078545
789.894620,0.076534
790.190080,0.073241
790.485500,0.077754
790.780880,0.074552
791.076220,0.082973
791.371520,0.079884
791.666780,0.077091
791.962000,0.077149
792.257180,0.082723
792.552320,0.080493
792.847420,0.083697
793.142480,0.077656
793.437500,0.073806
793.732480,0.075347
794.027420,0.075668
794.322320,0.077554
794.617180,0.075780
794.912000,0.069094
795.206780,0.081283
795.501520,0.076046
795.796220,0.075556
796.090880,0.075358
796.385500,0.073463
796.680080,0.074046
796.974620,0.080838
797.269120,0.078728
797.563580,0.082443
797.858000,0.078208
798.152380,0.075793
798.446720,0.079231
798.741020,0.074730
799.035280,0.085404
799.329500,0.080831
799.623680,0.075969
