399.985280,0.094595
400.329500,0.081081
400.673680,0.025316
401.017820,0.088235
401.361920,0.045455
401.705980,0.097561
402.050000,0.012987
402.393980,0.152941
402.737920,0.112360
403.081820,0.123711
403.425680,0.116279
403.769500,0.052083
404.113280,0.091954
404.457020,0.067416
404.800720,0.032609
405.144380,0.141414
405.488000,0.010753
405.831580,0.123711
406.175120,0.063830
406.518620,0.110000
406.862080,0.092784
407.205500,0.072917
407.548880,0.071429
407.892220,0.068627
408.235520,0.063830
408.578780,0.123810
408.922000,0.086538
409.265180,0.151515
409.608320,0.101010
409.951420,0.103093
410.294480,0.107843
410.637500,0.076087
410.980480,0.098039
411.323420,0.102041
411.666320,0.119266
412.009180,0.136364
412.352000,0.059406
412.694780,0.100917
413.037520,0.073394
413.380220,0.108108
413.722880,0.044643
414.065500,0.117117
414.408080,0.088496
414.750620,0.079646
415.093120,0.024793
415.435580,0.126050
415.778000,0.098485
416.120380,0.025210
416.462720,0.055556
416.805020,0.090226
417.147280,0.097015
417.489500,0.128571
417.831680,0.095890
418.173820,0.070922
418.515920,0.104895
418.857980,0.075949
419.200000,0.076923
419.541980,0.094675
419.883920,0.056180
420.225820,0.092486
420.567680,0.106145
420.909500,0.092896
421.251280,0.098958
421.593020,0.071429
421.934720,0.075758
422.276380,0.076923
422.618000,0.093137
422.959580,0.107843
423.301120,0.095890
423.642620,0.060870
423.984080,0.065116
424.325500,0.080717
424.666880,0.081897
425.008220,0.067227
425.349520,0.093220
425.690780,0.088462
426.032000,0.078431
426.373180,0.078838
426.714320,0.105469
427.055420,0.092664
427.396480,0.104869
427.737500,0.079051
428.078480,0.090909
428.419420,0.088353
428.760320,0.068966
429.101180,0.098425
429.442000,0.111111
429.782780,0.092308
430.123520,0.078431
430.464220,0.084871
430.804880,0.095785
431.145500,0.065455
431.486080,0.082397
431.826620,0.085271
432.167120,0.080882
432.507580,0.094203
432.848000,0.082734
433.188380,0.079422
433.528720,0.071698
433.869020,0.092857
434.209280,0.070175
434.549500,0.101045
434.889680,0.097643
435.229820,0.092150
435.569920,0.058824
435.909980,0.080906
436.250000,0.105085
436.589980,0.092879
436.929920,0.114286
437.269820,0.075235
437.609680,0.091716
437.949500,0.093373
438.289280,0.096317
438.629020,0.104651
438.968720,0.084302
439.308380,0.073171
439.648000,0.090411
439.987580,0.105820
440.327120,0.085333
440.666620,0.088312
441.006080,0.076726
441.345500,0.081081
441.684880,0.074163
442.024220,0.069479
442.363520,0.078571
442.702780,0.081818
443.042000,0.079295
443.381180,0.088362
443.720320,0.101512
444.059420,0.075630
444.398480,0.081590
444.737500,0.084016
445.076480,0.091270
445.415420,0.069860
445.754320,0.076923
446.093180,0.088073
446.432000,0.088346
446.770780,0.085389
447.109520,0.093750
447.448220,0.094812
447.786880,0.100179
448.125500,0.084483
448.464080,0.092857
448.802620,0.090426
449.141120,0.093426
449.479580,0.087413
449.818000,0.089501
450.156380,0.091973
450.494720,0.084298
450.833020,0.090909
451.171280,0.080479
451.509500,0.090592
451.847680,0.079258
452.185820,0.082616
452.523920,0.084192
452.861980,0.091062
453.200000,0.089701
453.537980,0.089076
453.875920,0.085714
454.213820,0.080479
454.551680,0.087748
454.889500,0.089376
455.227280,0.071174
455.565020,0.092127
455.902720,0.098170
456.240380,0.073211
456.578000,0.085366
456.915580,0.082902
457.253120,0.082237
457.590620,0.095238
457.928080,0.090909
458.265500,0.086149
458.602880,0.090909
458.940220,0.082910
459.277520,0.088000
459.614780,0.093290
459.952000,0.086957
460.289180,0.083861
460.626320,0.085039
460.963420,0.087237
461.300480,0.094801
461.637500,0.083205
461.974480,0.093272
462.311420,0.083458
462.648320,0.084919
462.985180,0.086083
463.322000,0.084821
463.658780,0.081492
463.995520,0.078404
464.332220,0.080332
464.668880,0.081989
465.005500,0.081769
465.342080,0.083227
465.678620,0.083641
466.015120,0.078913
466.351580,0.093552
466.688000,0.088916
467.024380,0.085055
467.360720,0.084091
467.697020,0.083144
468.033280,0.087778
468.369500,0.084989
468.705680,0.093574
469.041820,0.085417
469.377920,0.090022
469.713980,0.083419
470.050000,0.095652
470.385980,0.086106
470.721920,0.082272
471.057820,0.086745
471.393680,0.089804
471.729500,0.081557
472.065280,0.091234
472.401020,0.082447
472.736720,0.083770
473.072380,0.083483
473.408000,0.083551
473.743580,0.081315
474.079120,0.086994
474.414620,0.083121
474.750080,0.086249
475.085500,0.084704
475.420880,0.085762
475.756220,0.080131
476.091520,0.082694
476.426780,0.078479
476.762000,0.079646
477.097180,0.084000
477.432320,0.086430
477.767420,0.088235
478.102480,0.085039
478.437500,0.079639
478.772480,0.081954
479.107420,0.079740
479.442320,0.088729
479.777180,0.084328
480.112000,0.084746
480.446780,0.077942
480.781520,0.083736
481.116220,0.084074
481.450880,0.076503
481.785500,0.087816
482.120080,0.088558
482.454620,0.088578
482.789120,0.088376
483.123580,0.087227
483.458000,0.084652
483.792380,0.079073
484.126720,0.083398
484.461020,0.087432
484.795280,0.084811
485.129500,0.088075
485.463680,0.074419
485.797820,0.081649
486.131920,0.081102
486.465980,0.086486
486.800000,0.083206
487.133980,0.080060
487.467920,0.087223
487.801820,0.082380
488.135680,0.086429
488.469500,0.080938
488.803280,0.085438
489.137020,0.083516
489.470720,0.087537
489.804380,0.086860
490.138000,0.084570
490.471580,0.084009
490.805120,0.086490
491.138620,0.084577
491.472080,0.088339
491.805500,0.086471
492.138880,0.080612
492.472220,0.087197
492.805520,0.082402
493.138780,0.087526
493.472000,0.084950
493.805180,0.084584
494.138320,0.083389
494.471420,0.083333
494.804480,0.086028
495.137500,0.088575
495.470480,0.086679
495.803420,0.083753
496.136320,0.088346
496.469180,0.082259
496.802000,0.084963
497.134780,0.083687
497.467520,0.088685
497.800220,0.083726
498.132880,0.086420
498.465500,0.084589
498.798080,0.081621
499.130620,0.085907
499.463120,0.087030
499.795580,0.083058
500.128000,0.084469
500.460380,0.082347
500.792720,0.080064
501.125020,0.087756
501.457280,0.084073
501.789500,0.084711
502.121680,0.083463
502.453820,0.081081
502.785920,0.083042
503.117980,0.084396
503.450000,0.090909
503.781980,0.087195
504.113920,0.078710
504.445820,0.084103
504.777680,0.080471
505.109500,0.085096
505.441280,0.084608
505.773020,0.079380
506.104720,0.081959
506.436380,0.083767
506.768000,0.086529
507.099580,0.080549
507.431120,0.081967
507.762620,0.085526
508.094080,0.083865
508.425500,0.084034
508.756880,0.081847
509.088220,0.086937
509.419520,0.083799
509.750780,0.082474
510.082000,0.081157
510.413180,0.082450
510.744320,0.084215
511.075420,0.084326
511.406480,0.083686
511.737500,0.081944
512.068480,0.086466
512.399420,0.084038
512.730320,0.079446
513.061180,0.079924
513.392000,0.081401
513.722780,0.087416
514.053520,0.081457
514.384220,0.081827
514.714880,0.083772
515.045500,0.080939
515.376080,0.081356
515.706620,0.084267
516.037120,0.081373
516.367580,0.080335
516.698000,0.079412
517.028380,0.078947
517.358720,0.082469
517.689020,0.084075
518.019280,0.084295
518.349500,0.085656
518.679680,0.083796
519.009820,0.078947
519.339920,0.088176
519.669980,0.080362
520.000000,0.080998
520.329980,0.079834
520.659920,0.083333
520.989820,0.087203
521.319680,0.080247
521.649500,0.082262
521.979280,0.080376
522.309020,0.078320
522.638720,0.076805
522.968380,0.079111
523.298000,0.078810
523.627580,0.082256
523.957120,0.083117
524.286620,0.082335
524.616080,0.084281
524.945500,0.085271
525.274880,0.083633
525.604220,0.084369
525.933520,0.087002
526.262780,0.077040
526.592000,0.082699
526.921180,0.085322
527.250320,0.083714
527.579420,0.084891
527.908480,0.082718
528.237500,0.083913
528.566480,0.084830
528.895420,0.083785
529.224320,0.081724
529.553180,0.084819
529.882000,0.089051
530.210780,0.078185
530.539520,0.081016
530.868220,0.087123
531.196880,0.082179
531.525500,0.087167
531.854080,0.081614
532.182620,0.085941
532.511120,0.082599
532.839580,0.086661
533.168000,0.087511
533.496380,0.087671
533.824720,0.086586
534.153020,0.084262
534.481280,0.086784
534.809500,0.082674
535.137680,0.083767
535.465820,0.082474
535.793920,0.085025
536.121980,0.085606
536.450000,0.082452
536.777980,0.085882
537.105920,0.082607
537.433820,0.083879
537.761680,0.086531
538.089500,0.080939
538.417280,0.085555
538.745020,0.084390
539.072720,0.078485
539.400380,0.085082
539.728000,0.084512
540.055580,0.082772
540.383120,0.085257
540.710620,0.083333
541.038080,0.082626
541.365500,0.084926
541.692880,0.084302
542.020220,0.081684
542.347520,0.082197
542.674780,0.083275
543.002000,0.083975
543.329180,0.085233
543.656320,0.085443
543.983420,0.081368
544.310480,0.081210
544.637500,0.084272
544.964480,0.083109
545.291420,0.083416
545.618320,0.082669
545.945180,0.082399
546.272000,0.080275
546.598780,0.081940
546.925520,0.083745
547.252220,0.079234
547.578880,0.084718
547.905500,0.082680
548.232080,0.082196
548.558620,0.083306
548.885120,0.083415
549.211580,0.083253
549.538000,0.084306
549.864380,0.082315
550.190720,0.080723
550.517020,0.086375
550.843280,0.085342
551.169500,0.081107
551.495680,0.082129
551.821820,0.084912
552.147920,0.081327
552.473980,0.083964
552.800000,0.082734
553.125980,0.082187
553.451920,0.083278
553.777820,0.083611
554.103680,0.080890
554.429500,0.075996
554.755280,0.083445
555.081020,0.082553
555.406720,0.083644
555.732380,0.082345
556.058000,0.087237
556.383580,0.081137
556.709120,0.085114
557.034620,0.079917
557.360080,0.083592
557.685500,0.082296
558.010880,0.082496
558.336220,0.078735
558.661520,0.081177
558.986780,0.082211
559.312000,0.085114
559.637180,0.081508
559.962320,0.083660
560.287420,0.082863
560.612480,0.081091
560.937500,0.083333
561.262480,0.084677
561.587420,0.080885
561.912320,0.079587
562.237180,0.082902
562.562000,0.082679
562.886780,0.085470
563.211520,0.081595
563.536220,0.082375
563.860880,0.084496
564.185500,0.080675
564.510080,0.080888
564.834620,0.080015
565.159120,0.081579
565.483580,0.086279
565.808000,0.081347
566.132380,0.081686
566.456720,0.084656
566.781020,0.081020
567.105280,0.081285
567.429500,0.080046
567.753680,0.086690
568.077820,0.084654
568.401920,0.084798
568.725980,0.087666
569.050000,0.084030
569.373980,0.083365
569.697920,0.084187
570.021820,0.084270
570.345680,0.083429
570.669500,0.079741
570.993280,0.085271
571.317020,0.081111
571.640720,0.081512
571.964380,0.082405
572.288000,0.083086
572.611580,0.084613
572.935120,0.085672
573.258620,0.081900
573.582080,0.082340
573.905500,0.079672
574.228880,0.080921
574.552220,0.082814
574.875520,0.081906
575.198780,0.084930
575.522000,0.082478
575.845180,0.079513
576.168320,0.083004
576.491420,0.084666
576.814480,0.082821
577.137500,0.079726
577.460480,0.083726
577.783420,0.081458
578.106320,0.080128
578.429180,0.082715
578.752000,0.083710
579.074780,0.082266
579.397520,0.082957
579.720220,0.081403
580.042880,0.080938
580.365500,0.081403
580.688080,0.084125
581.010620,0.082011
581.333120,0.082832
581.655580,0.080919
581.978000,0.082142
582.300380,0.080169
582.622720,0.084707
582.945020,0.083225
583.267280,0.083360
583.589500,0.080899
583.911680,0.080343
584.233820,0.084356
584.555920,0.085408
584.877980,0.079460
585.200000,0.078883
585.521980,0.082793
585.843920,0.081147
586.165820,0.081658
586.487680,0.081553
586.809500,0.080108
587.131280,0.083703
587.453020,0.081250
587.774720,0.081609
588.096380,0.084889
588.418000,0.082529
588.739580,0.082782
589.061120,0.086544
589.382620,0.082235
589.704080,0.086396
590.025500,0.079909
590.346880,0.082350
590.668220,0.084570
590.989520,0.082085
591.310780,0.083402
591.632000,0.080601
591.953180,0.080542
592.274320,0.080262
592.595420,0.079741
592.916480,0.081228
593.237500,0.082996
593.558480,0.082324
593.879420,0.083626
594.200320,0.082239
594.521180,0.082072
594.842000,0.085975
595.162780,0.083333
595.483520,0.082957
595.804220,0.084049
596.124880,0.085798
596.445500,0.081216
596.766080,0.082818
597.086620,0.081741
597.407120,0.080569
597.727580,0.083002
598.048000,0.083311
598.368380,0.083377
598.688720,0.082045
599.009020,0.080945
599.329280,0.084087
599.649500,0.081881
599.969680,0.079327
600.289820,0.083868
600.609920,0.081485
600.929980,0.081507
601.250000,0.081081
601.569980,0.082906
601.889920,0.081262
602.209820,0.080357
602.529680,0.081846
602.849500,0.081560
603.169280,0.082943
603.489020,0.083587
603.808720,0.081459
604.128380,0.080850
604.448000,0.081768
604.767580,0.082961
605.087120,0.081440
605.406620,0.084243
605.726080,0.085828
606.045500,0.081917
606.364880,0.079955
606.684220,0.081668
607.003520,0.081422
607.322780,0.081012
607.642000,0.083573
607.961180,0.080370
608.280320,0.081206
608.599420,0.080823
608.918480,0.081818
609.237500,0.083627
609.556480,0.082273
609.875420,0.081217
610.194320,0.082964
610.513180,0.085528
610.832000,0.080703
611.150780,0.082007
611.469520,0.080845
611.788220,0.081318
612.106880,0.082931
612.425500,0.082217
612.744080,0.081564
613.062620,0.080122
613.381120,0.077392
613.699580,0.080932
614.018000,0.081081
614.336380,0.080814
614.654720,0.080930
614.973020,0.081765
615.291280,0.081500
615.609500,0.079556
615.927680,0.081273
616.245820,0.079777
616.563920,0.081442
616.881980,0.082008
617.200000,0.084292
617.517980,0.080274
617.835920,0.077664
618.153820,0.079888
618.471680,0.080930
618.789500,0.078666
619.107280,0.084507
619.425020,0.080241
619.742720,0.080665
620.060380,0.079285
620.378000,0.081812
620.695580,0.083972
621.013120,0.079685
621.330620,0.082837
621.648080,0.083912
621.965500,0.084065
622.282880,0.080706
622.600220,0.082754
622.917520,0.078765
623.234780,0.080039
623.552000,0.082113
623.869180,0.080996
624.186320,0.083413
624.503420,0.077429
624.820480,0.082626
625.137500,0.080202
625.454480,0.082526
625.771420,0.080706
626.088320,0.080391
626.405180,0.082763
626.722000,0.083124
627.038780,0.082707
627.355520,0.082812
627.672220,0.079627
627.988880,0.079938
628.305500,0.082269
628.622080,0.081165
628.938620,0.083792
629.255120,0.082763
629.571580,0.082439
629.888000,0.082234
630.204380,0.081006
630.520720,0.081048
630.837020,0.080789
631.153280,0.080935
631.469500,0.080958
631.785680,0.081676
632.101820,0.083534
632.417920,0.080179
632.733980,0.082233
633.050000,0.083384
633.365980,0.084766
633.681920,0.081444
633.997820,0.083981
634.313680,0.080802
634.629500,0.079328
634.945280,0.080938
635.261020,0.081010
635.576720,0.080740
635.892380,0.080453
636.208000,0.082801
636.523580,0.083894
636.839120,0.084250
637.154620,0.083768
637.470080,0.080631
637.785500,0.080305
638.100880,0.077324
638.416220,0.085418
638.731520,0.080516
639.046780,0.081561
639.362000,0.081135
639.677180,0.081953
639.992320,0.082887
640.307420,0.081765
640.622480,0.079810
640.937500,0.081553
641.252480,0.079866
641.567420,0.081841
641.882320,0.078508
642.197180,0.081134
642.512000,0.081164
642.826780,0.081276
643.141520,0.080578
643.456220,0.079690
643.770880,0.083195
644.085500,0.079933
644.400080,0.081180
644.714620,0.081661
645.029120,0.080033
645.343580,0.078442
645.658000,0.079656
645.972380,0.083310
646.286720,0.080131
646.601020,0.084141
646.915280,0.083082
647.229500,0.080495
647.543680,0.082022
647.857820,0.078448
648.171920,0.080846
648.485980,0.079200
648.800000,0.079085
649.113980,0.078714
649.427920,0.081553
649.741820,0.081341
650.055680,0.084476
650.369500,0.083800
650.683280,0.081576
650.997020,0.081958
651.310720,0.082003
651.624380,0.079670
651.938000,0.080609
652.251580,0.080991
652.565120,0.079094
652.878620,0.081926
653.192080,0.080899
653.505500,0.079102
653.818880,0.078476
654.132220,0.079465
654.445520,0.080545
654.758780,0.078754
655.072000,0.083954
655.385180,0.080171
655.698320,0.080880
656.011420,0.080825
656.324480,0.082192
656.637500,0.079954
656.950480,0.080446
657.263420,0.078037
657.576320,0.083012
657.889180,0.081982
658.202000,0.078502
658.514780,0.080083
658.827520,0.079532
659.140220,0.079413
659.452880,0.081848
659.765500,0.079771
660.078080,0.078243
660.390620,0.080660
660.703120,0.080354
661.015580,0.077914
661.328000,0.080919
661.640380,0.082945
661.952720,0.081906
662.265020,0.080340
662.577280,0.081107
662.889500,0.080101
663.201680,0.082961
663.513820,0.078803
663.825920,0.079411
664.137980,0.081125
664.450000,0.081841
664.761980,0.078232
665.073920,0.078546
665.385820,0.079843
665.697680,0.079669
666.009500,0.079481
666.321280,0.081180
666.633020,0.078790
666.944720,0.078531
667.256380,0.077389
667.568000,0.081182
667.879580,0.081973
668.191120,0.078640
668.502620,0.079767
668.814080,0.080351
669.125500,0.076634
669.436880,0.080221
669.748220,0.079958
670.059520,0.078782
670.370780,0.079332
670.682000,0.080000
670.993180,0.079281
671.304320,0.080169
671.615420,0.079545
671.926480,0.080199
672.237500,0.077885
672.548480,0.077715
672.859420,0.086490
673.170320,0.077621
673.481180,0.077480
673.792000,0.078255
674.102780,0.079354
674.413520,0.077652
674.724220,0.076225
675.034880,0.077374
675.345500,0.076951
675.656080,0.079492
675.966620,0.077846
676.277120,0.080190
676.587580,0.079897
676.898000,0.078014
677.208380,0.075786
677.518720,0.078410
677.829020,0.080931
678.139280,0.077835
678.449500,0.079094
678.759680,0.082053
679.069820,0.077323
679.379920,0.080724
679.689980,0.080208
680.000000,0.078879
680.309980,0.077209
680.619920,0.078001
680.929820,0.081000
681.239680,0.077917
681.549500,0.080741
681.859280,0.079537
682.169020,0.082059
682.478720,0.083022
682.788380,0.078996
683.098000,0.080778
683.407580,0.076173
683.717120,0.076201
684.026620,0.081702
684.336080,0.079576
684.645500,0.077441
684.954880,0.077446
685.264220,0.080408
685.573520,0.080320
685.882780,0.079018
686.192000,0.079759
686.501180,0.079834
686.810320,0.081476
687.119420,0.076777
687.428480,0.078618
687.737500,0.077130
688.046480,0.079371
688.355420,0.079215
688.664320,0.083397
688.973180,0.078101
689.282000,0.081404
689.590780,0.076687
689.899520,0.075579
690.208220,0.080657
690.516880,0.080565
690.825500,0.078491
691.134080,0.079347
691.442620,0.077744
691.751120,0.076981
692.059580,0.081009
692.368000,0.075729
692.676380,0.078244
692.984720,0.078244
693.293020,0.079407
693.601280,0.083174
693.909500,0.079834
694.217680,0.078446
694.525820,0.081493
694.833920,0.077833
695.141980,0.081373
695.450000,0.077863
695.757980,0.079068
696.065920,0.080000
696.373820,0.078522
696.681680,0.079018
696.989500,0.079120
697.297280,0.077013
697.605020,0.082143
697.912720,0.080707
698.220380,0.076348
698.528000,0.081487
698.835580,0.077835
699.143120,0.079111
699.450620,0.077963
699.758080,0.076863
700.065500,0.080607
700.372880,0.078800
700.680220,0.077383
700.987520,0.077381
701.294780,0.079886
701.602000,0.076466
701.909180,0.079094
702.216320,0.076652
702.523420,0.080900
702.830480,0.079604
703.137500,0.079501
703.444480,0.083235
703.751420,0.078107
704.058320,0.077958
704.365180,0.078864
704.672000,0.079604
704.978780,0.079204
705.285520,0.077465
705.592220,0.078431
705.898880,0.077226
706.205500,0.076291
706.512080,0.079384
706.818620,0.078173
707.125120,0.081154
707.431580,0.076592
707.738000,0.078516
708.044380,0.077190
708.350720,0.081773
708.657020,0.078546
708.963280,0.078028
709.269500,0.082192
709.575680,0.079764
709.881820,0.080582
710.187920,0.078210
710.493980,0.079519
710.800000,0.077040
711.105980,0.076054
711.411920,0.077651
711.717820,0.077583
712.023680,0.078896
712.329500,0.078470
712.635280,0.079845
712.941020,0.080789
713.246720,0.075494
713.552380,0.079278
713.858000,0.080016
714.163580,0.078532
714.469120,0.076202
714.774620,0.073431
715.080080,0.077739
715.385500,0.078337
715.690880,0.075345
715.996220,0.080032
716.301520,0.076680
716.606780,0.079796
716.912000,0.079564
717.217180,0.077414
717.522320,0.075944
717.827420,0.078926
718.132480,0.076275
718.437500,0.076641
718.742480,0.077419
719.047420,0.074434
719.352320,0.082192
719.657180,0.078496
719.962000,0.076923
720.266780,0.078521
720.571520,0.074151
720.876220,0.078151
721.180880,0.075669
721.485500,0.078980
721.790080,0.077282
722.094620,0.079331
722.399120,0.078414
722.703580,0.075011
723.008000,0.077188
723.312380,0.081360
723.616720,0.074798
723.921020,0.078822
724.225280,0.078098
724.529500,0.081436
724.833680,0.081851
725.137820,0.074449
725.441920,0.076683
725.745980,0.081879
726.050000,0.078033
726.353980,0.074358
726.657920,0.077823
726.961820,0.078539
727.265680,0.077670
727.569500,0.078611
727.873280,0.079446
728.177020,0.078766
728.480720,0.075463
728.784380,0.078910
729.088000,0.076307
729.391580,0.074372
729.695120,0.078215
729.998620,0.082218
730.302080,0.080730
730.605500,0.078117
730.908880,0.077413
731.212220,0.077375
731.515520,0.073623
731.818780,0.077670
732.122000,0.076280
732.425180,0.076885
732.728320,0.076847
733.031420,0.075188
733.334480,0.076020
733.637500,0.075101
733.940480,0.080348
734.243420,0.081040
734.546320,0.079357
734.849180,0.075413
735.152000,0.077282
735.454780,0.072314
735.757520,0.077977
736.060220,0.079516
736.362880,0.077731
736.665500,0.073107
736.968080,0.075228
737.270620,0.080022
737.573120,0.075873
737.875580,0.080264
738.178000,0.076756
738.480380,0.077297
738.782720,0.073064
739.085020,0.074890
739.387280,0.077051
739.689500,0.077576
739.991680,0.078608
740.293820,0.080155
740.595920,0.076795
740.897980,0.078487
741.200000,0.079080
741.501980,0.081375
741.803920,0.072072
742.105820,0.077834
742.407680,0.079208
742.709500,0.074432
743.011280,0.075615
743.313020,0.077681
743.614720,0.073709
743.916380,0.073837
744.218000,0.078759
744.519580,0.075483
744.821120,0.079641
745.122620,0.076093
745.424080,0.076322
745.725500,0.076645
746.026880,0.081897
746.328220,0.078915
746.629520,0.077664
746.930780,0.078431
747.232000,0.071122
747.533180,0.076876
747.834320,0.079732
748.135420,0.078931
748.436480,0.072988
748.737500,0.077208
749.038480,0.075137
749.339420,0.082763
749.640320,0.080453
749.941180,0.079325
750.242000,0.070352
750.542780,0.077543
750.843520,0.074952
751.144220,0.074359
751.444880,0.080533
751.745500,0.073377
752.046080,0.078897
752.346620,0.074098
752.647120,0.073808
752.947580,0.078266
753.248000,0.083172
753.548380,0.073520
753.848720,0.077914
754.149020,0.074790
754.449280,0.079448
754.749500,0.077638
755.049680,0.078000
755.349820,0.077385
755.649920,0.079974
755.949980,0.076974
756.250000,0.078238
756.549980,0.071287
756.849920,0.077498
757.149820,0.080506
757.449680,0.079868
757.749500,0.078391
758.049280,0.073720
758.349020,0.075800
758.648720,0.082816
758.948380,0.078351
759.248000,0.075472
759.547580,0.075992
759.847120,0.076499
760.146620,0.077131
760.446080,0.080645
760.745500,0.079720
761.044880,0.082386
761.344220,0.081254
761.643520,0.075565
761.942780,0.077677
762.242000,0.082037
762.541180,0.075352
762.840320,0.082865
763.139420,0.072433
763.438480,0.076555
763.737500,0.077188
764.036480,0.080363
764.335420,0.081863
764.634320,0.076230
764.933180,0.080822
765.232000,0.077030
765.530780,0.075789
765.829520,0.077622
766.128220,0.082116
766.426880,0.081023
766.725500,0.076080
767.024080,0.080933
767.322620,0.077455
767.621120,0.077913
767.919580,0.080546
768.218000,0.073187
768.516380,0.075727
768.814720,0.076132
769.113020,0.077877
769.411280,0.075276
769.709500,0.077808
770.007680,0.066803
770.305820,0.079108
770.603920,0.077493
770.901980,0.077186
771.200000,0.073370
771.497980,0.077748
771.795920,0.072910
772.093820,0.076872
772.391680,0.076467
772.689500,0.070946
772.987280,0.077441
773.285020,0.076555
773.582720,0.075676
773.880380,0.074125
774.178000,0.072256
774.475580,0.076356
774.773120,0.072959
775.070620,0.081812
775.368080,0.076820
775.665500,0.071189
775.962880,0.077385
776.260220,0.070659
776.557520,0.076718
776.854780,0.079784
777.152000,0.072281
777.449180,0.073500
777.746320,0.076613
778.043420,0.075716
778.340480,0.079838
778.637500,0.078431
778.934480,0.079354
779.231420,0.071235
779.528320,0.074148
779.825180,0.077075
780.122000,0.077025
780.418780,0.076607
780.715520,0.073776
781.012220,0.081507
781.308880,0.079108
781.605500,0.075342
781.902080,0.075291
782.198620,0.082023
782.495120,0.076818
782.791580,0.077717
783.088000,0.076605
783.384380,0.083219
783.680720,0.074555
783.977020,0.072264
784.273280,0.072727
784.569500,0.075472
784.865680,0.084145
785.161820,0.079861
785.457920,0.072765
785.753980,0.078158
786.050000,0.073895
786.345980,0.079861
786.641920,0.075642
786.937820,0.081909
787.233680,0.078636
787.529500,0.079057
787.825280,0.070113
788.121020,0.075779
788.416720,0.075512
788.712380,0.074753
789.008000,0.070822
789.303580,0.074912
789.599120,0.074182
789.894620,0.073646
790.190080,0.071791
790.485500,0.074874
790.780880,0.075269
791.076220,0.072150
791.371520,0.075527
791.666780,0.077091
791.962000,0.075680
792.257180,0.078331
792.552320,0.078318
792.847420,0.082969
793.142480,0.077656
793.437500,0.074530
793.732480,0.071690
794.027420,0.074926
794.322320,0.074571
794.617180,0.075780
794.912000,0.076523
795.206780,0.074571
795.501520,0.077567
795.796220,0.075556
796.090880,0.076112
796.385500,0.074963
796.680080,0.077786
796.974620,0.083832
797.269120,0.079485
797.563580,0.078626
797.858000,0.077449
798.152380,0.078886
798.446720,0.080000
798.741020,0.080123
799.035280,0.075311
799.329500,0.083141
799.623680,0.078295
