399.985280,0.135135
400.329500,0.081081
400.673680,0.037975
401.017820,0.029412
401.361920,0.030303
401.705980,0.048780
402.050000,0.051948
402.393980,0.117647
402.737920,0.112360
403.081820,0.072165
403.425680,0.116279
403.769500,0.000000
404.113280,-0.022989
404.457020,0.101124
404.800720,0.010870
405.144380,0.101010
405.488000,0.064516
405.831580,0.061856
406.175120,0.063830
406.518620,0.090000
406.862080,0.123711
407.205500,0.031250
407.548880,0.102041
407.892220,0.078431
408.235520,0.063830
408.578780,0.114286
408.922000,0.115385
409.265180,0.070707
409.608320,0.070707
409.951420,0.103093
410.294480,0.127451
410.637500,0.043478
410.980480,0.078431
411.323420,0.091837
411.666320,0.174312
412.009180,0.090909
412.352000,0.039604
412.694780,0.082569
413.037520,0.027523
413.380220,0.090090
413.722880,0.089286
414.065500,0.063063
414.408080,0.061947
414.750620,0.026549
415.093120,0.066116
415.435580,0.084034
415.778000,0.113636
416.120380,0.050420
416.462720,0.023810
416.805020,0.082707
417.147280,0.044776
417.489500,0.092857
417.831680,0.034247
418.173820,0.035461
418.515920,0.062937
418.857980,0.050633
419.200000,0.070513
419.541980,0.065089
419.883920,0.067416
420.225820,0.057803
420.567680,0.067039
420.909500,0.098361
421.251280,0.052083
421.593020,0.076531
421.934720,0.050505
422.276380,0.071795
422.618000,0.098039
422.959580,0.073529
423.301120,0.077626
423.642620,0.069565
423.984080,0.060465
424.325500,0.076233
424.666880,0.060345
425.008220,0.071429
425.349520,0.072034
425.690780,0.084615
426.032000,0.054902
426.373180,0.053942
426.714320,0.078125
427.055420,0.081081
427.396480,0.086142
427.737500,0.063241
428.078480,0.055336
428.419420,0.072289
428.760320,0.045977
429.101180,0.090551
429.442000,0.065134
429.782780,0.069231
430.123520,0.054902
430.464220,0.081181
430.804880,0.095785
431.145500,0.043636
431.486080,0.071161
431.826620,0.069767
432.167120,0.066176
432.507580,0.068841
432.848000,0.064748
433.188380,0.057762
433.528720,0.060377
433.869020,0.075000
434.209280,0.052632
434.549500,0.083624
434.889680,0.087542
435.229820,0.081911
435.569920,0.048443
435.909980,0.067961
436.250000,0.084746
436.589980,0.049536
436.929920,0.079365
437.269820,0.075235
437.609680,0.091716
437.949500,0.078313
438.289280,0.062323
438.629020,0.093023
438.968720,0.075581
439.308380,0.081301
439.648000,0.065753
439.987580,0.087302
440.327120,0.074667
440.666620,0.075325
441.006080,0.069054
441.345500,0.068796
441.684880,0.069378
442.024220,0.066998
442.363520,0.071429
442.702780,0.070455
443.042000,0.070485
443.381180,0.060345
443.720320,0.092873
444.059420,0.077731
444.398480,0.058577
444.737500,0.075820
445.076480,0.077381
445.415420,0.079840
445.754320,0.064449
446.093180,0.080734
446.432000,0.073308
446.770780,0.062619
447.109520,0.079044
447.448220,0.069767
447.786880,0.082290
448.125500,0.081034
448.464080,0.071429
448.802620,0.074468
449.141120,0.067474
449.479580,0.073427
449.818000,0.079174
450.156380,0.066890
450.494720,0.079339
450.833020,0.076923
451.171280,0.061644
451.509500,0.078397
451.847680,0.062395
452.185820,0.072289
452.523920,0.077320
452.861980,0.079258
453.200000,0.074751
453.537980,0.070588
453.875920,0.075630
454.213820,0.059932
454.551680,0.074503
454.889500,0.072513
455.227280,0.053381
455.565020,0.077052
455.902720,0.081531
456.240380,0.061564
456.578000,0.080139
456.915580,0.070812
457.253120,0.072368
457.590620,0.077176
457.928080,0.084175
458.265500,0.072635
458.602880,0.073052
458.940220,0.067682
459.277520,0.083200
459.614780,0.068740
459.952000,0.079193
460.289180,0.071203
460.626320,0.067717
460.963420,0.074313
461.300480,0.067278
461.637500,0.078582
461.974480,0.076453
462.311420,0.070045
462.648320,0.076135
462.985180,0.071736
463.322000,0.071429
463.658780,0.067680
463.995520,0.075653
464.332220,0.072022
464.668880,0.076613
465.005500,0.075067
465.342080,0.071703
465.678620,0.081181
466.015120,0.075032
466.351580,0.073325
466.688000,0.077954
467.024380,0.074119
467.360720,0.072727
467.697020,0.074032
468.033280,0.077778
468.369500,0.075055
468.705680,0.073281
469.041820,0.063542
469.377920,0.069414
469.713980,0.073120
470.050000,0.070531
470.385980,0.072407
470.721920,0.065622
471.057820,0.071150
471.393680,0.068288
471.729500,0.065802
472.065280,0.077818
472.401020,0.071809
472.736720,0.073298
473.072380,0.074506
473.408000,0.073107
473.743580,0.073529
474.079120,0.074074
474.414620,0.070399
474.750080,0.071603
475.085500,0.070724
475.420880,0.067444
475.756220,0.074407
476.091520,0.075021
476.426780,0.076052
476.762000,0.065165
477.097180,0.072800
477.432320,0.073506
477.767420,0.072712
478.102480,0.071654
478.437500,0.073892
478.772480,0.070134
479.107420,0.069976
479.442320,0.066347
479.777180,0.075577
480.112000,0.065485
480.446780,0.066251
480.781520,0.070853
481.116220,0.069523
481.450880,0.071038
481.785500,0.075949
482.120080,0.072100
482.454620,0.075369
482.789120,0.071656
483.123580,0.069315
483.458000,0.071203
483.792380,0.070288
484.126720,0.072587
484.461020,0.079625
484.795280,0.072475
485.129500,0.074045
485.463680,0.067442
485.797820,0.074650
486.131920,0.068095
486.465980,0.067954
486.800000,0.070992
487.133980,0.071752
487.467920,0.073451
487.801820,0.073989
488.135680,0.069750
488.469500,0.067322
488.803280,0.077266
489.137020,0.072527
489.470720,0.072700
489.804380,0.074981
490.138000,0.072700
490.471580,0.073692
490.805120,0.072909
491.138620,0.069652
491.472080,0.069965
491.805500,0.076709
492.138880,0.074357
492.472220,0.067128
492.805520,0.067039
493.138780,0.075810
493.472000,0.074247
493.805180,0.072988
494.138320,0.073382
494.471420,0.072917
494.804480,0.071798
495.137500,0.073171
495.470480,0.081581
495.803420,0.074307
496.136320,0.074561
496.469180,0.074893
496.802000,0.070905
497.134780,0.072771
497.467520,0.077064
497.800220,0.072524
498.132880,0.070547
498.465500,0.071263
498.798080,0.069064
499.130620,0.073554
499.463120,0.071308
499.795580,0.072607
500.128000,0.075204
500.460380,0.070506
500.792720,0.075292
501.125020,0.075145
501.457280,0.072063
501.789500,0.079545
502.121680,0.073095
502.453820,0.070882
502.785920,0.068534
503.117980,0.072620
503.450000,0.077850
503.781980,0.070254
504.113920,0.072072
504.445820,0.070491
504.777680,0.067765
505.109500,0.072596
505.441280,0.069312
505.773020,0.071395
506.104720,0.068771
506.436380,0.072409
506.768000,0.074369
507.099580,0.071396
507.431120,0.074005
507.762620,0.070489
508.094080,0.072015
508.425500,0.073763
508.756880,0.069959
509.088220,0.075897
509.419520,0.071229
509.750780,0.071696
510.082000,0.069963
510.413180,0.070474
510.744320,0.071790
511.075420,0.074244
511.406480,0.072402
511.737500,0.069444
512.068480,0.073778
512.399420,0.071831
512.730320,0.068822
513.061180,0.071361
513.392000,0.069096
513.722780,0.071566
514.053520,0.069478
514.384220,0.071361
514.714880,0.075156
515.045500,0.071839
515.376080,0.072155
515.706620,0.071115
516.037120,0.070098
516.367580,0.069492
516.698000,0.069608
517.028380,0.073982
517.358720,0.073086
517.689020,0.075173
518.019280,0.070748
518.349500,0.075013
518.679680,0.072691
519.009820,0.065789
519.339920,0.075150
519.669980,0.070819
520.000000,0.071319
520.329980,0.071540
520.659920,0.073108
520.989820,0.074303
521.319680,0.075103
521.649500,0.070951
521.979280,0.071503
522.309020,0.070021
522.638720,0.068612
522.968380,0.072389
523.298000,0.073591
523.627580,0.071909
523.957120,0.071169
524.286620,0.073997
524.616080,0.071872
524.945500,0.073902
525.274880,0.074397
525.604220,0.072464
525.933520,0.068658
526.262780,0.075013
526.592000,0.073059
526.921180,0.079736
527.250320,0.074074
527.579420,0.074785
527.908480,0.076317
528.237500,0.077954
528.566480,0.077345
528.895420,0.073928
529.224320,0.072313
529.553180,0.071807
529.882000,0.077372
530.210780,0.071911
530.539520,0.071908
530.868220,0.073719
531.196880,0.071190
531.525500,0.076513
531.854080,0.072233
532.182620,0.071462
532.511120,0.067749
532.839580,0.069873
533.168000,0.069736
533.496380,0.073059
533.824720,0.072678
534.153020,0.069996
534.481280,0.076652
534.809500,0.072559
535.137680,0.074219
535.465820,0.074742
535.793920,0.076988
536.121980,0.073856
536.450000,0.075264
536.777980,0.073733
537.105920,0.073890
537.433820,0.073650
537.761680,0.076735
538.089500,0.072440
538.417280,0.070832
538.745020,0.074089
539.072720,0.074971
539.400380,0.073427
539.728000,0.076099
540.055580,0.071910
540.383120,0.076322
540.710620,0.075893
541.038080,0.073774
541.365500,0.072794
541.692880,0.073038
542.020220,0.075567
542.347520,0.074659
542.674780,0.074806
543.002000,0.068579
543.329180,0.071554
543.656320,0.075246
543.983420,0.072821
544.310480,0.073055
544.637500,0.072330
544.964480,0.072678
545.291420,0.074443
545.618320,0.075033
545.945180,0.074489
546.272000,0.071429
546.598780,0.074402
546.925520,0.073195
547.252220,0.073292
547.578880,0.071685
547.905500,0.074183
548.232080,0.073424
548.558620,0.072242
548.885120,0.073274
549.211580,0.071681
549.538000,0.072309
549.864380,0.070096
550.190720,0.072974
550.517020,0.070078
550.843280,0.074267
551.169500,0.072201
551.495680,0.071288
551.821820,0.071195
552.147920,0.074170
552.473980,0.071781
552.800000,0.071942
553.125980,0.077276
553.451920,0.074983
553.777820,0.073951
554.103680,0.069767
554.429500,0.070974
554.755280,0.072430
555.081020,0.073529
555.406720,0.071114
555.732380,0.071840
556.058000,0.075696
556.383580,0.071551
556.709120,0.073742
557.034620,0.071994
557.360080,0.074266
557.685500,0.072960
558.010880,0.070711
558.336220,0.071002
558.661520,0.075151
558.986780,0.073707
559.312000,0.075855
559.637180,0.071095
559.962320,0.071912
560.287420,0.074048
560.612480,0.071403
560.937500,0.073054
561.262480,0.072214
561.587420,0.075082
561.912320,0.074797
562.237180,0.074759
562.562000,0.073326
562.886780,0.074322
563.211520,0.070417
563.536220,0.073840
563.860880,0.072425
564.185500,0.070919
564.510080,0.075997
564.834620,0.072944
565.159120,0.073308
565.483580,0.070696
565.808000,0.073401
566.132380,0.073107
566.456720,0.074452
566.781020,0.074269
567.105280,0.071456
567.429500,0.073217
567.753680,0.072497
568.077820,0.072671
568.401920,0.073720
568.725980,0.074763
569.050000,0.075665
569.373980,0.076894
569.697920,0.075465
570.021820,0.076030
570.345680,0.073479
570.669500,0.071347
570.993280,0.074197
571.317020,0.074534
571.640720,0.073361
571.964380,0.074239
572.288000,0.073442
572.611580,0.075253
572.935120,0.073700
573.258620,0.075168
573.582080,0.073770
573.905500,0.074832
574.228880,0.074981
574.552220,0.073653
574.875520,0.073716
575.198780,0.071558
575.522000,0.074047
575.845180,0.075215
576.168320,0.073302
576.491420,0.074491
576.814480,0.074141
577.137500,0.076118
577.460480,0.074665
577.783420,0.075741
578.106320,0.076923
578.429180,0.075999
578.752000,0.070511
579.074780,0.072488
579.397520,0.074241
579.720220,0.074968
580.042880,0.073010
580.365500,0.073792
580.688080,0.071574
581.010620,0.072562
581.333120,0.073814
581.655580,0.076590
581.978000,0.073163
582.300380,0.072379
582.622720,0.076467
582.945020,0.078674
583.267280,0.072289
583.589500,0.074799
583.911680,0.072086
584.233820,0.072395
584.555920,0.075953
584.877980,0.072864
585.200000,0.072437
585.521980,0.073525
585.843920,0.072605
586.165820,0.073736
586.487680,0.076136
586.809500,0.074107
587.131280,0.073647
587.453020,0.074405
587.774720,0.073329
588.096380,0.070595
588.418000,0.071700
588.739580,0.074159
589.061120,0.075906
589.382620,0.072493
589.704080,0.073212
590.025500,0.073345
590.346880,0.073918
590.668220,0.075049
590.989520,0.073211
591.310780,0.073460
591.632000,0.074317
591.953180,0.075284
592.274320,0.072891
592.595420,0.073006
592.916480,0.073621
593.237500,0.072757
593.558480,0.072908
593.879420,0.073105
594.200320,0.074471
594.521180,0.077291
594.842000,0.076034
595.162780,0.072382
595.483520,0.070726
595.804220,0.072234
596.124880,0.074607
596.445500,0.070212
596.766080,0.074751
597.086620,0.075637
597.407120,0.076093
597.727580,0.074251
598.048000,0.074054
598.368380,0.074435
598.688720,0.075491
599.009020,0.075637
599.329280,0.073177
599.649500,0.074485
599.969680,0.074252
600.289820,0.073718
600.609920,0.074272
600.929980,0.073490
601.250000,0.071622
601.569980,0.073184
601.889920,0.076450
602.209820,0.073864
602.529680,0.075529
602.849500,0.073104
603.169280,0.074401
603.489020,0.071962
603.808720,0.071860
604.128380,0.075055
604.448000,0.072376
604.767580,0.075140
605.087120,0.073684
605.406620,0.075567
605.726080,0.074993
606.045500,0.071886
606.364880,0.073150
606.684220,0.074814
607.003520,0.072248
607.322780,0.075611
607.642000,0.075531
607.961180,0.071408
608.280320,0.071636
608.599420,0.075319
608.918480,0.074780
609.237500,0.076585
609.556480,0.070435
609.875420,0.074424
610.194320,0.074402
610.513180,0.074282
610.832000,0.075640
611.150780,0.070592
611.469520,0.075113
611.788220,0.071342
612.106880,0.073583
612.425500,0.073691
612.744080,0.070483
613.062620,0.071865
613.381120,0.073736
613.699580,0.073268
614.018000,0.073403
614.336380,0.072795
614.654720,0.072248
614.973020,0.066646
615.291280,0.075302
615.609500,0.074485
615.927680,0.072930
616.245820,0.076067
616.563920,0.071495
616.881980,0.076084
617.200000,0.071851
617.517980,0.073429
617.835920,0.072693
618.153820,0.075536
618.471680,0.072558
618.789500,0.074261
619.107280,0.073239
619.425020,0.072946
619.742720,0.071563
620.060380,0.074271
620.378000,0.073002
620.695580,0.072478
621.013120,0.072441
621.330620,0.075620
621.648080,0.071609
621.965500,0.073714
622.282880,0.074401
622.600220,0.074858
622.917520,0.071834
623.234780,0.074574
623.552000,0.072565
623.869180,0.075008
624.186320,0.073543
624.503420,0.071160
624.820480,0.074144
625.137500,0.074203
625.454480,0.074711
625.771420,0.072825
626.088320,0.074401
626.405180,0.073740
626.722000,0.072146
627.038780,0.071429
627.355520,0.070625
627.672220,0.073406
627.988880,0.073717
628.305500,0.075101
628.622080,0.074349
628.938620,0.072783
629.255120,0.075607
629.571580,0.074471
629.888000,0.072108
630.204380,0.072722
630.520720,0.071298
630.837020,0.073080
631.153280,0.074940
631.469500,0.072165
631.785680,0.072936
632.101820,0.076598
632.417920,0.071535
632.733980,0.070528
633.050000,0.075804
633.365980,0.075578
633.681920,0.076074
633.997820,0.074417
634.313680,0.074314
634.629500,0.072840
634.945280,0.071554
635.261020,0.075726
635.576720,0.071345
635.892380,0.073482
636.208000,0.074956
636.523580,0.075417
636.839120,0.074986
637.154620,0.074783
637.470080,0.072023
637.785500,0.073857
638.100880,0.071822
638.416220,0.075065
638.731520,0.071920
639.046780,0.073988
639.362000,0.072534
639.677180,0.075671
639.992320,0.074711
640.307420,0.075302
640.622480,0.074489
640.937500,0.073509
641.252480,0.072326
641.567420,0.072748
641.882320,0.069599
642.197180,0.074116
642.512000,0.073328
642.826780,0.073232
643.141520,0.074743
643.456220,0.073879
643.770880,0.074627
644.085500,0.074064
644.400080,0.075000
644.714620,0.075808
645.029120,0.071232
645.343580,0.071860
645.658000,0.072162
645.972380,0.073445
646.286720,0.074680
646.601020,0.077221
646.915280,0.073485
647.229500,0.073352
647.543680,0.072356
647.857820,0.074594
648.171920,0.072165
648.485980,0.073719
648.800000,0.070267
649.113980,0.073171
649.427920,0.074619
649.741820,0.071448
650.055680,0.074877
650.369500,0.074552
650.683280,0.073252
650.997020,0.072057
651.310720,0.073198
651.624380,0.071154
651.938000,0.073407
652.251580,0.074589
652.565120,0.071828
652.878620,0.073198
653.192080,0.071629
653.505500,0.069565
653.818880,0.072789
654.132220,0.074623
654.445520,0.073738
654.758780,0.075637
655.072000,0.072206
655.385180,0.071327
655.698320,0.072878
656.011420,0.073087
656.324480,0.070533
656.637500,0.071553
656.950480,0.073106
657.263420,0.072421
657.576320,0.074414
657.889180,0.071365
658.202000,0.073370
658.514780,0.074725
658.827520,0.075630
659.140220,0.073419
659.452880,0.071882
659.765500,0.075557
660.078080,0.071622
660.390620,0.072411
660.703120,0.073633
661.015580,0.072086
661.328000,0.075882
661.640380,0.073315
661.952720,0.073186
662.265020,0.070888
662.577280,0.074746
662.889500,0.070325
663.201680,0.070836
663.513820,0.072371
663.825920,0.071726
664.137980,0.073368
664.450000,0.069693
664.761980,0.072668
665.073920,0.072704
665.385820,0.072971
665.697680,0.073058
666.009500,0.071167
666.321280,0.072233
666.633020,0.071144
666.944720,0.069767
667.256380,0.071332
667.568000,0.071332
667.879580,0.073469
668.191120,0.072459
668.502620,0.072920
668.814080,0.072632
669.125500,0.073212
669.436880,0.070194
669.748220,0.073728
670.059520,0.072829
670.370780,0.075157
670.682000,0.073982
670.993180,0.071882
671.304320,0.072082
671.615420,0.069957
671.926480,0.073456
672.237500,0.069668
672.548480,0.070263
672.859420,0.072909
673.170320,0.073631
673.481180,0.070963
673.792000,0.068518
674.102780,0.072531
674.413520,0.072184
674.724220,0.070054
675.034880,0.073707
675.345500,0.072575
675.656080,0.071143
675.966620,0.074209
676.277120,0.073233
676.587580,0.075479
676.898000,0.074281
677.208380,0.071719
677.518720,0.070022
677.829020,0.072432
678.139280,0.067457
678.449500,0.075009
678.759680,0.073436
679.069820,0.071747
679.379920,0.074689
679.689980,0.070182
680.000000,0.071776
680.309980,0.072754
680.619920,0.071185
680.929820,0.071295
681.239680,0.070901
681.549500,0.076667
681.859280,0.074683
682.169020,0.071242
682.478720,0.072924
682.788380,0.070137
683.098000,0.073298
683.407580,0.073546
683.717120,0.074324
684.026620,0.071536
684.336080,0.071618
684.645500,0.067714
684.954880,0.067624
685.264220,0.072480
685.573520,0.074990
685.882780,0.071730
686.192000,0.074116
686.501180,0.071888
686.810320,0.071483
687.119420,0.070696
687.428480,0.069123
687.737500,0.072525
688.046480,0.073236
688.355420,0.075443
688.664320,0.071155
688.973180,0.073890
689.282000,0.074074
689.590780,0.074003
689.899520,0.071401
690.208220,0.074924
690.516880,0.072547
690.825500,0.071321
691.134080,0.070995
691.442620,0.073171
691.751120,0.073189
692.059580,0.069163
692.368000,0.072321
692.676380,0.075573
692.984720,0.072519
693.293020,0.071429
693.601280,0.071728
693.909500,0.071131
694.217680,0.071973
694.525820,0.076161
694.833920,0.072110
695.141980,0.071732
695.450000,0.070992
695.757980,0.073338
696.065920,0.071845
696.373820,0.070054
696.681680,0.071346
696.989500,0.072173
697.297280,0.071567
697.605020,0.073016
697.912720,0.069946
698.220380,0.072412
698.528000,0.074367
698.835580,0.067562
699.143120,0.070148
699.450620,0.077963
699.758080,0.072157
700.065500,0.070630
700.372880,0.072000
700.680220,0.074591
700.987520,0.075000
701.294780,0.074209
701.602000,0.073693
701.909180,0.071542
702.216320,0.068831
702.523420,0.073402
702.830480,0.075248
703.137500,0.075214
703.444480,0.071795
703.751420,0.072189
704.058320,0.073605
704.365180,0.072161
704.672000,0.073663
704.978780,0.069840
705.285520,0.071987
705.592220,0.069412
705.898880,0.074074
706.205500,0.072770
706.512080,0.075829
706.818620,0.069659
707.125120,0.075769
707.431580,0.073075
707.738000,0.071484
708.044380,0.071401
708.350720,0.075659
708.657020,0.074248
708.963280,0.074146
709.269500,0.072407
709.575680,0.074656
709.881820,0.071934
710.187920,0.070039
710.493980,0.069434
710.800000,0.072845
711.105980,0.071536
711.411920,0.071344
711.717820,0.069786
712.023680,0.070346
712.329500,0.074921
712.635280,0.071705
712.941020,0.073058
713.246720,0.069960
713.552380,0.071429
713.858000,0.070556
714.163580,0.069455
714.469120,0.073075
714.774620,0.069878
715.080080,0.072634
715.385500,0.072342
715.690880,0.069428
715.996220,0.072504
716.301520,0.070751
716.606780,0.072720
716.912000,0.073910
717.217180,0.071429
717.522320,0.069980
717.827420,0.072010
718.132480,0.071859
718.437500,0.067672
718.742480,0.071371
719.047420,0.072006
719.352320,0.073890
719.657180,0.076043
719.962000,0.071960
720.266780,0.071458
720.571520,0.067109
720.876220,0.072013
721.180880,0.072324
721.485500,0.071458
721.790080,0.070913
722.094620,0.071184
722.399120,0.073244
722.703580,0.069867
723.008000,0.072445
723.312380,0.072320
723.616720,0.070548
723.921020,0.070593
724.225280,0.070244
724.529500,0.071804
724.833680,0.075178
725.137820,0.068722
725.441920,0.069550
725.745980,0.072483
726.050000,0.071719
726.353980,0.072105
726.657920,0.068826
726.961820,0.073516
727.265680,0.071660
727.569500,0.074040
727.873280,0.069284
728.177020,0.072317
728.480720,0.073148
728.784380,0.074683
729.088000,0.071126
729.391580,0.074372
729.695120,0.073417
729.998620,0.074570
730.302080,0.074483
730.605500,0.071325
730.908880,0.070554
731.212220,0.074437
731.515520,0.071672
731.818780,0.072816
732.122000,0.075787
732.425180,0.066535
732.728320,0.073376
733.031420,0.069173
733.334480,0.070918
733.637500,0.067036
733.940480,0.070624
734.243420,0.073394
734.546320,0.074689
734.849180,0.070248
735.152000,0.066390
735.454780,0.074380
735.757520,0.071128
736.060220,0.068984
736.362880,0.069328
736.665500,0.073107
736.968080,0.068780
737.270620,0.073489
737.573120,0.070415
737.875580,0.071468
738.178000,0.071312
738.480380,0.071892
738.782720,0.070338
739.085020,0.070485
739.387280,0.072062
739.689500,0.067384
739.991680,0.067939
740.293820,0.073521
740.595920,0.071230
740.897980,0.075099
741.200000,0.077398
741.501980,0.073352
741.803920,0.071509
742.105820,0.071066
742.407680,0.068142
742.709500,0.073864
743.011280,0.070926
743.313020,0.071884
743.614720,0.068485
743.916380,0.067442
744.218000,0.075776
744.519580,0.069444
744.821120,0.078443
745.122620,0.074895
745.424080,0.068510
745.725500,0.075438
746.026880,0.072044
746.328220,0.073366
746.629520,0.073450
746.930780,0.072304
747.232000,0.072961
747.533180,0.068334
747.834320,0.073646
748.135420,0.074580
748.436480,0.074860
748.737500,0.072884
749.038480,0.068418
749.339420,0.070940
749.640320,0.069139
749.941180,0.071830
750.242000,0.066583
750.542780,0.071340
750.843520,0.070468
751.144220,0.075000
751.444880,0.073557
751.745500,0.065584
752.046080,0.072482
752.346620,0.072809
752.647120,0.071195
752.947580,0.069858
753.248000,0.074790
753.548380,0.070267
753.848720,0.073406
754.149020,0.062540
754.449280,0.075509
754.749500,0.072993
755.049680,0.068000
755.349820,0.070714
755.649920,0.072703
755.949980,0.069011
756.250000,0.072321
756.549980,0.069967
756.849920,0.073419
757.149820,0.072522
757.449680,0.071947
757.749500,0.070893
758.049280,0.069625
758.349020,0.069541
758.648720,0.074534
758.948380,0.065292
759.248000,0.071429
759.547580,0.072629
759.847120,0.068918
760.146620,0.072395
760.446080,0.075941
760.745500,0.074126
761.044880,0.071733
761.344220,0.074840
761.643520,0.070621
761.942780,0.067880
762.242000,0.072843
762.541180,0.071127
762.840320,0.072331
763.139420,0.070323
763.438480,0.069036
763.737500,0.075121
764.036480,0.072676
764.335420,0.069866
764.634320,0.065142
764.933180,0.071918
765.232000,0.070784
765.530780,0.074386
765.829520,0.074825
766.128220,0.071677
766.426880,0.069652
766.725500,0.072653
767.024080,0.074074
767.322620,0.069848
767.621120,0.073171
767.919580,0.063481
768.218000,0.068399
768.516380,0.070994
768.814720,0.070645
769.113020,0.072364
769.411280,0.075967
769.709500,0.069689
770.007680,0.066121
770.305820,0.072346
770.603920,0.070755
770.901980,0.074454
771.200000,0.071332
771.497980,0.073727
771.795920,0.072241
772.093820,0.075535
772.391680,0.070534
772.689500,0.066892
772.987280,0.067340
773.285020,0.071087
773.582720,0.069595
773.880380,0.067948
774.178000,0.067485
774.475580,0.070998
774.773120,0.068942
775.070620,0.071670
775.368080,0.074148
775.665500,0.072532
775.962880,0.074716
776.260220,0.070659
776.557520,0.072048
776.854780,0.069642
777.152000,0.068966
777.449180,0.067431
777.746320,0.069220
778.043420,0.075034
778.340480,0.073748
778.637500,0.070994
778.934480,0.071284
779.231420,0.068521
779.528320,0.073480
779.825180,0.068511
780.122000,0.070385
780.418780,0.073187
780.715520,0.073105
781.012220,0.076027
781.308880,0.068289
781.605500,0.069178
781.902080,0.069131
782.198620,0.070403
782.495120,0.069273
782.791580,0.072902
783.088000,0.070393
783.384380,0.075653
783.680720,0.071135
783.977020,0.074329
784.273280,0.075524
784.569500,0.066387
784.865680,0.069541
785.161820,0.068750
785.457920,0.070686
785.753980,0.070482
786.050000,0.069751
786.345980,0.070139
786.641920,0.074948
786.937820,0.076923
787.233680,0.070981
787.529500,0.072816
787.825280,0.071530
788.121020,0.071530
788.416720,0.070572
788.712380,0.072638
789.008000,0.069405
789.303580,0.064311
789.599120,0.074182
789.894620,0.067870
790.190080,0.065990
790.485500,0.069834
790.780880,0.072401
791.076220,0.072872
791.371520,0.069717
791.666780,0.078545
791.962000,0.072006
792.257180,0.071010
792.552320,0.074692
792.847420,0.074236
793.142480,0.077656
793.437500,0.070188
793.732480,0.068032
794.027420,0.068991
794.322320,0.070097
794.617180,0.072808
794.912000,0.073551
795.206780,0.073080
795.501520,0.077567
795.796220,0.071852
796.090880,0.068576
796.385500,0.069715
796.680080,0.071803
796.974620,0.072605
797.269120,0.071915
797.563580,0.072519
797.858000,0.069096
798.152380,0.072699
798.446720,0.076923
798.741020,0.073190
799.035280,0.067547
799.329500,0.070054
799.623680,0.075969
