399.985280,0.027027
400.329500,0.027027
400.673680,0.037975
401.017820,0.029412
401.361920,-0.015152
401.705980,0.060976
402.050000,0.000000
402.393980,0.070588
402.737920,0.078652
403.081820,0.051546
403.425680,0.023256
403.769500,0.041667
404.113280,0.057471
404.457020,0.134831
404.800720,0.010870
405.144380,0.131313
405.488000,0.075269
405.831580,0.113402
406.175120,0.031915
406.518620,0.090000
406.862080,0.144330
407.205500,0.041667
407.548880,0.020408
407.892220,0.058824
408.235520,0.085106
408.578780,0.114286
408.922000,0.048077
409.265180,0.111111
409.608320,0.060606
409.951420,0.082474
410.294480,0.098039
410.637500,0.097826
410.980480,0.049020
411.323420,0.020408
411.666320,0.082569
412.009180,0.090909
412.352000,0.009901
412.694780,0.110092
413.037520,0.045872
413.380220,0.045045
413.722880,0.071429
414.065500,0.117117
414.408080,0.044248
414.750620,0.035398
415.093120,0.066116
415.435580,0.075630
415.778000,0.098485
416.120380,0.058824
416.462720,0.063492
416.805020,0.060150
417.147280,0.089552
417.489500,0.100000
417.831680,0.075342
418.173820,0.035461
418.515920,0.055944
418.857980,0.050633
419.200000,0.070513
419.541980,0.071006
419.883920,0.061798
420.225820,0.086705
420.567680,0.067039
420.909500,0.081967
421.251280,0.093750
421.593020,0.086735
421.934720,0.060606
422.276380,0.071795
422.618000,0.078431
422.959580,0.049020
423.301120,0.091324
423.642620,0.065217
423.984080,0.046512
424.325500,0.067265
424.666880,0.060345
425.008220,0.075630
425.349520,0.033898
425.690780,0.065385
426.032000,0.066667
426.373180,0.045643
426.714320,0.089844
427.055420,0.038610
427.396480,0.059925
427.737500,0.063241
428.078480,0.047431
428.419420,0.072289
428.760320,0.053640
429.101180,0.098425
429.442000,0.068966
429.782780,0.065385
430.123520,0.062745
430.464220,0.059041
430.804880,0.065134
431.145500,0.043636
431.486080,0.067416
431.826620,0.065891
432.167120,0.062500
432.507580,0.061594
432.848000,0.075540
433.188380,0.068592
433.528720,0.052830
433.869020,0.071429
434.209280,0.059649
434.549500,0.076655
434.889680,0.070707
435.229820,0.061433
435.569920,0.072664
435.909980,0.058252
436.250000,0.077966
436.589980,0.046440
436.929920,0.073016
437.269820,0.068966
437.609680,0.100592
437.949500,0.063253
438.289280,0.070822
438.629020,0.081395
438.968720,0.072674
439.308380,0.062331
439.648000,0.052055
439.987580,0.071429
440.327120,0.074667
440.666620,0.059740
441.006080,0.066496
441.345500,0.073710
441.684880,0.074163
442.024220,0.064516
442.363520,0.066667
442.702780,0.056818
443.042000,0.057269
443.381180,0.064655
443.720320,0.075594
444.059420,0.063025
444.398480,0.071130
444.737500,0.067623
445.076480,0.079365
445.415420,0.065868
445.754320,0.054054
446.093180,0.055046
446.432000,0.075188
446.770780,0.074004
447.109520,0.075368
447.448220,0.076923
447.786880,0.073345
448.125500,0.077586
448.464080,0.071429
448.802620,0.060284
449.141120,0.064014
449.479580,0.071678
449.818000,0.061962
450.156380,0.066890
450.494720,0.074380
450.833020,0.075175
451.171280,0.068493
451.509500,0.067944
451.847680,0.069140
452.185820,0.067126
452.523920,0.084192
452.861980,0.069140
453.200000,0.068106
453.537980,0.068908
453.875920,0.078992
454.213820,0.066781
454.551680,0.061258
454.889500,0.064081
455.227280,0.062278
455.565020,0.075377
455.902720,0.074875
456.240380,0.051581
456.578000,0.071429
456.915580,0.077720
457.253120,0.069079
457.590620,0.067323
457.928080,0.074074
458.265500,0.070946
458.602880,0.073052
458.940220,0.069374
459.277520,0.075200
459.614780,0.073650
459.952000,0.069876
460.289180,0.069620
460.626320,0.058268
460.963420,0.066236
461.300480,0.073394
461.637500,0.063174
461.974480,0.068807
462.311420,0.062593
462.648320,0.073206
462.985180,0.063128
463.322000,0.068452
463.658780,0.069061
463.995520,0.064649
464.332220,0.069252
464.668880,0.073925
465.005500,0.076408
465.342080,0.071703
465.678620,0.067651
466.015120,0.063389
466.351580,0.070796
466.688000,0.074300
467.024380,0.068044
467.360720,0.071591
467.697020,0.068337
468.033280,0.072222
468.369500,0.068433
468.705680,0.075536
469.041820,0.063542
469.377920,0.066161
469.713980,0.067971
470.050000,0.073430
470.385980,0.070450
470.721920,0.069540
471.057820,0.064327
471.393680,0.063611
471.729500,0.061168
472.065280,0.072451
472.401020,0.067376
472.736720,0.073298
473.072380,0.062837
473.408000,0.063534
473.743580,0.061419
474.079120,0.072351
474.414620,0.067006
474.750080,0.065907
475.085500,0.071546
475.420880,0.069942
475.756220,0.071954
476.091520,0.070759
476.426780,0.067152
476.762000,0.069187
477.097180,0.070400
477.432320,0.072698
477.767420,0.067810
478.102480,0.065354
478.437500,0.065681
478.772480,0.066194
479.107420,0.067535
479.442320,0.065548
479.777180,0.066826
480.112000,0.070108
480.446780,0.067810
480.781520,0.070048
481.116220,0.064673
481.450880,0.064793
481.785500,0.072785
482.120080,0.065047
482.454620,0.065268
482.789120,0.071656
483.123580,0.073209
483.458000,0.060918
483.792380,0.063898
484.126720,0.065637
484.461020,0.064793
484.795280,0.069391
485.129500,0.069369
485.463680,0.065116
485.797820,0.073872
486.131920,0.066565
486.465980,0.071042
486.800000,0.065649
487.133980,0.067221
487.467920,0.072686
487.801820,0.071701
488.135680,0.067475
488.469500,0.059002
488.803280,0.069094
489.137020,0.068132
489.470720,0.066766
489.804380,0.071269
490.138000,0.070475
490.471580,0.067797
490.805120,0.070765
491.138620,0.064677
491.472080,0.065724
491.805500,0.065551
492.138880,0.071577
492.472220,0.071280
492.805520,0.071927
493.138780,0.068918
493.472000,0.068896
493.805180,0.068213
494.138320,0.071381
494.471420,0.070964
494.804480,0.065330
495.137500,0.070603
495.470480,0.072658
495.803420,0.074937
496.136320,0.070802
496.469180,0.071209
496.802000,0.066626
497.134780,0.069133
497.467520,0.069725
497.800220,0.070165
498.132880,0.068783
498.465500,0.070104
498.798080,0.067352
499.130620,0.071308
499.463120,0.071870
499.795580,0.067107
500.128000,0.071390
500.460380,0.069429
500.792720,0.066278
501.125020,0.067262
501.457280,0.068930
501.789500,0.070764
502.121680,0.071021
502.453820,0.067823
502.785920,0.067534
503.117980,0.070658
503.450000,0.071823
503.781980,0.069258
504.113920,0.070175
504.445820,0.069033
504.777680,0.063529
505.109500,0.066827
505.441280,0.069312
505.773020,0.069986
506.104720,0.067358
506.436380,0.071462
506.768000,0.072965
507.099580,0.064989
507.431120,0.068852
507.762620,0.068139
508.094080,0.069736
508.425500,0.071895
508.756880,0.067215
509.088220,0.068997
509.419520,0.071229
509.750780,0.071228
510.082000,0.069496
510.413180,0.068632
510.744320,0.070410
511.075420,0.070119
511.406480,0.069582
511.737500,0.070833
512.068480,0.071429
512.399420,0.069484
512.730320,0.063279
513.061180,0.067079
513.392000,0.070516
513.722780,0.072526
514.053520,0.067561
514.384220,0.067555
514.714880,0.067018
515.045500,0.066092
515.376080,0.072639
515.706620,0.069167
516.037120,0.069118
516.367580,0.067521
516.698000,0.067647
517.028380,0.071996
517.358720,0.069630
517.689020,0.069238
518.019280,0.067235
518.349500,0.068424
518.679680,0.068147
519.009820,0.069332
519.339920,0.070140
519.669980,0.068810
520.000000,0.070301
520.329980,0.065837
520.659920,0.066462
520.989820,0.071207
521.319680,0.072016
521.649500,0.068380
521.979280,0.068372
522.309020,0.062759
522.638720,0.068612
522.968380,0.069286
523.298000,0.069937
523.627580,0.069840
523.957120,0.071688
524.286620,0.069307
524.616080,0.071355
524.945500,0.072868
525.274880,0.071319
525.604220,0.071946
525.933520,0.069182
526.262780,0.066396
526.592000,0.067986
526.921180,0.072118
527.250320,0.070015
527.579420,0.076301
527.908480,0.070409
528.237500,0.068024
528.566480,0.067365
528.895420,0.070478
529.224320,0.070827
529.553180,0.070361
529.882000,0.075426
530.210780,0.065154
530.539520,0.070470
530.868220,0.072762
531.196880,0.066412
531.525500,0.073608
531.854080,0.068480
532.182620,0.071462
532.511120,0.069606
532.839580,0.068512
533.168000,0.069280
533.496380,0.066210
533.824720,0.073127
534.153020,0.068212
534.481280,0.069163
534.809500,0.072559
535.137680,0.071615
535.465820,0.067869
535.793920,0.071066
536.121980,0.067142
536.450000,0.072304
536.777980,0.073314
537.105920,0.070984
537.433820,0.074059
537.761680,0.072653
538.089500,0.072440
538.417280,0.070434
538.745020,0.070919
539.072720,0.068333
539.400380,0.071484
539.728000,0.073040
540.055580,0.067041
540.383120,0.072599
540.710620,0.072173
541.038080,0.074880
541.365500,0.069485
541.692880,0.069767
542.020220,0.068730
542.347520,0.071070
542.674780,0.068807
543.002000,0.068230
543.329180,0.072957
543.656320,0.074543
543.983420,0.067350
544.310480,0.069657
544.637500,0.070283
544.964480,0.070323
545.291420,0.072782
545.618320,0.070053
545.945180,0.069545
546.272000,0.066841
546.598780,0.068502
546.925520,0.071876
547.252220,0.067349
547.578880,0.070055
547.905500,0.068954
548.232080,0.070825
548.558620,0.072893
548.885120,0.068041
549.211580,0.068145
549.538000,0.067121
549.864380,0.070096
550.190720,0.071036
550.517020,0.071382
550.843280,0.073616
551.169500,0.069656
551.495680,0.068988
551.821820,0.071195
552.147920,0.072544
552.473980,0.069806
552.800000,0.071615
553.125980,0.074984
553.451920,0.071002
553.777820,0.069620
554.103680,0.071453
554.429500,0.070305
554.755280,0.070093
555.081020,0.066176
555.406720,0.067050
555.732380,0.068113
556.058000,0.071623
556.383580,0.071893
556.709120,0.072708
557.034620,0.069928
557.360080,0.069775
557.685500,0.070885
558.010880,0.069671
558.336220,0.067487
558.661520,0.069833
558.986780,0.066974
559.312000,0.071581
559.637180,0.070377
559.962320,0.071200
560.287420,0.071580
560.612480,0.071403
560.937500,0.069016
561.262480,0.066716
561.587420,0.071817
561.912320,0.071113
562.237180,0.069578
562.562000,0.070333
562.886780,0.070606
563.211520,0.067437
563.536220,0.068646
563.860880,0.068653
564.185500,0.067542
564.510080,0.068849
564.834620,0.071827
565.159120,0.069925
565.483580,0.068415
565.808000,0.068861
566.132380,0.069750
566.456720,0.072184
566.781020,0.073143
567.105280,0.071456
567.429500,0.072838
567.753680,0.070196
568.077820,0.066100
568.401920,0.073338
568.725980,0.073245
569.050000,0.070722
569.373980,0.071945
569.697920,0.071293
570.021820,0.070037
570.345680,0.069269
570.669500,0.072873
570.993280,0.072351
571.317020,0.071977
571.640720,0.070767
571.964380,0.069414
572.288000,0.071958
572.611580,0.073755
572.935120,0.071081
573.258620,0.071429
573.582080,0.072280
573.905500,0.072599
574.228880,0.073497
574.552220,0.070722
574.875520,0.070365
575.198780,0.071196
575.522000,0.073314
575.845180,0.069842
576.168320,0.072584
576.491420,0.071584
576.814480,0.073418
577.137500,0.067821
577.460480,0.072852
577.783420,0.073955
578.106320,0.074074
578.429180,0.071050
578.752000,0.068427
579.074780,0.071140
579.397520,0.072950
579.720220,0.070785
580.042880,0.072019
580.365500,0.071145
580.688080,0.071235
581.010620,0.073912
581.333120,0.073814
581.655580,0.073926
581.978000,0.071500
582.300380,0.071730
582.622720,0.070864
582.945020,0.071847
583.267280,0.070335
583.589500,0.071268
583.911680,0.070181
584.233820,0.068618
584.555920,0.071541
584.877980,0.071294
585.200000,0.067219
585.521980,0.066728
585.843920,0.073520
586.165820,0.070384
586.487680,0.073729
586.809500,0.069307
587.131280,0.070689
587.453020,0.070833
587.774720,0.071555
588.096380,0.070012
588.418000,0.072286
588.739580,0.074734
589.061120,0.071305
589.382620,0.072206
589.704080,0.072931
590.025500,0.071062
590.346880,0.071951
590.668220,0.072809
590.989520,0.071547
591.310780,0.070975
591.632000,0.072951
591.953180,0.070855
592.274320,0.071526
592.595420,0.070043
592.916480,0.070905
593.237500,0.072487
593.558480,0.073984
593.879420,0.070677
594.200320,0.072328
594.521180,0.072510
594.842000,0.074422
595.162780,0.072382
595.483520,0.070992
595.804220,0.067401
596.124880,0.072742
596.445500,0.069164
596.766080,0.072600
597.086620,0.069533
597.407120,0.071090
597.727580,0.072395
598.048000,0.070616
598.368380,0.068648
598.688720,0.071035
599.009020,0.071921
599.329280,0.072113
599.649500,0.071051
599.969680,0.071047
600.289820,0.072382
600.609920,0.069463
600.929980,0.071085
601.250000,0.069189
601.569980,0.071023
601.889920,0.071639
602.209820,0.069535
602.529680,0.073057
602.849500,0.071195
603.169280,0.073298
603.489020,0.070025
603.808720,0.072134
604.128380,0.068709
604.448000,0.069613
604.767580,0.066201
605.087120,0.070083
605.406620,0.069409
605.726080,0.071001
606.045500,0.070493
606.364880,0.071732
606.684220,0.069103
607.003520,0.069954
607.322780,0.071063
607.642000,0.070936
607.961180,0.070541
608.280320,0.068155
608.599420,0.068946
608.918480,0.070381
609.237500,0.068075
609.556480,0.070139
609.875420,0.071471
610.194320,0.074697
610.513180,0.071323
610.832000,0.070578
611.150780,0.071193
611.469520,0.070588
611.788220,0.070133
612.106880,0.070869
612.425500,0.065773
612.744080,0.068944
613.062620,0.071560
613.381120,0.069165
613.699580,0.072961
614.018000,0.074324
614.336380,0.072486
614.654720,0.071318
614.973020,0.070040
615.291280,0.071893
615.609500,0.069731
615.927680,0.072621
616.245820,0.072047
616.563920,0.074604
616.881980,0.072030
617.200000,0.073406
617.517980,0.071562
617.835920,0.071140
618.153820,0.071495
618.471680,0.069767
618.789500,0.070170
619.107280,0.068545
619.425020,0.072629
619.742720,0.069680
620.060380,0.073018
620.378000,0.070485
620.695580,0.072478
621.013120,0.070236
621.330620,0.071227
621.648080,0.072555
621.965500,0.070891
622.282880,0.069672
622.600220,0.069804
622.917520,0.070573
623.234780,0.072645
623.552000,0.068746
623.869180,0.070911
624.186320,0.069405
624.503420,0.070219
624.820480,0.074144
625.137500,0.071992
625.454480,0.067834
625.771420,0.069672
626.088320,0.071879
626.405180,0.072806
626.722000,0.073714
627.038780,0.070175
627.355520,0.072188
627.672220,0.074028
627.988880,0.071229
628.305500,0.070739
628.622080,0.070942
628.938620,0.073700
629.255120,0.071562
629.571580,0.072633
629.888000,0.070267
630.204380,0.069346
630.520720,0.071907
630.837020,0.072464
631.153280,0.068046
631.469500,0.072165
631.785680,0.071429
632.101820,0.070869
632.417920,0.070939
632.733980,0.067227
633.050000,0.070346
633.365980,0.073503
633.681920,0.071002
633.997820,0.070831
634.313680,0.071365
634.629500,0.070481
634.945280,0.072141
635.261020,0.072791
635.576720,0.071638
635.892380,0.069126
636.208000,0.073794
636.523580,0.072786
636.839120,0.070064
637.154620,0.072464
637.470080,0.071162
637.785500,0.071512
638.100880,0.070374
638.416220,0.072189
638.731520,0.071347
639.046780,0.071366
639.362000,0.070814
639.677180,0.071673
639.992320,0.070482
640.307420,0.071368
640.622480,0.073649
640.937500,0.071290
641.252480,0.070371
641.567420,0.071611
641.882320,0.070713
642.197180,0.068782
642.512000,0.071369
642.826780,0.073232
643.141520,0.073076
643.456220,0.073326
643.770880,0.070757
644.085500,0.068474
644.400080,0.069382
644.714620,0.070792
645.029120,0.071507
645.343580,0.071311
645.658000,0.072717
645.972380,0.069882
646.286720,0.070046
646.601020,0.072516
646.915280,0.072114
647.229500,0.068956
647.543680,0.073184
647.857820,0.073768
648.171920,0.071622
648.485980,0.070430
648.800000,0.069165
649.113980,0.070399
649.427920,0.071567
649.741820,0.071173
650.055680,0.071037
650.369500,0.072029
650.683280,0.069922
650.997020,0.072332
651.310720,0.068244
651.624380,0.067308
651.938000,0.071191
652.251580,0.072085
652.565120,0.067915
652.878620,0.072072
653.192080,0.070787
653.505500,0.068724
653.818880,0.070799
654.132220,0.069211
654.445520,0.068917
654.758780,0.071105
655.072000,0.070201
655.385180,0.068474
655.698320,0.070592
656.011420,0.071654
656.324480,0.070533
656.637500,0.070104
656.950480,0.068996
657.263420,0.072125
657.576320,0.072043
657.889180,0.069891
658.202000,0.069143
658.514780,0.072938
658.827520,0.070828
659.140220,0.068325
659.452880,0.070069
659.765500,0.071343
660.078080,0.068312
660.390620,0.070883
660.703120,0.073327
661.015580,0.071472
661.328000,0.070529
661.640380,0.067412
661.952720,0.073497
662.265020,0.074669
662.577280,0.071247
662.889500,0.069694
663.201680,0.070198
663.513820,0.069154
663.825920,0.070445
664.137980,0.071105
664.450000,0.068734
664.761980,0.069394
665.073920,0.069133
665.385820,0.069372
665.697680,0.066446
666.009500,0.072830
666.321280,0.072896
666.633020,0.072806
666.944720,0.073475
667.256380,0.070659
667.568000,0.069633
667.879580,0.070748
668.191120,0.070398
668.502620,0.070524
668.814080,0.070526
669.125500,0.071160
669.436880,0.074343
669.748220,0.071651
670.059520,0.070728
670.370780,0.070981
670.682000,0.068319
670.993180,0.072939
671.304320,0.069620
671.615420,0.066761
671.926480,0.073101
672.237500,0.070382
672.548480,0.068843
672.859420,0.067906
673.170320,0.070366
673.481180,0.072049
673.792000,0.066715
674.102780,0.070736
674.413520,0.067809
674.724220,0.066062
675.034880,0.070040
675.345500,0.071116
675.656080,0.072595
675.966620,0.070571
676.277120,0.072135
676.587580,0.071429
676.898000,0.070549
677.208380,0.069501
677.518720,0.068198
677.829020,0.072062
678.139280,0.070052
678.449500,0.069068
678.759680,0.068190
679.069820,0.071004
679.379920,0.072048
679.689980,0.067583
680.000000,0.071402
680.309980,0.069042
680.619920,0.068156
680.929820,0.069429
681.239680,0.070901
681.549500,0.070370
681.859280,0.072816
682.169020,0.069750
682.478720,0.070681
682.788380,0.067922
683.098000,0.071055
683.407580,0.070544
683.717120,0.066817
684.026620,0.070783
684.336080,0.069723
684.645500,0.069211
684.954880,0.070268
685.264220,0.071348
685.573520,0.074229
685.882780,0.070963
686.192000,0.067720
686.501180,0.070375
686.810320,0.072252
687.119420,0.069935
687.428480,0.072161
687.737500,0.070606
688.046480,0.070169
688.355420,0.072425
688.664320,0.071155
688.973180,0.068913
689.282000,0.067130
689.590780,0.073236
689.899520,0.070262
690.208220,0.071483
690.516880,0.071019
690.825500,0.072075
691.134080,0.068717
691.442620,0.068216
691.751120,0.070155
692.059580,0.068399
692.368000,0.066263
692.676380,0.069847
692.984720,0.066794
693.293020,0.067249
693.601280,0.070965
693.909500,0.069240
694.217680,0.070449
694.525820,0.073877
694.833920,0.073254
695.141980,0.070189
695.450000,0.070229
695.757980,0.073720
696.065920,0.069903
696.373820,0.070439
696.681680,0.066743
696.989500,0.072559
697.297280,0.071179
697.605020,0.069841
697.912720,0.068025
698.220380,0.068477
698.528000,0.072389
698.835580,0.069538
699.143120,0.067810
699.450620,0.068815
699.758080,0.069804
700.065500,0.073823
700.372880,0.067600
700.680220,0.069007
700.987520,0.071825
701.294780,0.072993
701.602000,0.067353
701.909180,0.070350
702.216320,0.066093
702.523420,0.070245
702.830480,0.073267
703.137500,0.069369
703.444480,0.073767
703.751420,0.068639
704.058320,0.070439
704.365180,0.070978
704.672000,0.069703
704.978780,0.065938
705.285520,0.068466
705.592220,0.070196
705.898880,0.065800
706.205500,0.067684
706.512080,0.069115
706.818620,0.068498
707.125120,0.071538
707.431580,0.064869
707.738000,0.070312
708.044380,0.065612
708.350720,0.070692
708.657020,0.069949
708.963280,0.072593
709.269500,0.071624
709.575680,0.073477
709.881820,0.069969
710.187920,0.070817
710.493980,0.069822
710.800000,0.069413
711.105980,0.065889
711.411920,0.068979
711.717820,0.068226
712.023680,0.067237
712.329500,0.069006
712.635280,0.071318
712.941020,0.070738
713.246720,0.069170
713.552380,0.072606
713.858000,0.069373
714.163580,0.070245
714.469120,0.067214
714.774620,0.069878
715.080080,0.073812
715.385500,0.068745
715.690880,0.069822
715.996220,0.070919
716.301520,0.071937
716.606780,0.068789
716.912000,0.068659
717.217180,0.067039
717.522320,0.067594
717.827420,0.071196
718.132480,0.069851
718.437500,0.068488
718.742480,0.070565
719.047420,0.072006
719.352320,0.069323
719.657180,0.071954
719.962000,0.068652
720.266780,0.072289
720.571520,0.068766
720.876220,0.069149
721.180880,0.071488
721.485500,0.071876
721.790080,0.069639
722.094620,0.068611
722.399120,0.068505
722.703580,0.068153
723.008000,0.070289
723.312380,0.068876
723.616720,0.067998
723.921020,0.068428
724.225280,0.065881
724.529500,0.068301
724.833680,0.072064
725.137820,0.065639
725.441920,0.068212
725.745980,0.069351
726.050000,0.069012
726.353980,0.069401
726.657920,0.069726
726.961820,0.072146
727.265680,0.067499
727.569500,0.069013
727.873280,0.066513
728.177020,0.071856
728.480720,0.070833
728.784380,0.071865
729.088000,0.071126
729.391580,0.068214
729.695120,0.071017
729.998620,0.069790
730.302080,0.073042
730.605500,0.069869
730.908880,0.068594
731.212220,0.070519
731.515520,0.069722
731.818780,0.067961
732.122000,0.069882
732.425180,0.070478
732.728320,0.068418
733.031420,0.069173
733.334480,0.067347
733.637500,0.066532
733.940480,0.066530
734.243420,0.073904
734.546320,0.066390
734.849180,0.068182
735.152000,0.065353
735.454780,0.066116
735.757520,0.066386
736.060220,0.065298
736.362880,0.069853
736.665500,0.065274
736.968080,0.068243
737.270620,0.069134
737.573120,0.066594
737.875580,0.074217
738.178000,0.070223
738.480380,0.065946
738.782720,0.069248
739.085020,0.071586
739.387280,0.069290
739.689500,0.069083
739.991680,0.071308
740.293820,0.071310
740.595920,0.068447
740.897980,0.073970
741.200000,0.070667
741.501980,0.072206
741.803920,0.071509
742.105820,0.064862
742.407680,0.072219
742.709500,0.071591
743.011280,0.067409
743.313020,0.070725
743.614720,0.071967
743.916380,0.069186
744.218000,0.076372
744.519580,0.072464
744.821120,0.071856
745.122620,0.073697
745.424080,0.067909
745.725500,0.074231
746.026880,0.069581
746.328220,0.069667
746.629520,0.065623
746.930780,0.066176
747.232000,0.070509
747.533180,0.069555
747.834320,0.070603
748.135420,0.067122
748.436480,0.072364
748.737500,0.070414
749.038480,0.067807
749.339420,0.074051
749.640320,0.068510
749.941180,0.071205
750.242000,0.066583
750.542780,0.070099
750.843520,0.071108
751.144220,0.073077
751.444880,0.076094
751.745500,0.064286
752.046080,0.070558
752.346620,0.068299
752.647120,0.064664
752.947580,0.069858
753.248000,0.074790
753.548380,0.070917
753.848720,0.072118
754.149020,0.065764
754.449280,0.072882
754.749500,0.066357
755.049680,0.068667
755.349820,0.069380
755.649920,0.067416
755.949980,0.072329
756.250000,0.073636
756.549980,0.069307
756.849920,0.068661
757.149820,0.067864
757.449680,0.073927
757.749500,0.072938
758.049280,0.070307
758.349020,0.066064
758.648720,0.076605
758.948380,0.070790
759.248000,0.072102
759.547580,0.067922
759.847120,0.064783
760.146620,0.070365
760.446080,0.068548
760.745500,0.068531
761.044880,0.066761
761.344220,0.069850
761.643520,0.076977
761.942780,0.072778
762.242000,0.071429
762.541180,0.065493
762.840320,0.066011
763.139420,0.067511
763.438480,0.068353
763.737500,0.066850
764.036480,0.069182
764.335420,0.068454
764.634320,0.071379
764.933180,0.078767
765.232000,0.072172
765.530780,0.067368
765.829520,0.072727
766.128220,0.069589
766.426880,0.070362
766.725500,0.072653
767.024080,0.068587
767.322620,0.065698
767.621120,0.069783
767.919580,0.067577
768.218000,0.071135
768.516380,0.073698
768.814720,0.067215
769.113020,0.071675
769.411280,0.076657
769.709500,0.073748
770.007680,0.064758
770.305820,0.071670
770.603920,0.064016
770.901980,0.070355
771.200000,0.074049
771.497980,0.072386
771.795920,0.067559
772.093820,0.070856
772.391680,0.069216
772.689500,0.067568
772.987280,0.068687
773.285020,0.069720
773.582720,0.067568
773.880380,0.065889
774.178000,0.064076
774.475580,0.073007
774.773120,0.068942
775.070620,0.073022
775.368080,0.068804
775.665500,0.064473
775.962880,0.069380
776.260220,0.067968
776.557520,0.065377
776.854780,0.067613
777.152000,0.066976
777.449180,0.070128
777.746320,0.063844
778.043420,0.070259
778.340480,0.066982
778.637500,0.071670
778.934480,0.075992
779.231420,0.071235
779.528320,0.067468
779.825180,0.069829
780.122000,0.065073
780.418780,0.074555
780.715520,0.075117
781.012220,0.071233
781.308880,0.070318
781.605500,0.068493
781.902080,0.070500
782.198620,0.071087
782.495120,0.073388
782.791580,0.071527
783.088000,0.067633
783.384380,0.073590
783.680720,0.069083
783.977020,0.067447
784.273280,0.064336
784.569500,0.070580
784.865680,0.072323
785.161820,0.068750
785.457920,0.064449
785.753980,0.063503
786.050000,0.069061
786.345980,0.070833
786.641920,0.067314
786.937820,0.071937
787.233680,0.071677
787.529500,0.066574
787.825280,0.072238
788.121020,0.068697
788.416720,0.068454
788.712380,0.069817
789.008000,0.069405
789.303580,0.065018
789.599120,0.069818
789.894620,0.074368
790.190080,0.066715
790.485500,0.067675
790.780880,0.069534
791.076220,0.071429
791.371520,0.072622
791.666780,0.070545
791.962000,0.065393
792.257180,0.067350
792.552320,0.071791
792.847420,0.069869
793.142480,0.074725
793.437500,0.064399
793.732480,0.070958
794.027420,0.066024
794.322320,0.066368
794.617180,0.067608
794.912000,0.069837
795.206780,0.070097
795.501520,0.070722
795.796220,0.069630
796.090880,0.069329
796.385500,0.068216
796.680080,0.064323
796.974620,0.072605
797.269120,0.067373
797.563580,0.069466
797.858000,0.068337
798.152380,0.071926
798.446720,0.063077
798.741020,0.064715
799.035280,0.065994
799.329500,0.068514
799.623680,0.068217
