399.985280,0.067568
400.329500,0.054054
400.673680,0.025316
401.017820,0.000000
401.361920,-0.015152
401.705980,-0.036585
402.050000,-0.012987
402.393980,0.035294
402.737920,0.056180
403.081820,0.082474
403.425680,0.023256
403.769500,-0.010417
404.113280,-0.022989
404.457020,0.078652
404.800720,0.065217
405.144380,0.101010
405.488000,0.032258
405.831580,0.072165
406.175120,0.021277
406.518620,0.020000
406.862080,0.030928
407.205500,0.052083
407.548880,0.081633
407.892220,0.078431
408.235520,0.053191
408.578780,0.123810
408.922000,0.067308
409.265180,0.070707
409.608320,0.050505
409.951420,0.113402
410.294480,0.049020
410.637500,0.065217
410.980480,0.078431
411.323420,0.051020
411.666320,0.110092
412.009180,0.063636
412.352000,0.000000
412.694780,0.091743
413.037520,0.036697
413.380220,0.081081
413.722880,0.062500
414.065500,0.081081
414.408080,0.044248
414.750620,0.035398
415.093120,0.049587
415.435580,0.058824
415.778000,0.121212
416.120380,0.042017
416.462720,0.031746
416.805020,0.097744
417.147280,0.059701
417.489500,0.057143
417.831680,0.047945
418.173820,-0.007092
418.515920,0.041958
418.857980,0.050633
419.200000,0.038462
419.541980,0.059172
419.883920,0.073034
420.225820,0.069364
420.567680,0.039106
420.909500,0.071038
421.251280,0.062500
421.593020,0.056122
421.934720,0.045455
422.276380,0.020513
422.618000,0.063725
422.959580,0.053922
423.301120,0.063927
423.642620,0.047826
423.984080,0.074419
424.325500,0.071749
424.666880,0.047414
425.008220,0.050420
425.349520,0.063559
425.690780,0.061538
426.032000,0.054902
426.373180,0.041494
426.714320,0.078125
427.055420,0.042471
427.396480,0.041199
427.737500,0.047431
428.078480,0.055336
428.419420,0.060241
428.760320,0.042146
429.101180,0.070866
429.442000,0.076628
429.782780,0.042308
430.123520,0.058824
430.464220,0.062731
430.804880,0.061303
431.145500,0.047273
431.486080,0.074906
431.826620,0.046512
432.167120,0.058824
432.507580,0.072464
432.848000,0.057554
433.188380,0.064982
433.528720,0.041509
433.869020,0.067857
434.209280,0.031579
434.549500,0.076655
434.889680,0.063973
435.229820,0.051195
435.569920,0.044983
435.909980,0.051780
436.250000,0.074576
436.589980,0.049536
436.929920,0.073016
437.269820,0.050157
437.609680,0.068047
437.949500,0.060241
438.289280,0.056657
438.629020,0.078488
438.968720,0.066860
439.308380,0.040650
439.648000,0.071233
439.987580,0.055556
440.327120,0.056000
440.666620,0.057143
441.006080,0.063939
441.345500,0.049140
441.684880,0.057416
442.024220,0.054591
442.363520,0.045238
442.702780,0.050000
443.042000,0.057269
443.381180,0.058190
443.720320,0.066955
444.059420,0.054622
444.398480,0.056485
444.737500,0.063525
445.076480,0.059524
445.415420,0.067864
445.754320,0.058212
446.093180,0.062385
446.432000,0.058271
446.770780,0.047438
447.109520,0.064338
447.448220,0.067979
447.786880,0.060823
448.125500,0.072414
448.464080,0.062500
448.802620,0.058511
449.141120,0.060554
449.479580,0.062937
449.818000,0.061962
450.156380,0.066890
450.494720,0.059504
450.833020,0.055944
451.171280,0.061644
451.509500,0.062718
451.847680,0.062395
452.185820,0.065404
452.523920,0.061856
452.861980,0.052277
453.200000,0.063123
453.537980,0.058824
453.875920,0.063866
454.213820,0.053082
454.551680,0.064570
454.889500,0.055649
455.227280,0.044484
455.565020,0.073702
455.902720,0.063228
456.240380,0.049917
456.578000,0.055749
456.915580,0.063903
457.253120,0.052632
457.590620,0.072250
457.928080,0.063973
458.265500,0.065878
458.602880,0.064935
458.940220,0.059222
459.277520,0.060800
459.614780,0.062193
459.952000,0.054348
460.289180,0.066456
460.626320,0.064567
460.963420,0.061389
461.300480,0.068807
461.637500,0.060092
461.974480,0.064220
462.311420,0.062593
462.648320,0.060029
462.985180,0.060258
463.322000,0.059524
463.658780,0.059392
463.995520,0.049519
464.332220,0.060942
464.668880,0.060484
465.005500,0.064343
465.342080,0.064020
465.678620,0.056581
466.015120,0.068564
466.351580,0.061947
466.688000,0.068210
467.024380,0.069259
467.360720,0.064773
467.697020,0.063781
468.033280,0.057778
468.369500,0.060706
468.705680,0.063134
469.041820,0.066667
469.377920,0.056399
469.713980,0.058702
470.050000,0.070531
470.385980,0.063601
470.721920,0.059745
471.057820,0.060429
471.393680,0.062675
471.729500,0.055607
472.065280,0.061717
472.401020,0.062057
472.736720,0.063700
473.072380,0.062837
473.408000,0.058312
473.743580,0.061419
474.079120,0.063738
474.414620,0.062765
474.750080,0.056957
475.085500,0.067434
475.420880,0.061615
475.756220,0.058054
476.091520,0.063086
476.426780,0.063916
476.762000,0.058729
477.097180,0.061600
477.432320,0.060582
477.767420,0.063725
478.102480,0.062992
478.437500,0.062397
478.772480,0.055950
479.107420,0.063466
479.442320,0.058353
479.777180,0.064439
480.112000,0.063945
480.446780,0.058457
480.781520,0.064412
481.116220,0.060631
481.450880,0.059329
481.785500,0.064873
482.120080,0.058777
482.454620,0.060606
482.789120,0.059713
483.123580,0.059190
483.458000,0.058544
483.792380,0.062300
484.126720,0.061776
484.461020,0.064012
484.795280,0.058597
485.129500,0.064692
485.463680,0.060465
485.797820,0.061431
486.131920,0.060444
486.465980,0.060232
486.800000,0.067939
487.133980,0.055891
487.467920,0.060444
487.801820,0.066362
488.135680,0.061410
488.469500,0.057489
488.803280,0.057949
489.137020,0.059341
489.470720,0.066024
489.804380,0.065330
490.138000,0.066766
490.471580,0.067797
490.805120,0.062187
491.138620,0.062544
491.472080,0.064311
491.805500,0.059972
492.138880,0.066713
492.472220,0.059516
492.805520,0.062151
493.138780,0.064783
493.472000,0.061538
493.805180,0.064120
494.138320,0.065377
494.471420,0.061849
494.804480,0.065977
495.137500,0.067394
495.470480,0.060548
495.803420,0.060453
496.136320,0.059524
496.469180,0.063229
496.802000,0.060513
497.134780,0.063675
497.467520,0.066055
497.800220,0.059552
498.132880,0.063492
498.465500,0.063152
498.798080,0.066210
499.130620,0.067378
499.463120,0.064009
499.795580,0.062706
500.128000,0.064850
500.460380,0.062433
500.792720,0.063627
501.125020,0.064635
501.457280,0.059530
501.789500,0.061983
502.121680,0.065837
502.453820,0.060683
502.785920,0.059030
503.117980,0.066241
503.450000,0.064792
503.781980,0.064773
504.113920,0.062115
504.445820,0.059796
504.777680,0.062118
505.109500,0.062500
505.441280,0.064054
505.773020,0.061531
506.104720,0.063118
506.436380,0.063890
506.768000,0.062675
507.099580,0.061785
507.431120,0.064637
507.762620,0.062500
508.094080,0.066089
508.425500,0.068161
508.756880,0.060357
509.088220,0.063477
509.419520,0.062849
509.750780,0.064199
510.082000,0.057369
510.413180,0.063105
510.744320,0.062126
511.075420,0.062328
511.406480,0.063470
511.737500,0.061111
512.068480,0.068609
512.399420,0.061972
512.730320,0.059584
513.061180,0.062797
513.392000,0.062470
513.722780,0.063881
514.053520,0.062770
514.384220,0.062797
514.714880,0.065103
515.045500,0.061782
515.376080,0.065860
515.706620,0.061374
516.037120,0.061765
516.367580,0.061114
516.698000,0.062255
517.028380,0.062562
517.358720,0.060247
517.689020,0.064293
518.019280,0.064727
518.349500,0.063862
518.679680,0.065623
519.009820,0.059211
519.339920,0.065631
519.669980,0.060271
520.000000,0.065206
520.329980,0.063245
520.659920,0.062372
520.989820,0.061920
521.319680,0.064300
521.649500,0.060668
521.979280,0.067850
522.309020,0.063797
522.638720,0.060420
522.968380,0.066701
523.298000,0.064196
523.627580,0.065701
523.957120,0.063377
524.286620,0.063575
524.616080,0.066701
524.945500,0.066150
525.274880,0.066188
525.604220,0.067288
525.933520,0.063417
526.262780,0.062848
526.592000,0.063927
526.921180,0.066023
527.250320,0.062405
527.579420,0.068722
527.908480,0.064500
528.237500,0.066038
528.566480,0.065369
528.895420,0.064071
529.224320,0.064884
529.553180,0.065542
529.882000,0.066180
530.210780,0.064672
530.539520,0.061841
530.868220,0.063667
531.196880,0.066890
531.525500,0.067312
531.854080,0.064728
532.182620,0.066324
532.511120,0.062181
532.839580,0.063521
533.168000,0.064266
533.496380,0.064840
533.824720,0.062360
534.153020,0.062862
534.481280,0.065639
534.809500,0.066403
535.137680,0.065538
535.465820,0.064003
535.793920,0.061337
536.121980,0.061687
536.450000,0.065962
536.777980,0.067030
537.105920,0.067663
537.433820,0.066694
537.761680,0.065714
538.089500,0.064751
538.417280,0.063669
538.745020,0.066165
539.072720,0.062866
539.400380,0.064491
539.728000,0.066157
540.055580,0.062172
540.383120,0.063663
540.710620,0.064360
541.038080,0.065290
541.365500,0.062500
541.692880,0.064317
542.020220,0.064052
542.347520,0.063532
542.674780,0.064220
543.002000,0.064381
543.329180,0.068748
543.656320,0.066456
543.983420,0.064957
544.310480,0.063541
544.637500,0.065165
544.964480,0.065612
545.291420,0.064473
545.618320,0.067065
545.945180,0.061964
546.272000,0.063565
546.598780,0.063913
546.925520,0.065612
547.252220,0.066028
547.578880,0.066145
547.905500,0.064379
548.232080,0.064652
548.558620,0.066059
548.885120,0.065751
549.211580,0.066860
549.538000,0.064202
549.864380,0.062701
550.190720,0.063287
550.517020,0.063885
550.843280,0.067752
551.169500,0.062341
551.495680,0.066032
551.821820,0.070216
552.147920,0.064086
552.473980,0.064208
552.800000,0.065075
553.125980,0.070072
553.451920,0.066689
553.777820,0.065956
554.103680,0.064038
554.429500,0.061600
554.755280,0.065087
555.081020,0.065842
555.406720,0.068744
555.732380,0.062013
556.058000,0.066870
556.383580,0.066416
556.709120,0.067540
557.034620,0.065794
557.360080,0.061485
557.685500,0.066390
558.010880,0.062045
558.336220,0.061160
558.661520,0.065580
558.986780,0.065911
559.312000,0.064815
559.637180,0.066068
559.962320,0.066572
560.287420,0.067701
560.612480,0.062074
560.937500,0.063510
561.262480,0.064150
561.587420,0.064563
561.912320,0.066323
562.237180,0.066617
562.562000,0.069211
562.886780,0.066146
563.211520,0.065574
563.536220,0.067532
563.860880,0.064504
564.185500,0.066417
564.510080,0.067344
564.834620,0.065501
565.159120,0.067293
565.483580,0.064614
565.808000,0.067348
566.132380,0.065274
566.456720,0.068027
566.781020,0.065641
567.105280,0.061626
567.429500,0.066009
567.753680,0.064442
568.077820,0.064554
568.401920,0.065699
568.725980,0.066034
569.050000,0.064639
569.373980,0.064713
569.697920,0.067501
570.021820,0.065543
570.345680,0.066207
570.669500,0.065242
570.993280,0.069029
571.317020,0.063939
571.640720,0.062616
571.964380,0.067186
572.288000,0.066766
572.611580,0.067765
572.935120,0.067340
573.258620,0.068437
573.582080,0.065946
573.905500,0.066270
574.228880,0.065702
574.552220,0.066325
574.875520,0.064036
575.198780,0.065775
575.522000,0.065249
575.845180,0.066619
576.168320,0.065397
576.491420,0.069041
576.814480,0.067269
577.137500,0.066378
577.460480,0.065966
577.783420,0.067881
578.106320,0.069444
578.429180,0.067162
578.752000,0.063911
579.074780,0.063385
579.397520,0.065849
579.720220,0.069820
580.042880,0.066072
580.365500,0.067836
580.688080,0.068521
581.010620,0.070537
581.333120,0.067468
581.655580,0.070596
581.978000,0.067177
582.300380,0.065888
582.622720,0.066908
582.945020,0.067620
583.267280,0.066754
583.589500,0.065490
583.911680,0.064465
584.233820,0.066100
584.555920,0.066814
584.877980,0.065327
585.200000,0.065684
585.521980,0.065493
585.843920,0.063758
586.165820,0.063985
586.487680,0.067108
586.809500,0.063606
587.131280,0.066548
587.453020,0.068750
587.774720,0.068007
588.096380,0.068261
588.418000,0.068774
588.739580,0.068698
589.061120,0.064692
589.382620,0.065903
589.704080,0.068724
590.025500,0.067352
590.346880,0.066329
590.668220,0.066088
590.989520,0.064337
591.310780,0.067385
591.632000,0.068306
591.953180,0.066704
592.274320,0.065793
592.595420,0.065463
592.916480,0.063841
593.237500,0.067098
593.558480,0.066451
593.879420,0.066631
594.200320,0.067506
594.521180,0.068792
594.842000,0.068243
595.162780,0.064904
595.483520,0.064345
595.804220,0.066058
596.124880,0.069811
596.445500,0.067330
596.766080,0.070180
597.086620,0.065552
597.407120,0.066614
597.727580,0.067356
598.048000,0.068236
598.368380,0.066018
598.688720,0.068676
599.009020,0.069268
599.329280,0.066259
599.649500,0.066297
599.969680,0.067308
600.289820,0.067308
600.609920,0.066791
600.929980,0.066542
601.250000,0.066216
601.569980,0.064002
601.889920,0.066827
602.209820,0.066829
602.529680,0.066191
602.849500,0.065739
603.169280,0.068614
603.489020,0.065873
603.808720,0.068020
604.128380,0.068157
604.448000,0.067127
604.767580,0.067598
605.087120,0.065097
605.406620,0.065771
605.726080,0.069005
606.045500,0.064921
606.364880,0.068046
606.684220,0.069103
607.003520,0.067947
607.322780,0.066799
607.642000,0.067490
607.961180,0.065915
608.280320,0.064965
608.599420,0.063441
608.918480,0.067449
609.237500,0.066901
609.556480,0.065404
609.875420,0.067631
610.194320,0.066135
610.513180,0.069843
610.832000,0.066409
611.150780,0.067588
611.469520,0.068778
611.788220,0.068622
612.106880,0.066948
612.425500,0.066382
612.744080,0.066482
613.062620,0.065138
613.381120,0.065204
613.699580,0.068363
614.018000,0.068489
614.336380,0.065700
614.654720,0.066047
614.973020,0.063869
615.291280,0.065696
615.609500,0.062758
615.927680,0.065513
616.245820,0.066481
616.563920,0.065900
616.881980,0.065794
617.200000,0.066874
617.517980,0.066895
617.835920,0.068034
618.153820,0.065589
618.471680,0.066977
618.789500,0.065450
619.107280,0.068545
619.425020,0.067555
619.742720,0.065599
620.060380,0.064870
620.378000,0.069226
620.695580,0.068966
621.013120,0.066772
621.330620,0.066520
621.648080,0.064038
621.965500,0.067127
622.282880,0.064628
622.600220,0.066646
622.917520,0.064902
623.234780,0.066860
623.552000,0.067473
623.869180,0.067444
624.186320,0.066858
624.503420,0.065517
624.820480,0.068175
625.137500,0.068835
625.454480,0.061894
625.771420,0.067781
626.088320,0.066520
626.405180,0.067517
626.722000,0.066813
627.038780,0.066729
627.355520,0.067812
627.672220,0.066563
627.988880,0.066252
628.305500,0.069492
628.622080,0.067224
628.938620,0.069113
629.255120,0.070317
629.571580,0.067423
629.888000,0.065971
630.204380,0.065971
630.520720,0.067337
630.837020,0.066297
631.153280,0.068046
631.469500,0.070649
631.785680,0.067812
632.101820,0.067551
632.417920,0.066468
632.733980,0.063926
633.050000,0.069133
633.365980,0.066094
633.681920,0.067422
633.997820,0.067842
634.313680,0.068416
634.629500,0.066647
634.945280,0.064809
635.261020,0.068976
635.576720,0.066353
635.892380,0.066512
636.208000,0.067693
636.523580,0.067816
636.839120,0.067748
637.154620,0.067536
637.470080,0.065423
637.785500,0.067409
638.100880,0.067767
638.416220,0.069025
638.731520,0.066189
639.046780,0.067579
639.362000,0.068521
639.677180,0.065106
639.992320,0.068227
640.307420,0.066592
640.622480,0.066928
640.937500,0.067684
641.252480,0.066741
641.567420,0.066780
641.882320,0.065980
642.197180,0.067378
642.512000,0.065211
642.826780,0.067406
643.141520,0.069186
643.456220,0.068069
643.770880,0.068270
644.085500,0.067915
644.400080,0.067416
644.714620,0.064939
645.029120,0.068757
645.343580,0.065826
645.658000,0.064113
645.972380,0.067964
646.286720,0.066776
646.601020,0.068087
646.915280,0.069098
647.229500,0.066484
647.543680,0.069318
647.857820,0.067437
648.171920,0.069723
648.485980,0.066320
648.800000,0.065032
649.113980,0.069290
649.427920,0.068793
649.741820,0.065952
650.055680,0.066923
650.369500,0.067545
650.683280,0.070755
650.997020,0.068207
651.310720,0.063566
651.624380,0.065659
651.938000,0.066205
652.251580,0.069301
652.565120,0.066238
652.878620,0.070946
653.192080,0.069382
653.505500,0.065638
653.818880,0.066818
654.132220,0.067787
654.445520,0.064379
654.758780,0.066006
655.072000,0.067908
655.385180,0.067618
655.698320,0.063732
656.011420,0.067068
656.324480,0.066744
656.637500,0.066628
656.950480,0.065473
657.263420,0.067691
657.576320,0.068189
657.889180,0.069301
658.202000,0.065217
658.514780,0.066389
658.827520,0.066627
659.140220,0.066227
659.452880,0.068861
659.765500,0.066526
660.078080,0.066506
660.390620,0.068133
660.703120,0.070272
661.015580,0.067485
661.328000,0.065491
661.640380,0.066480
661.952720,0.069137
662.265020,0.065848
662.577280,0.068066
662.889500,0.066225
663.201680,0.067645
663.513820,0.064973
663.825920,0.066603
664.137980,0.069813
664.450000,0.064898
664.761980,0.066776
665.073920,0.065239
665.385820,0.068063
665.697680,0.065455
666.009500,0.067842
666.321280,0.070908
666.633020,0.071144
666.944720,0.065386
667.256380,0.065949
667.568000,0.065217
667.879580,0.068367
668.191120,0.064217
668.502620,0.067100
668.814080,0.066316
669.125500,0.065002
669.436880,0.069156
669.748220,0.065074
670.059520,0.064076
670.370780,0.066458
670.682000,0.065487
670.993180,0.064482
671.304320,0.067511
671.615420,0.064986
671.926480,0.066359
672.237500,0.066095
672.548480,0.066004
672.859420,0.067191
673.170320,0.064563
673.481180,0.068067
673.792000,0.067075
674.102780,0.066427
674.413520,0.066715
674.724220,0.063884
675.034880,0.066007
675.345500,0.064551
675.656080,0.068240
675.966620,0.066570
676.277120,0.062248
676.587580,0.068115
676.898000,0.066069
677.208380,0.066543
677.518720,0.065281
677.829020,0.067627
678.139280,0.067087
678.449500,0.063127
678.759680,0.067441
679.069820,0.067286
679.379920,0.069408
679.689980,0.067211
680.000000,0.063925
680.309980,0.065330
680.619920,0.065884
680.929820,0.067563
681.239680,0.064993
681.549500,0.064074
681.859280,0.064600
682.169020,0.067885
682.478720,0.070307
682.788380,0.064599
683.098000,0.069185
683.407580,0.067542
683.717120,0.066441
684.026620,0.066265
684.336080,0.068208
684.645500,0.065844
684.954880,0.065357
685.264220,0.064175
685.573520,0.069661
685.882780,0.067894
686.192000,0.066215
686.501180,0.061672
686.810320,0.068409
687.119420,0.069555
687.428480,0.069123
687.737500,0.062932
688.046480,0.064034
688.355420,0.067899
688.664320,0.065417
688.973180,0.066616
689.282000,0.066358
689.590780,0.067868
689.899520,0.065325
690.208220,0.068425
690.516880,0.065674
690.825500,0.066792
691.134080,0.066819
691.442620,0.062500
691.751120,0.066743
692.059580,0.066870
692.368000,0.067777
692.676380,0.066794
692.984720,0.065649
693.293020,0.068009
693.601280,0.067531
693.909500,0.067348
694.217680,0.067403
694.525820,0.070830
694.833920,0.067150
695.141980,0.064790
695.450000,0.066031
695.757980,0.069137
696.065920,0.068350
696.373820,0.068129
696.681680,0.070963
696.989500,0.067541
697.297280,0.066511
697.605020,0.070238
697.912720,0.069178
698.220380,0.066116
698.528000,0.069620
698.835580,0.066377
699.143120,0.063913
699.450620,0.066030
699.758080,0.066667
700.065500,0.069433
700.372880,0.068400
700.680220,0.067012
700.987520,0.066270
701.294780,0.066910
701.602000,0.064976
701.909180,0.066375
702.216320,0.065311
702.523420,0.064720
702.830480,0.070099
703.137500,0.067420
703.444480,0.065878
703.751420,0.064300
704.058320,0.066878
704.365180,0.066640
704.672000,0.066931
704.978780,0.060476
705.285520,0.063772
705.592220,0.067059
705.898880,0.066194
706.205500,0.068466
706.512080,0.066746
706.818620,0.064628
707.125120,0.070000
707.431580,0.065651
707.738000,0.068359
708.044380,0.066770
708.350720,0.064960
708.657020,0.066041
708.963280,0.066770
709.269500,0.066928
709.575680,0.069155
709.881820,0.066038
710.187920,0.064202
710.493980,0.068658
710.800000,0.067506
711.105980,0.067018
711.411920,0.069767
711.717820,0.066667
712.023680,0.065293
712.329500,0.066246
712.635280,0.070543
712.941020,0.066486
713.246720,0.067589
713.552380,0.069466
713.858000,0.070162
714.163580,0.065509
714.469120,0.064088
714.774620,0.067114
715.080080,0.063604
715.385500,0.065947
715.690880,0.068245
715.996220,0.066561
716.301520,0.062451
716.606780,0.066038
716.912000,0.065024
717.217180,0.066640
717.522320,0.062425
717.827420,0.065907
718.132480,0.069049
718.437500,0.066857
718.742480,0.066532
719.047420,0.065534
719.352320,0.068493
719.657180,0.069501
719.962000,0.064516
720.266780,0.069381
720.571520,0.066694
720.876220,0.068740
721.180880,0.064381
721.485500,0.065608
721.790080,0.063694
722.094620,0.068182
722.399120,0.066351
722.703580,0.066867
723.008000,0.066408
723.312380,0.067155
723.616720,0.064173
723.921020,0.065829
724.225280,0.064136
724.529500,0.064799
724.833680,0.065391
725.137820,0.064758
725.441920,0.066429
725.745980,0.069351
726.050000,0.070816
726.353980,0.066697
726.657920,0.065677
726.961820,0.067580
727.265680,0.067499
727.569500,0.065814
727.873280,0.063279
728.177020,0.067711
728.480720,0.063426
728.784380,0.070456
729.088000,0.065944
729.391580,0.068688
729.695120,0.065739
729.998620,0.065966
730.302080,0.066314
730.605500,0.065987
730.908880,0.066144
731.212220,0.063663
731.515520,0.071672
731.818780,0.067476
732.122000,0.067421
732.425180,0.068014
732.728320,0.071393
733.031420,0.068170
733.334480,0.064286
733.637500,0.064516
733.940480,0.064483
734.243420,0.066259
734.546320,0.062241
734.849180,0.065599
735.152000,0.067946
735.454780,0.061983
735.757520,0.070074
736.060220,0.068457
736.362880,0.065651
736.665500,0.065274
736.968080,0.068780
737.270620,0.066413
737.573120,0.066594
737.875580,0.065970
738.178000,0.065868
738.480380,0.063784
738.782720,0.067067
739.085020,0.065529
739.387280,0.066519
739.689500,0.068516
739.991680,0.066816
740.293820,0.065229
740.595920,0.062883
740.897980,0.065500
741.200000,0.068985
741.501980,0.069914
741.803920,0.061374
742.105820,0.067118
742.407680,0.064065
742.709500,0.069886
743.011280,0.063892
743.313020,0.066667
743.614720,0.069066
743.916380,0.066860
744.218000,0.069809
744.519580,0.063406
744.821120,0.066467
745.122620,0.067106
745.424080,0.060697
745.725500,0.067592
746.026880,0.068966
746.328220,0.070284
746.629520,0.065623
746.930780,0.064338
747.232000,0.062538
747.533180,0.067114
747.834320,0.069385
748.135420,0.067122
748.436480,0.066750
748.737500,0.067326
749.038480,0.067196
749.339420,0.067828
749.640320,0.065996
749.941180,0.069332
750.242000,0.059673
750.542780,0.069479
750.843520,0.067905
751.144220,0.070513
751.444880,0.068484
751.745500,0.065584
752.046080,0.067351
752.346620,0.065077
752.647120,0.062051
752.947580,0.071798
753.248000,0.066409
753.548380,0.063761
753.848720,0.070187
754.149020,0.062540
754.449280,0.066973
754.749500,0.066357
755.049680,0.066667
755.349820,0.065377
755.649920,0.067416
755.949980,0.068348
756.250000,0.069691
756.549980,0.069307
756.849920,0.068661
757.149820,0.063872
757.449680,0.067987
757.749500,0.064758
758.049280,0.070307
758.349020,0.064673
758.648720,0.069013
758.948380,0.065979
759.248000,0.064690
759.547580,0.066577
759.847120,0.064094
760.146620,0.071042
760.446080,0.065188
760.745500,0.067133
761.044880,0.068182
761.344220,0.066999
761.643520,0.062147
761.942780,0.065080
762.242000,0.068600
762.541180,0.059859
762.840320,0.069522
763.139420,0.063291
763.438480,0.062201
763.737500,0.063405
764.036480,0.066387
764.335420,0.068454
764.634320,0.067221
764.933180,0.071918
765.232000,0.072172
765.530780,0.068070
765.829520,0.067832
766.128220,0.066806
766.426880,0.065387
766.725500,0.063742
767.024080,0.063786
767.322620,0.065698
767.621120,0.065718
767.919580,0.064846
768.218000,0.066347
768.516380,0.066261
768.814720,0.067901
769.113020,0.068918
769.411280,0.069751
769.709500,0.063599
770.007680,0.060668
770.305820,0.071670
770.603920,0.068733
770.901980,0.069672
771.200000,0.063179
771.497980,0.073056
771.795920,0.064883
772.093820,0.066845
772.391680,0.063283
772.689500,0.060135
772.987280,0.064646
773.285020,0.063568
773.582720,0.066216
773.880380,0.063830
774.178000,0.065440
774.475580,0.070998
774.773120,0.061580
775.070620,0.062880
775.368080,0.068136
775.665500,0.063130
775.962880,0.068712
776.260220,0.068641
776.557520,0.069380
776.854780,0.067613
777.152000,0.061671
777.449180,0.065408
777.746320,0.065188
778.043420,0.068895
778.340480,0.059540
778.637500,0.069642
778.934480,0.069939
779.231420,0.064450
779.528320,0.062124
779.825180,0.069829
780.122000,0.067729
780.418780,0.073187
780.715520,0.068410
781.012220,0.067808
781.308880,0.066937
781.605500,0.063699
781.902080,0.066393
782.198620,0.066302
782.495120,0.066529
782.791580,0.065337
783.088000,0.065562
783.384380,0.068088
783.680720,0.068399
783.977020,0.066070
784.273280,0.067133
784.569500,0.066387
784.865680,0.066064
785.161820,0.068750
785.457920,0.059598
785.753980,0.066294
786.050000,0.070442
786.345980,0.064583
786.641920,0.068702
786.937820,0.069801
787.233680,0.068894
787.529500,0.063107
787.825280,0.070822
788.121020,0.066572
788.416720,0.062809
788.712380,0.066996
789.008000,0.063031
789.303580,0.065018
789.599120,0.061091
789.894620,0.067870
790.190080,0.063814
790.485500,0.062635
790.780880,0.068817
791.076220,0.071429
791.371520,0.066086
791.666780,0.070545
791.962000,0.064658
792.257180,0.065886
792.552320,0.068891
792.847420,0.068413
793.142480,0.073993
793.437500,0.066570
793.732480,0.065106
794.027420,0.068249
794.322320,0.067114
794.617180,0.067608
794.912000,0.063150
795.206780,0.064131
795.501520,0.063118
795.796220,0.064444
796.090880,0.069329
796.385500,0.063718
796.680080,0.059835
796.974620,0.069611
797.269120,0.062074
797.563580,0.069466
797.858000,0.066819
798.152380,0.064965
798.446720,0.063077
798.741020,0.065485
799.035280,0.064441
799.329500,0.065435
799.623680,0.068992
