399.985280,0.054054
400.329500,0.040541
400.673680,0.037975
401.017820,0.000000
401.361920,-0.030303
401.705980,-0.024390
402.050000,-0.064935
402.393980,0.035294
402.737920,0.067416
403.081820,0.082474
403.425680,0.023256
403.769500,0.010417
404.113280,0.000000
404.457020,0.033708
404.800720,-0.010870
405.144380,0.101010
405.488000,0.021505
405.831580,0.041237
406.175120,0.053191
406.518620,0.060000
406.862080,0.082474
407.205500,0.000000
407.548880,0.040816
407.892220,0.009804
408.235520,0.031915
408.578780,0.076190
408.922000,0.038462
409.265180,0.080808
409.608320,0.050505
409.951420,0.092784
410.294480,0.088235
410.637500,0.043478
410.980480,0.058824
411.323420,0.020408
411.666320,0.064220
412.009180,0.100000
412.352000,0.000000
412.694780,0.045872
413.037520,0.027523
413.380220,0.045045
413.722880,0.071429
414.065500,0.063063
414.408080,0.044248
414.750620,0.000000
415.093120,0.041322
415.435580,0.075630
415.778000,0.053030
416.120380,0.025210
416.462720,0.031746
416.805020,0.037594
417.147280,0.052239
417.489500,0.057143
417.831680,0.061644
418.173820,0.042553
418.515920,0.048951
418.857980,0.056962
419.200000,0.076923
419.541980,0.059172
419.883920,0.044944
420.225820,0.057803
420.567680,0.050279
420.909500,0.060109
421.251280,0.046875
421.593020,0.045918
421.934720,0.035354
422.276380,0.030769
422.618000,0.078431
422.959580,0.068627
423.301120,0.059361
423.642620,0.047826
423.984080,0.041860
424.325500,0.044843
424.666880,0.030172
425.008220,0.029412
425.349520,0.059322
425.690780,0.038462
426.032000,0.031373
426.373180,0.041494
426.714320,0.062500
427.055420,0.061776
427.396480,0.052434
427.737500,0.043478
428.078480,0.023715
428.419420,0.044177
428.760320,0.045977
429.101180,0.066929
429.442000,0.053640
429.782780,0.046154
430.123520,0.027451
430.464220,0.059041
430.804880,0.049808
431.145500,0.040000
431.486080,0.056180
431.826620,0.046512
432.167120,0.044118
432.507580,0.047101
432.848000,0.046763
433.188380,0.039711
433.528720,0.026415
433.869020,0.053571
434.209280,0.035088
434.549500,0.069686
434.889680,0.063973
435.229820,0.044369
435.569920,0.034602
435.909980,0.038835
436.250000,0.047458
436.589980,0.024768
436.929920,0.053968
437.269820,0.047022
437.609680,0.059172
437.949500,0.051205
438.289280,0.045326
438.629020,0.069767
438.968720,0.043605
439.308380,0.048780
439.648000,0.046575
439.987580,0.055556
440.327120,0.050667
440.666620,0.049351
441.006080,0.051151
441.345500,0.041769
441.684880,0.040670
442.024220,0.049628
442.363520,0.045238
442.702780,0.045455
443.042000,0.044053
443.381180,0.045259
443.720320,0.064795
444.059420,0.037815
444.398480,0.048117
444.737500,0.055328
445.076480,0.049603
445.415420,0.057884
445.754320,0.037422
446.093180,0.051376
446.432000,0.039474
446.770780,0.043643
447.109520,0.053309
447.448220,0.053667
447.786880,0.059034
448.125500,0.056897
448.464080,0.044643
448.802620,0.058511
449.141120,0.048443
449.479580,0.050699
449.818000,0.049914
450.156380,0.050167
450.494720,0.051240
450.833020,0.061189
451.171280,0.042808
451.509500,0.045296
451.847680,0.053963
452.185820,0.049914
452.523920,0.058419
452.861980,0.047218
453.200000,0.048173
453.537980,0.048739
453.875920,0.047059
454.213820,0.047945
454.551680,0.051325
454.889500,0.045531
455.227280,0.033808
455.565020,0.051926
455.902720,0.053245
456.240380,0.041597
456.578000,0.052265
456.915580,0.044905
457.253120,0.060855
457.590620,0.060755
457.928080,0.055556
458.265500,0.048986
458.602880,0.058442
458.940220,0.040609
459.277520,0.054400
459.614780,0.054010
459.952000,0.052795
460.289180,0.053797
460.626320,0.045669
460.963420,0.045234
461.300480,0.050459
461.637500,0.043143
461.974480,0.050459
462.311420,0.043219
462.648320,0.057101
462.985180,0.053085
463.322000,0.052083
463.658780,0.046961
463.995520,0.044017
464.332220,0.033241
464.668880,0.048387
465.005500,0.049598
465.342080,0.052497
465.678620,0.045510
466.015120,0.046572
466.351580,0.050569
466.688000,0.053593
467.024380,0.048603
467.360720,0.053409
467.697020,0.050114
468.033280,0.060000
468.369500,0.055188
468.705680,0.054115
469.041820,0.048958
469.377920,0.046638
469.713980,0.045314
470.050000,0.055072
470.385980,0.051859
470.721920,0.050930
471.057820,0.050682
471.393680,0.054256
471.729500,0.047266
472.065280,0.052773
472.401020,0.053191
472.736720,0.048866
473.072380,0.046679
473.408000,0.041775
473.743580,0.045848
474.079120,0.055125
474.414620,0.048346
474.750080,0.052889
475.085500,0.053454
475.420880,0.044963
475.756220,0.054783
476.091520,0.049446
476.426780,0.049353
476.762000,0.045857
477.097180,0.049600
477.432320,0.053312
477.767420,0.049020
478.102480,0.050394
478.437500,0.045977
478.772480,0.046493
479.107420,0.048007
479.442320,0.049560
479.777180,0.049324
480.112000,0.055470
480.446780,0.053780
480.781520,0.049919
481.116220,0.050121
481.450880,0.048400
481.785500,0.052215
482.120080,0.050940
482.454620,0.052836
482.789120,0.046178
483.123580,0.051402
483.458000,0.050633
483.792380,0.046326
484.126720,0.054054
484.461020,0.054645
484.795280,0.051658
485.129500,0.056898
485.463680,0.051938
485.797820,0.055988
486.131920,0.050497
486.465980,0.053282
486.800000,0.055725
487.133980,0.049849
487.467920,0.048967
487.801820,0.054157
488.135680,0.053071
488.469500,0.047655
488.803280,0.053492
489.137020,0.050549
489.470720,0.054896
489.804380,0.055679
490.138000,0.054154
490.471580,0.058217
490.805120,0.051465
491.138620,0.052594
491.472080,0.051590
491.805500,0.056485
492.138880,0.050730
492.472220,0.052595
492.805520,0.052374
493.138780,0.057891
493.472000,0.053512
493.805180,0.052524
494.138320,0.057372
494.471420,0.054036
494.804480,0.053040
495.137500,0.055199
495.470480,0.056724
495.803420,0.054786
496.136320,0.055138
496.469180,0.054021
496.802000,0.048289
497.134780,0.053366
497.467520,0.055046
497.800220,0.051297
498.132880,0.049383
498.465500,0.053882
498.798080,0.053653
499.130620,0.056710
499.463120,0.053902
499.795580,0.053905
500.128000,0.051771
500.460380,0.051130
500.792720,0.050371
501.125020,0.051498
501.457280,0.051697
501.789500,0.054236
502.121680,0.055988
502.453820,0.056094
502.785920,0.053527
503.117980,0.056428
503.450000,0.052737
503.781980,0.056303
504.113920,0.052632
504.445820,0.050073
504.777680,0.048471
505.109500,0.053846
505.441280,0.054493
505.773020,0.049319
506.104720,0.049929
506.436380,0.055845
506.768000,0.054256
507.099580,0.050801
507.431120,0.053396
507.762620,0.054981
508.094080,0.053783
508.425500,0.056022
508.756880,0.052583
509.088220,0.057038
509.419520,0.049814
509.750780,0.051546
510.082000,0.056437
510.413180,0.053892
510.744320,0.055223
511.075420,0.053162
511.406480,0.053126
511.737500,0.050000
512.068480,0.054041
512.399420,0.054460
512.730320,0.050808
513.061180,0.049477
513.392000,0.054898
513.722780,0.055235
514.053520,0.056061
514.384220,0.050428
514.714880,0.052657
515.045500,0.048851
515.376080,0.052785
515.706620,0.056503
516.037120,0.052941
516.367580,0.050271
516.698000,0.053431
517.028380,0.053625
517.358720,0.053333
517.689020,0.056874
518.019280,0.053186
518.349500,0.052712
518.679680,0.056032
519.009820,0.050607
519.339920,0.054108
519.669980,0.051231
520.000000,0.056037
520.329980,0.054432
520.659920,0.052658
520.989820,0.054180
521.319680,0.058128
521.649500,0.050386
521.979280,0.056367
522.309020,0.054461
522.638720,0.053251
522.968380,0.059979
523.298000,0.055324
523.627580,0.053802
523.957120,0.058182
524.286620,0.053674
524.616080,0.054809
524.945500,0.055814
525.274880,0.056952
525.604220,0.052795
525.933520,0.051363
526.262780,0.050177
526.592000,0.054287
526.921180,0.057897
527.250320,0.050228
527.579420,0.054573
527.908480,0.055638
528.237500,0.056604
528.566480,0.057385
528.895420,0.057664
529.224320,0.055968
529.553180,0.055904
529.882000,0.062774
530.210780,0.055019
530.539520,0.056568
530.868220,0.055529
531.196880,0.053512
531.525500,0.056174
531.854080,0.053471
532.182620,0.053246
532.511120,0.055220
532.839580,0.056261
533.168000,0.055606
533.496380,0.055251
533.824720,0.051593
534.153020,0.058404
534.481280,0.057269
534.809500,0.058047
535.137680,0.055556
535.465820,0.058419
535.793920,0.056261
536.121980,0.054973
536.450000,0.056660
536.777980,0.058232
537.105920,0.057700
537.433820,0.056465
537.761680,0.057551
538.089500,0.057871
538.417280,0.055710
538.745020,0.057448
539.072720,0.053885
539.400380,0.057110
539.728000,0.060038
540.055580,0.056929
540.383120,0.055845
540.710620,0.055804
541.038080,0.056806
541.365500,0.056985
541.692880,0.056686
542.020220,0.055775
542.347520,0.058507
542.674780,0.057163
543.002000,0.057033
543.329180,0.058225
543.656320,0.059775
543.983420,0.054359
544.310480,0.056405
544.637500,0.057318
544.964480,0.058546
545.291420,0.059156
545.618320,0.056441
545.945180,0.053724
546.272000,0.057339
546.598780,0.058014
546.925520,0.055720
547.252220,0.056124
547.578880,0.058651
547.905500,0.055229
548.232080,0.055231
548.558620,0.055646
548.885120,0.055937
549.211580,0.054645
549.538000,0.056096
549.864380,0.056270
550.190720,0.058444
550.517020,0.057366
550.843280,0.059283
551.169500,0.055980
551.495680,0.056505
551.821820,0.059765
552.147920,0.059532
552.473980,0.056635
552.800000,0.058535
553.125980,0.057629
553.451920,0.058726
553.777820,0.055630
554.103680,0.055275
554.429500,0.057248
554.755280,0.056409
555.081020,0.056150
555.406720,0.056553
555.732380,0.055913
556.058000,0.060760
556.383580,0.058199
556.709120,0.058580
557.034620,0.056149
557.360080,0.055959
557.685500,0.057400
558.010880,0.055113
558.336220,0.054833
558.661520,0.056363
558.986780,0.058115
559.312000,0.056268
559.637180,0.058169
559.962320,0.055180
560.287420,0.059944
560.612480,0.055615
560.937500,0.058737
561.262480,0.057185
561.587420,0.057309
561.912320,0.054532
562.237180,0.057365
562.562000,0.056117
562.886780,0.059829
563.211520,0.058867
563.536220,0.056772
563.860880,0.053187
564.185500,0.055159
564.510080,0.057186
564.834620,0.058057
565.159120,0.056767
565.483580,0.058153
565.808000,0.057132
566.132380,0.057814
566.456720,0.060091
566.781020,0.054389
567.105280,0.055198
567.429500,0.059939
567.753680,0.057921
568.077820,0.059528
568.401920,0.058824
568.725980,0.060721
569.050000,0.058175
569.373980,0.058241
569.697920,0.057641
570.021820,0.057303
570.345680,0.057405
570.669500,0.055704
570.993280,0.059062
571.317020,0.056997
571.640720,0.059281
571.964380,0.056793
572.288000,0.058605
572.611580,0.058405
572.935120,0.057987
573.258620,0.059088
573.582080,0.058867
573.905500,0.058451
574.228880,0.057906
574.552220,0.058630
574.875520,0.058824
575.198780,0.058186
575.522000,0.057918
575.845180,0.056590
576.168320,0.059648
576.491420,0.061047
576.814480,0.059675
577.137500,0.060606
577.460480,0.058717
577.783420,0.058950
578.106320,0.058761
578.429180,0.058678
578.752000,0.057659
579.074780,0.059002
579.397520,0.059716
579.720220,0.056306
580.042880,0.056822
580.365500,0.059232
580.688080,0.060719
581.010620,0.060074
581.333120,0.059118
581.655580,0.060939
581.978000,0.059195
582.300380,0.057773
582.622720,0.061305
582.945020,0.061118
583.267280,0.057310
583.589500,0.058427
583.911680,0.060019
584.233820,0.057602
584.555920,0.061456
584.877980,0.059673
585.200000,0.062615
585.521980,0.056843
585.843920,0.058267
586.165820,0.056368
586.487680,0.060488
586.809500,0.060906
587.131280,0.061224
587.453020,0.059821
587.774720,0.060024
588.096380,0.059802
588.418000,0.059409
588.739580,0.063524
589.061120,0.060380
589.382620,0.056734
589.704080,0.059748
590.025500,0.059075
590.346880,0.060427
590.668220,0.057687
590.989520,0.056850
591.310780,0.061033
591.632000,0.061475
591.953180,0.060061
592.274320,0.058968
592.595420,0.060614
592.916480,0.059766
593.237500,0.060361
593.558480,0.059995
593.879420,0.060156
594.200320,0.061345
594.521180,0.057902
594.842000,0.059914
595.162780,0.061432
595.483520,0.059027
595.804220,0.058808
596.124880,0.058353
596.445500,0.059733
596.766080,0.059425
597.086620,0.061571
597.407120,0.059768
597.727580,0.058605
598.048000,0.061624
598.368380,0.057075
598.688720,0.057929
599.009020,0.059448
599.329280,0.059074
599.649500,0.058109
599.969680,0.058494
600.289820,0.060897
600.609920,0.057975
600.929980,0.057723
601.250000,0.057297
601.569980,0.058601
601.889920,0.060412
602.209820,0.060065
602.529680,0.061522
602.849500,0.059738
603.169280,0.059796
603.489020,0.058677
603.808720,0.058969
604.128380,0.059603
604.448000,0.058840
604.767580,0.057821
605.087120,0.060388
605.406620,0.060174
605.726080,0.059880
606.045500,0.058512
606.364880,0.059824
606.684220,0.062821
607.003520,0.060206
607.322780,0.058556
607.642000,0.060885
607.961180,0.057242
608.280320,0.058585
608.599420,0.057358
608.918480,0.058065
609.237500,0.061620
609.556480,0.058301
609.875420,0.058771
610.194320,0.059640
610.513180,0.061261
610.832000,0.059559
611.150780,0.060378
611.469520,0.059729
611.788220,0.059855
612.106880,0.060615
612.425500,0.055725
612.744080,0.058480
613.062620,0.059021
613.381120,0.057892
613.699580,0.060699
614.018000,0.059582
614.336380,0.058606
614.654720,0.060775
614.973020,0.058315
615.291280,0.058258
615.609500,0.060222
615.927680,0.058096
616.245820,0.059369
616.563920,0.058129
616.881980,0.059245
617.200000,0.060653
617.517980,0.058494
617.835920,0.059335
618.153820,0.058750
618.471680,0.061395
618.789500,0.059471
619.107280,0.061033
619.425020,0.058040
619.742720,0.062147
620.060380,0.057976
620.378000,0.059157
620.695580,0.060983
621.013120,0.057008
621.330620,0.061186
621.648080,0.060568
621.965500,0.061167
622.282880,0.060845
622.600220,0.061276
622.917520,0.059231
623.234780,0.060109
623.552000,0.058880
623.869180,0.058935
624.186320,0.063674
624.503420,0.061442
624.820480,0.059064
625.137500,0.060309
625.454480,0.059706
625.771420,0.058638
626.088320,0.059899
626.405180,0.061605
626.722000,0.062422
627.038780,0.060464
627.355520,0.060937
627.672220,0.063764
627.988880,0.057854
628.305500,0.061078
628.622080,0.064126
628.938620,0.061162
629.255120,0.061917
629.571580,0.058842
629.888000,0.057073
630.204380,0.061675
630.520720,0.061548
630.837020,0.061980
631.153280,0.060851
631.469500,0.059733
631.785680,0.060880
632.101820,0.063329
632.417920,0.062891
632.733980,0.058223
633.050000,0.062159
633.365980,0.061944
633.681920,0.059964
633.997820,0.060072
634.313680,0.063403
634.629500,0.058685
634.945280,0.061877
635.261020,0.062225
635.576720,0.059014
635.892380,0.059541
636.208000,0.062464
636.523580,0.062262
636.839120,0.059931
637.154620,0.059130
637.470080,0.060258
637.785500,0.063013
638.100880,0.062265
638.416220,0.064711
638.731520,0.060172
639.046780,0.060297
639.362000,0.060206
639.677180,0.059966
639.992320,0.059769
640.307420,0.062658
640.622480,0.061047
640.937500,0.061859
641.252480,0.061435
641.567420,0.060244
641.882320,0.060690
642.197180,0.060079
642.512000,0.062413
642.826780,0.059639
643.141520,0.060017
643.456220,0.061151
643.770880,0.061360
644.085500,0.061207
644.400080,0.060955
644.714620,0.060758
645.029120,0.062431
645.343580,0.061163
645.658000,0.057730
645.972380,0.062757
646.286720,0.058599
646.601020,0.059784
646.915280,0.061146
647.229500,0.060440
647.543680,0.061861
647.857820,0.058079
648.171920,0.062941
648.485980,0.059468
648.800000,0.058969
649.113980,0.060144
649.427920,0.063800
649.741820,0.059357
650.055680,0.060889
650.369500,0.061939
650.683280,0.061876
650.997020,0.061331
651.310720,0.060264
651.624380,0.061538
651.938000,0.060388
652.251580,0.061508
652.565120,0.058971
652.878620,0.063908
653.192080,0.060112
653.505500,0.058906
653.818880,0.058288
654.132220,0.058103
654.445520,0.061826
654.758780,0.062606
655.072000,0.059312
655.385180,0.061056
655.698320,0.058874
656.011420,0.061336
656.324480,0.060332
656.637500,0.060545
656.950480,0.057546
657.263420,0.060893
657.576320,0.061370
657.889180,0.060749
658.202000,0.056763
658.514780,0.061328
658.827520,0.060324
659.140220,0.060234
659.452880,0.060103
659.765500,0.060205
660.078080,0.062293
660.390620,0.058051
660.703120,0.061412
661.015580,0.061350
661.328000,0.062343
661.640380,0.063995
661.952720,0.061974
662.265020,0.062382
662.577280,0.062341
662.889500,0.060233
663.201680,0.063178
663.513820,0.059826
663.825920,0.059878
664.137980,0.061409
664.450000,0.060102
664.761980,0.061538
665.073920,0.060695
665.385820,0.060537
665.697680,0.061157
666.009500,0.061856
666.321280,0.061962
666.633020,0.064495
666.944720,0.060667
667.256380,0.057873
667.568000,0.059103
667.879580,0.059184
668.191120,0.060440
668.502620,0.061623
668.814080,0.060000
669.125500,0.060212
669.436880,0.061895
669.748220,0.062998
670.059520,0.064776
670.370780,0.063674
670.682000,0.060885
670.993180,0.063425
671.304320,0.062236
671.615420,0.060014
671.926480,0.061391
672.237500,0.061093
672.548480,0.062101
672.859420,0.061472
673.170320,0.062749
673.481180,0.060825
673.792000,0.059502
674.102780,0.062118
674.413520,0.059059
674.724220,0.060617
675.034880,0.061239
675.345500,0.060175
675.656080,0.062795
675.966620,0.059658
676.277120,0.061882
676.587580,0.058910
676.898000,0.055618
677.208380,0.057301
677.518720,0.061269
677.829020,0.059867
678.139280,0.060786
678.449500,0.063127
678.759680,0.059198
679.069820,0.059851
679.379920,0.059977
679.689980,0.061641
680.000000,0.058692
680.309980,0.063474
680.619920,0.059069
680.929820,0.062337
681.239680,0.058346
681.549500,0.063333
681.859280,0.061613
682.169020,0.058560
682.478720,0.063949
682.788380,0.060539
683.098000,0.059835
683.407580,0.063039
683.717120,0.060060
684.026620,0.060617
684.336080,0.062145
684.645500,0.056491
684.954880,0.058557
685.264220,0.062288
685.573520,0.065093
685.882780,0.060990
686.192000,0.059819
686.501180,0.059781
686.810320,0.063413
687.119420,0.062334
687.428480,0.061907
687.737500,0.060246
688.046480,0.057899
688.355420,0.063372
688.664320,0.061974
688.973180,0.061639
689.282000,0.057485
689.590780,0.057515
689.899520,0.058488
690.208220,0.062309
690.516880,0.059565
690.825500,0.061887
691.134080,0.061124
691.442620,0.062500
691.751120,0.062950
692.059580,0.063049
692.368000,0.060583
692.676380,0.059160
692.984720,0.061450
693.293020,0.060790
693.601280,0.061427
693.909500,0.061294
694.217680,0.060168
694.525820,0.063595
694.833920,0.059519
695.141980,0.063633
695.450000,0.061069
695.757980,0.059587
696.065920,0.059806
696.373820,0.062741
696.681680,0.060606
696.989500,0.062138
697.297280,0.062233
697.605020,0.063095
697.912720,0.059570
698.220380,0.060213
698.528000,0.063291
698.835580,0.063216
699.143120,0.059626
699.450620,0.062053
699.758080,0.062353
700.065500,0.061852
700.372880,0.066000
700.680220,0.062226
700.987520,0.062698
701.294780,0.062449
701.602000,0.062203
701.909180,0.060811
702.216320,0.061400
702.523420,0.061563
702.830480,0.062574
703.137500,0.060795
703.444480,0.065483
703.751420,0.061933
704.058320,0.060150
704.365180,0.060726
704.672000,0.062970
704.978780,0.059696
705.285520,0.059468
705.592220,0.060000
705.898880,0.063830
706.205500,0.060642
706.512080,0.058847
706.818620,0.061920
707.125120,0.062308
707.431580,0.058226
707.738000,0.062891
708.044380,0.059822
708.350720,0.060757
708.657020,0.061352
708.963280,0.062500
709.269500,0.062231
709.575680,0.061690
709.881820,0.062500
710.187920,0.058755
710.493980,0.060900
710.800000,0.061022
711.105980,0.059488
711.411920,0.057942
711.717820,0.060429
712.023680,0.058298
712.329500,0.061909
712.635280,0.062016
712.941020,0.064167
713.246720,0.059684
713.552380,0.059262
713.858000,0.063461
714.163580,0.061563
714.469120,0.060571
714.774620,0.058429
715.080080,0.060463
715.385500,0.059153
715.690880,0.059566
715.996220,0.061014
716.301520,0.061265
716.606780,0.061321
716.912000,0.058562
717.217180,0.062650
717.522320,0.063618
717.827420,0.060618
718.132480,0.059815
718.437500,0.060334
718.742480,0.058468
719.047420,0.061893
719.352320,0.061851
719.657180,0.061325
719.962000,0.060380
720.266780,0.059826
720.571520,0.060895
720.876220,0.063830
721.180880,0.059365
721.485500,0.060593
721.790080,0.063694
722.094620,0.060892
722.399120,0.062473
722.703580,0.063009
723.008000,0.062527
723.312380,0.060697
723.616720,0.059074
723.921020,0.061932
724.225280,0.060646
724.529500,0.061734
724.833680,0.060053
725.137820,0.058590
725.441920,0.062416
725.745980,0.065324
726.050000,0.061344
726.353980,0.059937
726.657920,0.062078
726.961820,0.062100
727.265680,0.062876
727.569500,0.062157
727.873280,0.060508
728.177020,0.065408
728.480720,0.060185
728.784380,0.062471
729.088000,0.058879
729.391580,0.058266
729.695120,0.057102
729.998620,0.061185
730.302080,0.062470
730.605500,0.059195
730.908880,0.064184
731.212220,0.055828
731.515520,0.060458
731.818780,0.061650
732.122000,0.062008
732.425180,0.057664
732.728320,0.066931
733.031420,0.061654
733.334480,0.058673
733.637500,0.061492
733.940480,0.060901
734.243420,0.062181
734.546320,0.060685
734.849180,0.058884
735.152000,0.061203
735.454780,0.058368
735.757520,0.061117
736.060220,0.060032
736.362880,0.062500
736.665500,0.059530
736.968080,0.061257
737.270620,0.065324
737.573120,0.058406
737.875580,0.065970
738.178000,0.057158
738.480380,0.058919
738.782720,0.064340
739.085020,0.057819
739.387280,0.058758
739.689500,0.061721
739.991680,0.061202
740.293820,0.058043
740.595920,0.059544
740.897980,0.063806
741.200000,0.067302
741.501980,0.060172
741.803920,0.063063
742.105820,0.063734
742.407680,0.063483
742.709500,0.056250
743.011280,0.056858
743.313020,0.059710
743.614720,0.059199
743.916380,0.062791
744.218000,0.065036
744.519580,0.064010
744.821120,0.064671
745.122620,0.062313
745.424080,0.057692
745.725500,0.057936
746.026880,0.061576
746.328220,0.056720
746.629520,0.062613
746.930780,0.062500
747.232000,0.060699
747.533180,0.059793
747.834320,0.061473
748.135420,0.059043
748.436480,0.061759
748.737500,0.065473
749.038480,0.064142
749.339420,0.064095
749.640320,0.060968
749.941180,0.060587
750.242000,0.059045
750.542780,0.064516
750.843520,0.065343
751.144220,0.062179
751.444880,0.064680
751.745500,0.057792
752.046080,0.061578
752.346620,0.059278
752.647120,0.060745
752.947580,0.062096
753.248000,0.065119
753.548380,0.057905
753.848720,0.059240
754.149020,0.057382
754.449280,0.065003
754.749500,0.057731
755.049680,0.059333
755.349820,0.058706
755.649920,0.060145
755.949980,0.064366
756.250000,0.062459
756.549980,0.065347
756.849920,0.065942
757.149820,0.059880
757.449680,0.066667
757.749500,0.062031
758.049280,0.062116
758.349020,0.063978
758.648720,0.068323
758.948380,0.059794
759.248000,0.053235
759.547580,0.061197
759.847120,0.062026
760.146620,0.064953
760.446080,0.057796
760.745500,0.057343
761.044880,0.061790
761.344220,0.056308
761.643520,0.063559
761.942780,0.064381
762.242000,0.063649
762.541180,0.059155
762.840320,0.061798
763.139420,0.059775
763.438480,0.060834
763.737500,0.059959
764.036480,0.068484
764.335420,0.065632
764.634320,0.060291
764.933180,0.066438
765.232000,0.063845
765.530780,0.060351
765.829520,0.059441
766.128220,0.066110
766.426880,0.058991
766.725500,0.064428
767.024080,0.056927
767.322620,0.055325
767.621120,0.060298
767.919580,0.058703
768.218000,0.061560
768.516380,0.062880
768.814720,0.061043
769.113020,0.063405
769.411280,0.062845
769.709500,0.058187
770.007680,0.055215
770.305820,0.062204
770.603920,0.061995
770.901980,0.064208
771.200000,0.059103
771.497980,0.063003
771.795920,0.054849
772.093820,0.060829
772.391680,0.062624
772.689500,0.058784
772.987280,0.056566
773.285020,0.060150
773.582720,0.058784
773.880380,0.061084
774.178000,0.058623
774.475580,0.061621
774.773120,0.060241
775.070620,0.058147
775.368080,0.068136
775.665500,0.059772
775.962880,0.062041
776.260220,0.059892
776.557520,0.061374
776.854780,0.060852
777.152000,0.058355
777.449180,0.060688
777.746320,0.057124
778.043420,0.068213
778.340480,0.061570
778.637500,0.060852
778.934480,0.066577
779.231420,0.059023
779.528320,0.060788
779.825180,0.061924
780.122000,0.061753
780.418780,0.068399
780.715520,0.069081
781.012220,0.062329
781.308880,0.061528
781.605500,0.060959
781.902080,0.065708
782.198620,0.059467
782.495120,0.060357
782.791580,0.060523
783.088000,0.065562
783.384380,0.062586
783.680720,0.062244
783.977020,0.059188
784.273280,0.065035
784.569500,0.058700
784.865680,0.061892
785.161820,0.061806
785.457920,0.057519
785.753980,0.057223
786.050000,0.058011
786.345980,0.064583
786.641920,0.063845
786.937820,0.059829
787.233680,0.058455
787.529500,0.063800
787.825280,0.061615
788.121020,0.058074
788.416720,0.059280
788.712380,0.062059
789.008000,0.063739
789.303580,0.060071
789.599120,0.058182
789.894620,0.064260
790.190080,0.055838
790.485500,0.060475
790.780880,0.063799
791.076220,0.061328
791.371520,0.061728
791.666780,0.068364
791.962000,0.061719
792.257180,0.059297
792.552320,0.068165
792.847420,0.063319
793.142480,0.066667
793.437500,0.059334
793.732480,0.062180
794.027420,0.060089
794.322320,0.059657
794.617180,0.060178
794.912000,0.062407
795.206780,0.058911
795.501520,0.063118
795.796220,0.056296
796.090880,0.058026
796.385500,0.061469
796.680080,0.062827
796.974620,0.062874
797.269120,0.060560
797.563580,0.064885
797.858000,0.065300
798.152380,0.063418
798.446720,0.062308
798.741020,0.063174
799.035280,0.061335
799.329500,0.057737
799.623680,0.062791
