399.985280,0.067568
400.329500,0.067568
400.673680,0.025316
401.017820,0.073529
401.361920,-0.030303
401.705980,0.024390
402.050000,0.038961
402.393980,0.058824
402.737920,0.000000
403.081820,0.092784
403.425680,0.058140
403.769500,0.000000
404.113280,-0.011494
404.457020,0.000000
404.800720,-0.065217
405.144380,0.080808
405.488000,0.064516
405.831580,0.072165
406.175120,0.074468
406.518620,0.070000
406.862080,0.072165
407.205500,0.041667
407.548880,-0.010204
407.892220,0.039216
408.235520,0.031915
408.578780,0.057143
408.922000,0.038462
409.265180,0.111111
409.608320,0.060606
409.951420,0.061856
410.294480,0.078431
410.637500,0.043478
410.980480,0.029412
411.323420,0.071429
411.666320,0.045872
412.009180,0.100000
412.352000,0.039604
412.694780,0.082569
413.037520,0.018349
413.380220,0.054054
413.722880,0.071429
414.065500,0.036036
414.408080,0.017699
414.750620,0.026549
415.093120,0.000000
415.435580,0.033613
415.778000,0.053030
416.120380,0.033613
416.462720,0.047619
416.805020,0.015038
417.147280,0.037313
417.489500,0.050000
417.831680,0.020548
418.173820,0.014184
418.515920,0.041958
418.857980,0.025316
419.200000,0.032051
419.541980,0.065089
419.883920,0.067416
420.225820,0.046243
420.567680,0.055866
420.909500,0.060109
421.251280,0.067708
421.593020,0.056122
421.934720,0.050505
422.276380,0.025641
422.618000,0.049020
422.959580,0.053922
423.301120,0.041096
423.642620,0.034783
423.984080,0.027907
424.325500,0.031390
424.666880,0.038793
425.008220,0.037815
425.349520,0.050847
425.690780,0.050000
426.032000,0.043137
426.373180,0.041494
426.714320,0.031250
427.055420,0.050193
427.396480,0.063670
427.737500,0.031621
428.078480,0.039526
428.419420,0.032129
428.760320,0.034483
429.101180,0.074803
429.442000,0.049808
429.782780,0.046154
430.123520,0.058824
430.464220,0.040590
430.804880,0.065134
431.145500,0.032727
431.486080,0.056180
431.826620,0.054264
432.167120,0.036765
432.507580,0.065217
432.848000,0.057554
433.188380,0.079422
433.528720,0.049057
433.869020,0.060714
434.209280,0.035088
434.549500,0.066202
434.889680,0.067340
435.229820,0.044369
435.569920,0.034602
435.909980,0.038835
436.250000,0.050847
436.589980,0.040248
436.929920,0.047619
437.269820,0.043887
437.609680,0.053254
437.949500,0.051205
438.289280,0.042493
438.629020,0.055233
438.968720,0.055233
439.308380,0.056911
439.648000,0.060274
439.987580,0.058201
440.327120,0.045333
440.666620,0.044156
441.006080,0.043478
441.345500,0.051597
441.684880,0.045455
442.024220,0.032258
442.363520,0.040476
442.702780,0.034091
443.042000,0.037445
443.381180,0.060345
443.720320,0.058315
444.059420,0.050420
444.398480,0.041841
444.737500,0.051230
445.076480,0.055556
445.415420,0.043912
445.754320,0.037422
446.093180,0.053211
446.432000,0.062030
446.770780,0.051233
447.109520,0.060662
447.448220,0.046512
447.786880,0.048301
448.125500,0.055172
448.464080,0.044643
448.802620,0.051418
449.141120,0.044983
449.479580,0.047203
449.818000,0.051635
450.156380,0.045151
450.494720,0.057851
450.833020,0.055944
451.171280,0.046233
451.509500,0.052265
451.847680,0.053963
452.185820,0.044750
452.523920,0.058419
452.861980,0.052277
453.200000,0.041528
453.537980,0.050420
453.875920,0.052101
454.213820,0.042808
454.551680,0.049669
454.889500,0.052277
455.227280,0.039146
455.565020,0.050251
455.902720,0.051581
456.240380,0.034942
456.578000,0.048780
456.915580,0.058722
457.253120,0.052632
457.590620,0.057471
457.928080,0.052189
458.265500,0.048986
458.602880,0.060065
458.940220,0.050761
459.277520,0.048000
459.614780,0.050736
459.952000,0.043478
460.289180,0.049051
460.626320,0.050394
460.963420,0.051696
461.300480,0.051988
461.637500,0.038521
461.974480,0.047401
462.311420,0.049180
462.648320,0.042460
462.985180,0.041607
463.322000,0.050595
463.658780,0.049724
463.995520,0.045392
464.332220,0.048476
464.668880,0.051075
465.005500,0.049598
465.342080,0.052497
465.678620,0.049200
466.015120,0.049159
466.351580,0.054362
466.688000,0.052375
467.024380,0.046173
467.360720,0.047727
467.697020,0.051253
468.033280,0.054444
468.369500,0.054084
468.705680,0.051860
469.041820,0.050000
469.377920,0.045553
469.713980,0.046344
470.050000,0.062802
470.385980,0.050881
470.721920,0.050930
471.057820,0.051657
471.393680,0.050514
471.729500,0.051900
472.065280,0.048301
472.401020,0.049645
472.736720,0.054101
473.072380,0.052962
473.408000,0.053090
473.743580,0.047578
474.079120,0.052541
474.414620,0.044953
474.750080,0.052889
475.085500,0.051809
475.420880,0.048293
475.756220,0.045789
476.091520,0.052003
476.426780,0.053398
476.762000,0.042639
477.097180,0.053600
477.432320,0.054927
477.767420,0.044935
478.102480,0.052756
478.437500,0.049261
478.772480,0.052009
479.107420,0.052889
479.442320,0.047162
479.777180,0.051710
480.112000,0.053159
480.446780,0.050663
480.781520,0.048309
481.116220,0.045271
481.450880,0.049961
481.785500,0.051424
482.120080,0.049373
482.454620,0.053613
482.789120,0.051752
483.123580,0.051402
483.458000,0.040348
483.792380,0.049521
484.126720,0.049421
484.461020,0.053084
484.795280,0.052429
485.129500,0.053780
485.463680,0.049612
485.797820,0.048989
486.131920,0.051262
486.465980,0.051737
486.800000,0.055725
487.133980,0.049094
487.467920,0.048202
487.801820,0.052632
488.135680,0.053071
488.469500,0.052194
488.803280,0.056464
489.137020,0.050549
489.470720,0.056380
489.804380,0.051225
490.138000,0.049703
490.471580,0.053795
490.805120,0.052895
491.138620,0.046198
491.472080,0.052297
491.805500,0.052999
492.138880,0.054204
492.472220,0.052595
492.805520,0.052374
493.138780,0.055824
493.472000,0.054181
493.805180,0.054570
494.138320,0.054703
494.471420,0.054687
494.804480,0.051746
495.137500,0.054557
495.470480,0.057361
495.803420,0.053526
496.136320,0.055764
496.469180,0.050338
496.802000,0.050122
497.134780,0.055791
497.467520,0.057492
497.800220,0.056014
498.132880,0.054674
498.465500,0.053302
498.798080,0.055365
499.130620,0.057833
499.463120,0.056710
499.795580,0.053905
500.128000,0.053951
500.460380,0.054898
500.792720,0.051432
501.125020,0.049396
501.457280,0.052219
501.789500,0.051136
502.121680,0.057543
502.453820,0.055074
502.785920,0.051026
503.117980,0.054956
503.450000,0.058262
503.781980,0.054310
504.113920,0.056425
504.445820,0.050559
504.777680,0.053176
505.109500,0.053365
505.441280,0.054971
505.773020,0.054955
506.104720,0.055582
506.436380,0.055845
506.768000,0.057530
507.099580,0.052632
507.431120,0.053864
507.762620,0.053571
508.094080,0.053327
508.425500,0.058824
508.756880,0.052126
509.088220,0.053358
509.419520,0.054469
509.750780,0.052484
510.082000,0.054571
510.413180,0.053892
510.744320,0.054303
511.075420,0.052246
511.406480,0.053597
511.737500,0.054630
512.068480,0.057801
512.399420,0.055399
512.730320,0.048499
513.061180,0.052331
513.392000,0.054425
513.722780,0.055235
514.053520,0.054145
514.384220,0.049952
514.714880,0.054093
515.045500,0.049330
515.376080,0.057627
515.706620,0.053580
516.037120,0.055392
516.367580,0.051257
516.698000,0.050000
517.028380,0.053128
517.358720,0.054815
517.689020,0.056874
518.019280,0.057200
518.349500,0.054232
518.679680,0.050480
519.009820,0.052126
519.339920,0.054108
519.669980,0.049724
520.000000,0.052980
520.329980,0.053914
520.659920,0.053681
520.989820,0.054696
521.319680,0.055556
521.649500,0.053470
521.979280,0.056367
522.309020,0.053423
522.638720,0.050691
522.968380,0.052223
523.298000,0.052192
523.627580,0.054320
523.957120,0.055065
524.286620,0.055758
524.616080,0.057394
524.945500,0.054264
525.274880,0.056952
525.604220,0.055901
525.933520,0.056080
526.262780,0.052205
526.592000,0.051243
526.921180,0.057390
527.250320,0.055809
527.579420,0.055078
527.908480,0.057115
528.237500,0.060079
528.566480,0.057385
528.895420,0.054707
529.224320,0.055968
529.553180,0.057349
529.882000,0.060341
530.210780,0.053089
530.539520,0.056088
530.868220,0.054572
531.196880,0.053034
531.525500,0.059080
531.854080,0.056754
532.182620,0.056983
532.511120,0.051972
532.839580,0.058076
533.168000,0.057429
533.496380,0.057991
533.824720,0.056976
534.153020,0.056175
534.481280,0.057269
534.809500,0.054969
535.137680,0.056424
535.465820,0.057990
535.793920,0.055415
536.121980,0.057071
536.450000,0.055814
536.777980,0.058651
537.105920,0.059361
537.433820,0.057283
537.761680,0.057143
538.089500,0.054229
538.417280,0.054914
538.745020,0.059033
539.072720,0.053885
539.400380,0.055944
539.728000,0.057744
540.055580,0.053558
540.383120,0.058824
540.710620,0.056176
541.038080,0.054224
541.365500,0.057721
541.692880,0.057413
542.020220,0.055416
542.347520,0.056353
542.674780,0.056104
543.002000,0.057033
543.329180,0.057874
543.656320,0.057314
543.983420,0.054359
544.310480,0.060483
544.637500,0.059707
544.964480,0.055855
545.291420,0.056830
545.618320,0.059097
545.945180,0.054054
546.272000,0.055374
546.598780,0.055719
546.925520,0.056050
547.252220,0.057115
547.578880,0.058977
547.905500,0.058497
548.232080,0.058480
548.558620,0.058575
548.885120,0.057246
549.211580,0.056895
549.538000,0.056096
549.864380,0.055949
550.190720,0.055538
550.517020,0.054759
550.843280,0.061564
551.169500,0.056298
551.495680,0.057162
551.821820,0.060091
552.147920,0.058230
552.473980,0.055318
552.800000,0.056573
553.125980,0.059921
553.451920,0.057399
553.777820,0.057961
554.103680,0.055612
554.429500,0.056579
554.755280,0.055741
555.081020,0.057821
555.406720,0.057907
555.732380,0.055913
556.058000,0.057366
556.383580,0.054433
556.709120,0.057547
557.034620,0.057871
557.360080,0.058377
557.685500,0.056362
558.010880,0.053033
558.336220,0.054833
558.661520,0.056717
558.986780,0.056697
559.312000,0.055199
559.637180,0.055655
559.962320,0.054112
560.287420,0.059591
560.612480,0.055974
560.937500,0.057269
561.262480,0.057918
561.587420,0.056583
561.912320,0.058217
562.237180,0.059215
562.562000,0.056491
562.886780,0.057971
563.211520,0.056632
563.536220,0.058256
563.860880,0.056582
564.185500,0.055910
564.510080,0.057186
564.834620,0.056197
565.159120,0.057143
565.483580,0.058153
565.808000,0.055240
566.132380,0.060798
566.456720,0.059335
566.781020,0.056639
567.105280,0.056333
567.429500,0.056146
567.753680,0.056003
568.077820,0.055663
568.401920,0.057296
568.725980,0.058824
569.050000,0.061977
569.373980,0.059003
569.697920,0.058779
570.021820,0.054307
570.345680,0.055492
570.669500,0.061045
570.993280,0.059432
571.317020,0.057727
571.640720,0.058540
571.964380,0.057164
572.288000,0.059718
572.611580,0.060277
572.935120,0.058736
573.258620,0.057592
573.582080,0.060358
573.905500,0.057334
574.228880,0.059020
574.552220,0.059362
574.875520,0.059196
575.198780,0.061800
575.522000,0.055352
575.845180,0.057665
576.168320,0.055695
576.491420,0.058140
576.814480,0.059675
577.137500,0.059163
577.460480,0.057267
577.783420,0.057163
578.106320,0.058048
578.429180,0.061152
578.752000,0.059048
579.074780,0.058665
579.397520,0.058748
579.720220,0.061776
580.042880,0.059795
580.365500,0.058901
580.688080,0.058684
581.010620,0.060412
581.333120,0.059118
581.655580,0.062271
581.978000,0.059195
582.300380,0.058747
582.622720,0.063283
582.945020,0.059493
583.267280,0.057962
583.589500,0.057785
583.911680,0.059701
584.233820,0.059490
584.555920,0.061456
584.877980,0.057789
585.200000,0.058625
585.521980,0.058387
585.843920,0.058267
586.165820,0.057587
586.487680,0.060187
586.809500,0.059706
587.131280,0.057971
587.453020,0.060714
587.774720,0.060615
588.096380,0.061260
588.418000,0.057360
588.739580,0.060362
589.061120,0.060380
589.382620,0.059026
589.704080,0.059467
590.025500,0.060788
590.346880,0.057055
590.668220,0.058527
590.989520,0.057682
591.310780,0.057443
591.632000,0.060109
591.953180,0.061168
592.274320,0.058968
592.595420,0.059267
592.916480,0.059223
593.237500,0.058744
593.558480,0.058111
593.879420,0.057729
594.200320,0.061345
594.521180,0.060292
594.842000,0.061795
595.162780,0.057425
595.483520,0.059559
595.804220,0.060150
596.124880,0.061551
596.445500,0.056851
596.766080,0.061845
597.086620,0.062367
597.407120,0.060295
597.727580,0.059931
598.048000,0.060566
598.368380,0.058390
598.688720,0.059764
599.009020,0.058917
599.329280,0.058276
599.649500,0.060486
599.969680,0.062233
600.289820,0.060897
600.609920,0.057708
600.929980,0.057990
601.250000,0.058378
601.569980,0.061572
601.889920,0.060412
602.209820,0.057630
602.529680,0.061247
602.849500,0.060011
603.169280,0.062827
603.489020,0.060061
603.808720,0.058694
604.128380,0.057671
604.448000,0.058287
604.767580,0.057542
605.087120,0.058726
605.406620,0.060733
605.726080,0.060451
606.045500,0.058791
606.364880,0.058974
606.684220,0.061679
607.003520,0.059633
607.322780,0.057987
607.642000,0.058300
607.961180,0.057820
608.280320,0.058875
608.599420,0.059096
608.918480,0.060704
609.237500,0.058979
609.556480,0.059189
609.875420,0.060543
610.194320,0.056392
610.513180,0.062445
610.832000,0.060155
611.150780,0.060078
611.469520,0.057315
611.788220,0.058041
612.106880,0.060012
612.425500,0.058161
612.744080,0.060018
613.062620,0.059327
613.381120,0.057587
613.699580,0.060392
614.018000,0.060504
614.336380,0.060148
614.654720,0.059845
614.973020,0.058624
615.291280,0.059808
615.609500,0.060539
615.927680,0.058714
616.245820,0.060297
616.563920,0.060926
616.881980,0.063923
617.200000,0.063764
617.517980,0.060361
617.835920,0.058093
618.153820,0.060926
618.471680,0.060465
618.789500,0.060101
619.107280,0.063224
619.425020,0.059626
619.742720,0.057439
620.060380,0.059229
620.378000,0.061989
620.695580,0.060664
621.013120,0.059843
621.330620,0.060559
621.648080,0.059937
621.965500,0.060226
622.282880,0.062736
622.600220,0.062539
622.917520,0.061122
623.234780,0.063002
623.552000,0.060471
623.869180,0.059565
624.186320,0.060809
624.503420,0.059248
624.820480,0.060320
625.137500,0.062835
625.454480,0.061269
625.771420,0.063367
626.088320,0.058008
626.405180,0.063472
626.722000,0.061167
627.038780,0.059837
627.355520,0.059062
627.672220,0.060964
627.988880,0.061897
628.305500,0.060767
628.622080,0.062887
628.938620,0.062080
629.255120,0.060983
629.571580,0.058229
629.888000,0.057686
630.204380,0.058300
630.520720,0.060634
630.837020,0.061671
631.153280,0.062350
631.469500,0.061552
631.785680,0.063593
632.101820,0.063932
632.417920,0.061997
632.733980,0.058223
633.050000,0.062765
633.365980,0.061352
633.681920,0.059368
633.997820,0.060669
634.313680,0.062813
634.629500,0.061339
634.945280,0.060704
635.261020,0.064866
635.576720,0.060188
635.892380,0.060703
636.208000,0.062754
636.523580,0.060801
636.839120,0.063405
637.154620,0.062609
637.470080,0.056815
637.785500,0.064478
638.100880,0.060817
638.416220,0.060972
638.731520,0.059599
639.046780,0.060880
639.362000,0.060780
639.677180,0.063963
639.992320,0.059769
640.307420,0.062658
640.622480,0.062167
640.937500,0.060472
641.252480,0.061435
641.567420,0.061097
641.882320,0.057628
642.197180,0.062605
642.512000,0.057095
642.826780,0.061304
643.141520,0.061406
643.456220,0.060321
643.770880,0.061913
644.085500,0.062325
644.400080,0.059831
644.714620,0.058807
645.029120,0.060231
645.343580,0.057872
645.658000,0.059395
645.972380,0.060016
646.286720,0.060234
646.601020,0.061998
646.915280,0.061695
647.229500,0.059890
647.543680,0.061309
647.857820,0.061932
648.171920,0.061313
648.485980,0.059194
648.800000,0.060347
649.113980,0.063747
649.427920,0.061581
649.741820,0.060456
650.055680,0.059792
650.369500,0.061659
650.683280,0.060211
650.997020,0.062706
651.310720,0.060539
651.624380,0.060440
651.938000,0.061219
652.251580,0.062622
652.565120,0.061487
652.878620,0.061655
653.192080,0.059551
653.505500,0.059187
653.818880,0.058004
654.132220,0.059812
654.445520,0.060408
654.758780,0.059207
655.072000,0.060458
655.385180,0.061912
655.698320,0.060875
656.011420,0.063629
656.324480,0.060624
656.637500,0.060545
656.950480,0.060775
657.263420,0.060893
657.576320,0.061370
657.889180,0.063403
658.202000,0.059179
658.514780,0.058648
658.827520,0.060924
659.140220,0.062331
659.452880,0.060103
659.765500,0.059904
660.078080,0.058983
660.390620,0.059273
660.703120,0.060800
661.015580,0.058589
661.328000,0.061713
661.640380,0.060267
661.952720,0.061663
662.265020,0.063957
662.577280,0.057888
662.889500,0.061179
663.201680,0.059349
663.513820,0.060470
663.825920,0.058918
664.137980,0.061409
664.450000,0.057545
664.761980,0.060884
665.073920,0.058098
665.385820,0.062173
665.697680,0.062810
666.009500,0.064184
666.321280,0.063950
666.633020,0.063497
666.944720,0.061341
667.256380,0.058883
667.568000,0.057745
667.879580,0.062245
668.191120,0.061126
668.502620,0.058542
668.814080,0.063860
669.125500,0.061923
669.436880,0.062586
669.748220,0.058844
670.059520,0.059174
670.370780,0.061935
670.682000,0.061593
670.993180,0.059901
671.304320,0.061885
671.615420,0.060369
671.926480,0.063520
672.237500,0.055377
672.548480,0.061391
672.859420,0.060758
673.170320,0.062024
673.481180,0.060463
673.792000,0.057699
674.102780,0.059246
674.413520,0.060882
674.724220,0.059528
675.034880,0.061606
675.345500,0.060540
675.656080,0.062432
675.966620,0.060022
676.277120,0.059685
676.587580,0.061119
676.898000,0.059724
677.208380,0.054713
677.518720,0.055434
677.829020,0.061345
678.139280,0.058933
678.449500,0.062755
678.759680,0.063320
679.069820,0.060595
679.379920,0.063372
679.689980,0.060899
680.000000,0.058692
680.309980,0.063846
680.619920,0.060962
680.929820,0.060470
681.239680,0.061300
681.549500,0.061111
681.859280,0.059373
682.169020,0.064155
682.478720,0.060957
682.788380,0.056478
683.098000,0.059835
683.407580,0.060788
683.717120,0.059309
684.026620,0.058735
684.336080,0.061387
684.645500,0.055743
684.954880,0.058179
685.264220,0.061910
685.573520,0.060906
685.882780,0.061757
686.192000,0.063582
686.501180,0.058645
686.810320,0.061491
687.119420,0.058533
687.428480,0.058868
687.737500,0.060246
688.046480,0.060966
688.355420,0.061486
688.664320,0.059296
688.973180,0.064701
689.282000,0.059028
689.590780,0.059433
689.899520,0.059628
690.208220,0.062691
690.516880,0.061856
690.825500,0.065283
691.134080,0.061124
691.442620,0.060595
691.751120,0.059917
692.059580,0.061521
692.368000,0.060204
692.676380,0.062214
692.984720,0.055725
693.293020,0.059650
693.601280,0.065242
693.909500,0.060916
694.217680,0.060548
694.525820,0.062833
694.833920,0.060282
695.141980,0.058234
695.450000,0.061450
695.757980,0.062643
696.065920,0.060194
696.373820,0.060431
696.681680,0.059839
696.989500,0.060594
697.297280,0.060288
697.605020,0.062698
697.912720,0.061875
698.220380,0.062180
698.528000,0.062104
698.835580,0.063611
699.143120,0.061185
699.450620,0.061655
699.758080,0.059608
700.065500,0.064246
700.372880,0.056000
700.680220,0.063422
700.987520,0.060714
701.294780,0.063260
701.602000,0.061410
701.909180,0.060413
702.216320,0.059054
702.523420,0.063536
702.830480,0.062970
703.137500,0.060405
703.444480,0.065089
703.751420,0.060355
704.058320,0.060942
704.365180,0.062303
704.672000,0.061386
704.978780,0.060476
705.285520,0.060250
705.592220,0.061961
705.898880,0.060678
706.205500,0.059077
706.512080,0.061611
706.818620,0.061533
707.125120,0.061154
707.431580,0.061743
707.738000,0.065625
708.044380,0.065226
708.350720,0.060374
708.657020,0.061743
708.963280,0.063665
709.269500,0.062231
709.575680,0.060904
709.881820,0.062500
710.187920,0.061479
710.493980,0.060900
710.800000,0.062929
711.105980,0.060617
711.411920,0.061490
711.717820,0.061598
712.023680,0.061018
712.329500,0.061909
712.635280,0.062791
712.941020,0.063007
713.246720,0.061265
713.552380,0.060440
713.858000,0.060702
714.163580,0.057616
714.469120,0.057835
714.774620,0.060403
715.080080,0.062034
715.385500,0.064349
715.690880,0.061933
715.996220,0.061807
716.301520,0.063241
716.606780,0.060928
716.912000,0.064216
717.217180,0.060654
717.522320,0.061630
717.827420,0.060212
718.132480,0.061020
718.437500,0.063188
718.742480,0.059677
719.047420,0.056230
719.352320,0.066418
719.657180,0.062142
719.962000,0.063689
720.266780,0.061903
720.571520,0.060895
720.876220,0.060147
721.180880,0.058528
721.485500,0.061847
721.790080,0.059448
722.094620,0.064322
722.399120,0.064196
722.703580,0.060437
723.008000,0.062096
723.312380,0.063711
723.616720,0.057374
723.921020,0.060199
724.225280,0.059773
724.529500,0.062172
724.833680,0.061388
725.137820,0.057709
725.441920,0.056175
725.745980,0.064430
726.050000,0.063599
726.353980,0.058585
726.657920,0.064327
726.961820,0.063927
727.265680,0.061489
727.569500,0.060786
727.873280,0.059122
728.177020,0.060801
728.480720,0.062037
728.784380,0.065759
729.088000,0.059821
729.391580,0.058740
729.695120,0.059021
729.998620,0.063576
730.302080,0.061989
730.605500,0.059680
730.908880,0.059775
731.212220,0.058276
731.515520,0.060458
731.818780,0.061650
732.122000,0.063484
732.425180,0.061114
732.728320,0.061973
733.031420,0.064160
733.334480,0.061224
733.637500,0.061996
733.940480,0.056807
734.243420,0.058614
734.546320,0.064315
734.849180,0.059917
735.152000,0.061203
735.454780,0.058884
735.757520,0.060063
736.060220,0.063191
736.362880,0.061450
736.665500,0.064230
736.968080,0.063407
737.270620,0.062058
737.573120,0.057860
737.875580,0.061023
738.178000,0.057703
738.480380,0.063243
738.782720,0.061614
739.085020,0.058921
739.387280,0.061530
739.689500,0.061155
739.991680,0.062325
740.293820,0.059149
740.595920,0.062883
740.897980,0.059289
741.200000,0.065620
741.501980,0.062464
741.803920,0.060811
742.105820,0.058094
742.407680,0.059406
742.709500,0.063068
743.011280,0.057444
743.313020,0.060870
743.614720,0.059779
743.916380,0.058140
744.218000,0.064439
744.519580,0.062198
744.821120,0.058683
745.122620,0.063511
745.424080,0.059495
745.725500,0.060350
746.026880,0.060961
746.328220,0.061036
746.629520,0.063215
746.930780,0.063725
747.232000,0.059473
747.533180,0.059182
747.834320,0.062690
748.135420,0.060907
748.436480,0.061759
748.737500,0.062384
749.038480,0.060476
749.339420,0.060983
749.640320,0.063482
749.941180,0.060587
750.242000,0.061558
750.542780,0.062035
750.843520,0.065983
751.144220,0.064103
751.444880,0.067850
751.745500,0.055844
752.046080,0.064144
752.346620,0.057990
752.647120,0.058785
752.947580,0.062096
753.248000,0.063185
753.548380,0.061809
753.848720,0.059884
754.149020,0.054803
754.449280,0.059750
754.749500,0.061048
755.049680,0.060667
755.349820,0.062041
755.649920,0.063450
755.949980,0.063703
756.250000,0.063116
756.549980,0.058746
756.849920,0.061183
757.149820,0.064538
757.449680,0.064026
757.749500,0.064076
758.049280,0.059386
758.349020,0.053547
758.648720,0.060732
758.948380,0.056357
759.248000,0.063342
759.547580,0.062542
759.847120,0.059959
760.146620,0.057510
760.446080,0.056452
760.745500,0.062238
761.044880,0.057528
761.344220,0.062723
761.643520,0.060028
761.942780,0.061582
762.242000,0.063649
762.541180,0.059155
762.840320,0.061096
763.139420,0.061885
763.438480,0.060834
763.737500,0.058580
764.036480,0.061495
764.335420,0.062103
764.634320,0.055440
764.933180,0.062329
765.232000,0.061763
765.530780,0.059649
765.829520,0.065734
766.128220,0.062630
766.426880,0.063255
766.725500,0.063742
767.024080,0.060357
767.322620,0.058783
767.621120,0.058943
767.919580,0.059386
768.218000,0.058140
768.516380,0.068289
768.814720,0.056927
769.113020,0.064783
769.411280,0.066298
769.709500,0.062246
770.007680,0.053851
770.305820,0.064909
770.603920,0.059973
770.901980,0.064891
771.200000,0.059103
771.497980,0.062332
771.795920,0.062876
772.093820,0.062834
772.391680,0.065260
772.689500,0.061486
772.987280,0.057912
773.285020,0.062884
773.582720,0.059459
773.880380,0.056966
774.178000,0.059305
774.475580,0.062291
774.773120,0.056894
775.070620,0.057471
775.368080,0.061456
775.665500,0.061786
775.962880,0.064043
776.260220,0.059219
776.557520,0.060040
776.854780,0.057471
777.152000,0.063660
777.449180,0.064059
777.746320,0.061828
778.043420,0.064120
778.340480,0.062246
778.637500,0.056795
778.934480,0.065232
779.231420,0.062415
779.528320,0.059452
779.825180,0.063900
780.122000,0.062417
780.418780,0.060876
780.715520,0.063045
781.012220,0.058904
781.308880,0.060852
781.605500,0.057534
781.902080,0.064339
782.198620,0.060834
782.495120,0.065844
782.791580,0.061898
783.088000,0.067633
783.384380,0.062586
783.680720,0.062244
783.977020,0.057123
784.273280,0.065035
784.569500,0.062194
784.865680,0.068846
785.161820,0.063889
785.457920,0.058905
785.753980,0.064201
786.050000,0.058702
786.345980,0.064583
786.641920,0.066620
786.937820,0.062678
787.233680,0.057759
787.529500,0.060333
787.825280,0.057365
788.121020,0.063031
788.416720,0.062809
788.712380,0.065585
789.008000,0.060198
789.303580,0.060777
789.599120,0.057455
789.894620,0.062094
790.190080,0.058013
790.485500,0.060475
790.780880,0.056631
791.076220,0.059163
791.371520,0.060276
791.666780,0.064000
791.962000,0.063189
792.257180,0.061493
792.552320,0.060914
792.847420,0.063319
793.142480,0.060073
793.437500,0.058611
793.732480,0.060717
794.027420,0.058605
794.322320,0.055928
794.617180,0.057207
794.912000,0.062407
795.206780,0.063386
795.501520,0.062357
795.796220,0.057037
796.090880,0.064054
796.385500,0.061469
796.680080,0.059088
796.974620,0.064371
797.269120,0.060560
797.563580,0.060305
797.858000,0.064541
798.152380,0.054911
798.446720,0.060000
798.741020,0.064715
799.035280,0.066770
799.329500,0.064665
799.623680,0.065116
