399.985280,0.040541
400.329500,-0.054054
400.673680,0.050633
401.017820,-0.058824
401.361920,-0.045455
401.705980,-0.036585
402.050000,-0.025974
402.393980,0.094118
402.737920,0.067416
403.081820,0.020619
403.425680,0.034884
403.769500,0.041667
404.113280,0.000000
404.457020,0.067416
404.800720,-0.021739
405.144380,0.070707
405.488000,-0.021505
405.831580,0.113402
406.175120,-0.010638
406.518620,0.030000
406.862080,0.113402
407.205500,0.010417
407.548880,0.051020
407.892220,0.019608
408.235520,0.000000
408.578780,0.066667
408.922000,0.019231
409.265180,0.111111
409.608320,0.080808
409.951420,0.103093
410.294480,0.088235
410.637500,-0.010870
410.980480,0.068627
411.323420,0.010204
411.666320,0.064220
412.009180,0.100000
412.352000,0.029703
412.694780,0.055046
413.037520,0.009174
413.380220,0.054054
413.722880,0.062500
414.065500,0.009009
414.408080,0.061947
414.750620,0.000000
415.093120,0.016529
415.435580,0.042017
415.778000,0.045455
416.120380,0.016807
416.462720,-0.015873
416.805020,0.022556
417.147280,0.052239
417.489500,0.057143
417.831680,0.041096
418.173820,0.028369
418.515920,0.041958
418.857980,0.031646
419.200000,0.044872
419.541980,0.035503
419.883920,0.050562
420.225820,0.034682
420.567680,0.072626
420.909500,0.038251
421.251280,0.052083
421.593020,0.030612
421.934720,0.015152
422.276380,0.030769
422.618000,0.058824
422.959580,0.044118
423.301120,0.045662
423.642620,0.030435
423.984080,0.041860
424.325500,0.004484
424.666880,0.043103
425.008220,0.012605
425.349520,0.050847
425.690780,0.057692
426.032000,0.039216
426.373180,0.033195
426.714320,0.074219
427.055420,0.042471
427.396480,0.056180
427.737500,0.031621
428.078480,0.027668
428.419420,0.044177
428.760320,0.038314
429.101180,0.059055
429.442000,0.049808
429.782780,0.038462
430.123520,0.050980
430.464220,0.044280
430.804880,0.061303
431.145500,0.029091
431.486080,0.048689
431.826620,0.042636
432.167120,0.044118
432.507580,0.057971
432.848000,0.053957
433.188380,0.057762
433.528720,0.026415
433.869020,0.042857
434.209280,0.024561
434.549500,0.055749
434.889680,0.047138
435.229820,0.071672
435.569920,0.051903
435.909980,0.035599
436.250000,0.044068
436.589980,0.030960
436.929920,0.066667
437.269820,0.050157
437.609680,0.062130
437.949500,0.042169
438.289280,0.056657
438.629020,0.063953
438.968720,0.061047
439.308380,0.035230
439.648000,0.049315
439.987580,0.055556
440.327120,0.053333
440.666620,0.054545
441.006080,0.043478
441.345500,0.049140
441.684880,0.040670
442.024220,0.044665
442.363520,0.045238
442.702780,0.043182
443.042000,0.044053
443.381180,0.051724
443.720320,0.066955
444.059420,0.052521
444.398480,0.048117
444.737500,0.057377
445.076480,0.055556
445.415420,0.041916
445.754320,0.043659
446.093180,0.055046
446.432000,0.052632
446.770780,0.037951
447.109520,0.045956
447.448220,0.057245
447.786880,0.050089
448.125500,0.053448
448.464080,0.041071
448.802620,0.051418
449.141120,0.057093
449.479580,0.059441
449.818000,0.051635
450.156380,0.056856
450.494720,0.051240
450.833020,0.050699
451.171280,0.042808
451.509500,0.043554
451.847680,0.043845
452.185820,0.053356
452.523920,0.056701
452.861980,0.052277
453.200000,0.053156
453.537980,0.047059
453.875920,0.057143
454.213820,0.046233
454.551680,0.052980
454.889500,0.052277
455.227280,0.042705
455.565020,0.058626
455.902720,0.053245
456.240380,0.046589
456.578000,0.052265
456.915580,0.056995
457.253120,0.050987
457.590620,0.054187
457.928080,0.053872
458.265500,0.052365
458.602880,0.045455
458.940220,0.045685
459.277520,0.046400
459.614780,0.055646
459.952000,0.051242
460.289180,0.055380
460.626320,0.047244
460.963420,0.048465
461.300480,0.055046
461.637500,0.047766
461.974480,0.061162
462.311420,0.044709
462.648320,0.049780
462.985180,0.045911
463.322000,0.050595
463.658780,0.052486
463.995520,0.046768
464.332220,0.047091
464.668880,0.049731
465.005500,0.052279
465.342080,0.052497
465.678620,0.050431
466.015120,0.045278
466.351580,0.058154
466.688000,0.053593
467.024380,0.049818
467.360720,0.052273
467.697020,0.045558
468.033280,0.051111
468.369500,0.050773
468.705680,0.055242
469.041820,0.050000
469.377920,0.048807
469.713980,0.052523
470.050000,0.060870
470.385980,0.048924
470.721920,0.048972
471.057820,0.053606
471.393680,0.053321
471.729500,0.043559
472.065280,0.050984
472.401020,0.047872
472.736720,0.051483
473.072380,0.053860
473.408000,0.045257
473.743580,0.051903
474.079120,0.055125
474.414620,0.049194
474.750080,0.052075
475.085500,0.057566
475.420880,0.049958
475.756220,0.052330
476.091520,0.050298
476.426780,0.053398
476.762000,0.045857
477.097180,0.053600
477.432320,0.051696
477.767420,0.050654
478.102480,0.051969
478.437500,0.047619
478.772480,0.050433
479.107420,0.052075
479.442320,0.052758
479.777180,0.054893
480.112000,0.050077
480.446780,0.044427
480.781520,0.045089
481.116220,0.050930
481.450880,0.055425
481.785500,0.054589
482.120080,0.049373
482.454620,0.052836
482.789120,0.054140
483.123580,0.056075
483.458000,0.048259
483.792380,0.043930
484.126720,0.047876
484.461020,0.053864
484.795280,0.053971
485.129500,0.047545
485.463680,0.050388
485.797820,0.050544
486.131920,0.048967
486.465980,0.054826
486.800000,0.054198
487.133980,0.048338
487.467920,0.048967
487.801820,0.053394
488.135680,0.053829
488.469500,0.049924
488.803280,0.055721
489.137020,0.053480
489.470720,0.054896
489.804380,0.053452
490.138000,0.053412
490.471580,0.056006
490.805120,0.052895
491.138620,0.046198
491.472080,0.045936
491.805500,0.053696
492.138880,0.054204
492.472220,0.052595
492.805520,0.052374
493.138780,0.056513
493.472000,0.057525
493.805180,0.057299
494.138320,0.050700
494.471420,0.052734
494.804480,0.051746
495.137500,0.052632
495.470480,0.060548
495.803420,0.052267
496.136320,0.055138
496.469180,0.055249
496.802000,0.050122
497.134780,0.055791
497.467520,0.053823
497.800220,0.051887
498.132880,0.053498
498.465500,0.053302
498.798080,0.051370
499.130620,0.051656
499.463120,0.060640
499.795580,0.055006
500.128000,0.056131
500.460380,0.057589
500.792720,0.053022
501.125020,0.053600
501.457280,0.051697
501.789500,0.052686
502.121680,0.058061
502.453820,0.052524
502.785920,0.054527
503.117980,0.054465
503.450000,0.053742
503.781980,0.053313
504.113920,0.049312
504.445820,0.059310
504.777680,0.052235
505.109500,0.054327
505.441280,0.051625
505.773020,0.052137
506.104720,0.055582
506.436380,0.053952
506.768000,0.054724
507.099580,0.052174
507.431120,0.057143
507.762620,0.054511
508.094080,0.052416
508.425500,0.054155
508.756880,0.050754
509.088220,0.053818
509.419520,0.052142
509.750780,0.052952
510.082000,0.052705
510.413180,0.051129
510.744320,0.055223
511.075420,0.054079
511.406480,0.054537
511.737500,0.055093
512.068480,0.051692
512.399420,0.052113
512.730320,0.052194
513.061180,0.053758
513.392000,0.051585
513.722780,0.056676
514.053520,0.053186
514.384220,0.053758
514.714880,0.054572
515.045500,0.049808
515.376080,0.052785
515.706620,0.056503
516.037120,0.051961
516.367580,0.049778
516.698000,0.050000
517.028380,0.055114
517.358720,0.055802
517.689020,0.056874
518.019280,0.052183
518.349500,0.053218
518.679680,0.050480
519.009820,0.056174
519.339920,0.060120
519.669980,0.054244
520.000000,0.055018
520.329980,0.053914
520.659920,0.052658
520.989820,0.053664
521.319680,0.055041
521.649500,0.050900
521.979280,0.055324
522.309020,0.053423
522.638720,0.049155
522.968380,0.057911
523.298000,0.054802
523.627580,0.055354
523.957120,0.054545
524.286620,0.058364
524.616080,0.052740
524.945500,0.053230
525.274880,0.056952
525.604220,0.056418
525.933520,0.053459
526.262780,0.053725
526.592000,0.053272
526.921180,0.058913
527.250320,0.050736
527.579420,0.054573
527.908480,0.056130
528.237500,0.058590
528.566480,0.059381
528.895420,0.060621
529.224320,0.055968
529.553180,0.057831
529.882000,0.059854
530.210780,0.056467
530.539520,0.056568
530.868220,0.056965
531.196880,0.055901
531.525500,0.059564
531.854080,0.054878
532.182620,0.056049
532.511120,0.055220
532.839580,0.057623
533.168000,0.054695
533.496380,0.058447
533.824720,0.057873
534.153020,0.052162
534.481280,0.055947
534.809500,0.055849
535.137680,0.057292
535.465820,0.056701
535.793920,0.057953
536.121980,0.057491
536.450000,0.058351
536.777980,0.061165
537.105920,0.058946
537.433820,0.054828
537.761680,0.056327
538.089500,0.057871
538.417280,0.055710
538.745020,0.056656
539.072720,0.056619
539.400380,0.059441
539.728000,0.056597
540.055580,0.059551
540.383120,0.056217
540.710620,0.053199
541.038080,0.055699
541.365500,0.054044
541.692880,0.054869
542.020220,0.056495
542.347520,0.057430
542.674780,0.054340
543.002000,0.054934
543.329180,0.056121
543.656320,0.056259
543.983420,0.052650
544.310480,0.057764
544.637500,0.055612
544.964480,0.055518
545.291420,0.059156
545.618320,0.060093
545.945180,0.055372
546.272000,0.056684
546.598780,0.055392
546.925520,0.057369
547.252220,0.056124
547.578880,0.057674
547.905500,0.056209
548.232080,0.057180
548.558620,0.058575
548.885120,0.058227
549.211580,0.058502
549.538000,0.056096
549.864380,0.057556
550.190720,0.057475
550.517020,0.057366
550.843280,0.056352
551.169500,0.057252
551.495680,0.058476
551.821820,0.057479
552.147920,0.058230
552.473980,0.056635
552.800000,0.056246
553.125980,0.058612
553.451920,0.056735
553.777820,0.057628
554.103680,0.058645
554.429500,0.056244
554.755280,0.056075
555.081020,0.057487
555.406720,0.057569
555.732380,0.058963
556.058000,0.059742
556.383580,0.058884
556.709120,0.058236
557.034620,0.054426
557.360080,0.055959
557.685500,0.058091
558.010880,0.057886
558.336220,0.055536
558.661520,0.059199
558.986780,0.056697
559.312000,0.058761
559.637180,0.055655
559.962320,0.056604
560.287420,0.058533
560.612480,0.057409
560.937500,0.060206
561.262480,0.055718
561.587420,0.058760
561.912320,0.060059
562.237180,0.055885
562.562000,0.058736
562.886780,0.058343
563.211520,0.060730
563.536220,0.055659
563.860880,0.058091
564.185500,0.057786
564.510080,0.059067
564.834620,0.059174
565.159120,0.057519
565.483580,0.053212
565.808000,0.059781
566.132380,0.055949
566.456720,0.056689
566.781020,0.059640
567.105280,0.057467
567.429500,0.058801
567.753680,0.056770
568.077820,0.055663
568.401920,0.059206
568.725980,0.058444
569.050000,0.057795
569.373980,0.059383
569.697920,0.057641
570.021820,0.057678
570.345680,0.057405
570.669500,0.056849
570.993280,0.060170
571.317020,0.061381
571.640720,0.056317
571.964380,0.057164
572.288000,0.058234
572.611580,0.059154
572.935120,0.056865
573.258620,0.059461
573.582080,0.057377
573.905500,0.056217
574.228880,0.060134
574.552220,0.057530
574.875520,0.056962
575.198780,0.061438
575.522000,0.058651
575.845180,0.059097
576.168320,0.058211
576.491420,0.061410
576.814480,0.056058
577.137500,0.058442
577.460480,0.058354
577.783420,0.058950
578.106320,0.059829
578.429180,0.057971
578.752000,0.058006
579.074780,0.056642
579.397520,0.057456
579.720220,0.059524
580.042880,0.058474
580.365500,0.059232
580.688080,0.060380
581.010620,0.060074
581.333120,0.061456
581.655580,0.059607
581.978000,0.059528
582.300380,0.060695
582.622720,0.060646
582.945020,0.058843
583.267280,0.059915
583.589500,0.057143
583.911680,0.057479
584.233820,0.059175
584.555920,0.063347
584.877980,0.057161
585.200000,0.059853
585.521980,0.057461
585.843920,0.059487
586.165820,0.060634
586.487680,0.058682
586.809500,0.060606
587.131280,0.060337
587.453020,0.061012
587.774720,0.059728
588.096380,0.060385
588.418000,0.061165
588.739580,0.061224
589.061120,0.058942
589.382620,0.059312
589.704080,0.060870
590.025500,0.061644
590.346880,0.060146
590.668220,0.057967
590.989520,0.058791
591.310780,0.058271
591.632000,0.060109
591.953180,0.060338
592.274320,0.057057
592.595420,0.058998
592.916480,0.058408
593.237500,0.059014
593.558480,0.061609
593.879420,0.058808
594.200320,0.060809
594.521180,0.059495
594.842000,0.060451
595.162780,0.060096
595.483520,0.056634
595.804220,0.058808
596.124880,0.061018
596.445500,0.058161
596.766080,0.061845
597.086620,0.061571
597.407120,0.061085
597.727580,0.059931
598.048000,0.060830
598.368380,0.058916
598.688720,0.060288
599.009020,0.061306
599.329280,0.058808
599.649500,0.058373
599.969680,0.058226
600.289820,0.060630
600.609920,0.057173
600.929980,0.060396
601.250000,0.060000
601.569980,0.059681
601.889920,0.059610
602.209820,0.056818
602.529680,0.059324
602.849500,0.058374
603.169280,0.060623
603.489020,0.058123
603.808720,0.059792
604.128380,0.059327
604.448000,0.057459
604.767580,0.058380
605.087120,0.060388
605.406620,0.062413
605.726080,0.060451
606.045500,0.057676
606.364880,0.060108
606.684220,0.059395
607.003520,0.058773
607.322780,0.061399
607.642000,0.059161
607.961180,0.056375
608.280320,0.058295
608.599420,0.057937
608.918480,0.058944
609.237500,0.059566
609.556480,0.060077
609.875420,0.059657
610.194320,0.059935
610.513180,0.060669
610.832000,0.057772
611.150780,0.059477
611.469520,0.060935
611.788220,0.057134
612.106880,0.057901
612.425500,0.059988
612.744080,0.057556
613.062620,0.056575
613.381120,0.059415
613.699580,0.061619
614.018000,0.060197
614.336380,0.059223
614.654720,0.058295
614.973020,0.058624
615.291280,0.062287
615.609500,0.059905
615.927680,0.059642
616.245820,0.059369
616.563920,0.062481
616.881980,0.060804
617.200000,0.061275
617.517980,0.061294
617.835920,0.058093
618.153820,0.057196
618.471680,0.059845
618.789500,0.058842
619.107280,0.061659
619.425020,0.059943
619.742720,0.059008
620.060380,0.059229
620.378000,0.061989
620.695580,0.060664
621.013120,0.058898
621.330620,0.061500
621.648080,0.059937
621.965500,0.058971
622.282880,0.058323
622.600220,0.059381
622.917520,0.060176
623.234780,0.061395
623.552000,0.059835
623.869180,0.057044
624.186320,0.060809
624.503420,0.061129
624.820480,0.059692
625.137500,0.062520
625.454480,0.060331
625.771420,0.060530
626.088320,0.061791
626.405180,0.063783
626.722000,0.061167
627.038780,0.059211
627.355520,0.058750
627.672220,0.058476
627.988880,0.063142
628.305500,0.061078
628.622080,0.059789
628.938620,0.059327
629.255120,0.060983
629.571580,0.060680
629.888000,0.058914
630.204380,0.059527
630.520720,0.056673
630.837020,0.057971
631.153280,0.060851
631.469500,0.063675
631.785680,0.062086
632.101820,0.061520
632.417920,0.060507
632.733980,0.057623
633.050000,0.060036
633.365980,0.060759
633.681920,0.062649
633.997820,0.063359
634.313680,0.061339
634.629500,0.058685
634.945280,0.058651
635.261020,0.063105
635.576720,0.059894
635.892380,0.058670
636.208000,0.061883
636.523580,0.060801
636.839120,0.059351
637.154620,0.059710
637.470080,0.061119
637.785500,0.064478
638.100880,0.061685
638.416220,0.062123
638.731520,0.059885
639.046780,0.062045
639.362000,0.059920
639.677180,0.060537
639.992320,0.061460
640.307420,0.062096
640.622480,0.061607
640.937500,0.061581
641.252480,0.059760
641.567420,0.060244
641.882320,0.058742
642.197180,0.061763
642.512000,0.060453
642.826780,0.062968
643.141520,0.060572
643.456220,0.060598
643.770880,0.059149
644.085500,0.058971
644.400080,0.060112
644.714620,0.059086
645.029120,0.061056
645.343580,0.059243
645.658000,0.059950
645.972380,0.059468
646.286720,0.060234
646.601020,0.060061
646.915280,0.064437
647.229500,0.060989
647.543680,0.061861
647.857820,0.061932
648.171920,0.062670
648.485980,0.059194
648.800000,0.058969
649.113980,0.058481
649.427920,0.062691
649.741820,0.060731
650.055680,0.060340
650.369500,0.059978
650.683280,0.061876
650.997020,0.060781
651.310720,0.062190
651.624380,0.059341
651.938000,0.062881
652.251580,0.060952
652.565120,0.058133
652.878620,0.061374
653.192080,0.061517
653.505500,0.056101
653.818880,0.060279
654.132220,0.058958
654.445520,0.058990
654.758780,0.058074
655.072000,0.058453
655.385180,0.058773
655.698320,0.059731
656.011420,0.062195
656.324480,0.062081
656.637500,0.057648
656.950480,0.059307
657.263420,0.060893
657.576320,0.058998
657.889180,0.061929
658.202000,0.056461
658.514780,0.061923
658.827520,0.061224
659.140220,0.061432
659.452880,0.058895
659.765500,0.060506
660.078080,0.058080
660.390620,0.058356
660.703120,0.062939
661.015580,0.063190
661.328000,0.060139
661.640380,0.061199
661.952720,0.061040
662.265020,0.062382
662.577280,0.063295
662.889500,0.059918
663.201680,0.059030
663.513820,0.060470
663.825920,0.059238
664.137980,0.060440
664.450000,0.060742
664.761980,0.060556
665.073920,0.062317
665.385820,0.062173
665.697680,0.060826
666.009500,0.059860
666.321280,0.062956
666.633020,0.065160
666.944720,0.059993
667.256380,0.059892
667.568000,0.058084
667.879580,0.061224
668.191120,0.059066
668.502620,0.062307
668.814080,0.061404
669.125500,0.062265
669.436880,0.060512
669.748220,0.060575
670.059520,0.059524
670.370780,0.062283
670.682000,0.060885
670.993180,0.060958
671.304320,0.060127
671.615420,0.058949
671.926480,0.059972
672.237500,0.058950
672.548480,0.062456
672.859420,0.059685
673.170320,0.059485
673.481180,0.061188
673.792000,0.056978
674.102780,0.060323
674.413520,0.060882
674.724220,0.059165
675.034880,0.061606
675.345500,0.061269
675.656080,0.060980
675.966620,0.061841
676.277120,0.061882
676.587580,0.062592
676.898000,0.058604
677.208380,0.059150
677.518720,0.059081
677.829020,0.058758
678.139280,0.057450
678.449500,0.063127
678.759680,0.064069
679.069820,0.059108
679.379920,0.060732
679.689980,0.059785
680.000000,0.056449
680.309980,0.058649
680.619920,0.060583
680.929820,0.063830
681.239680,0.060192
681.549500,0.062963
681.859280,0.061240
682.169020,0.058560
682.478720,0.061331
682.788380,0.057586
683.098000,0.062453
683.407580,0.060038
683.717120,0.061562
684.026620,0.061747
684.336080,0.064039
684.645500,0.057987
684.954880,0.058557
685.264220,0.062665
685.573520,0.063190
685.882780,0.062524
686.192000,0.060572
686.501180,0.061672
686.810320,0.059185
687.119420,0.059673
687.428480,0.061147
687.737500,0.061781
688.046480,0.060199
688.355420,0.061109
688.664320,0.061209
688.973180,0.060490
689.282000,0.059799
689.590780,0.061350
689.899520,0.062666
690.208220,0.062691
690.516880,0.063001
690.825500,0.061509
691.134080,0.058087
691.442620,0.058308
691.751120,0.059537
692.059580,0.061139
692.368000,0.060962
692.676380,0.060305
692.984720,0.059924
693.293020,0.060790
693.601280,0.062572
693.909500,0.062429
694.217680,0.061310
694.525820,0.063595
694.833920,0.059519
695.141980,0.060933
695.450000,0.060305
695.757980,0.062643
696.065920,0.060971
696.373820,0.060046
696.681680,0.063291
696.989500,0.064454
697.297280,0.061066
697.605020,0.059127
697.912720,0.061491
698.220380,0.060606
698.528000,0.061709
698.835580,0.063216
699.143120,0.061185
699.450620,0.060461
699.758080,0.062353
700.065500,0.060654
700.372880,0.060000
700.680220,0.062226
700.987520,0.063095
701.294780,0.062449
701.602000,0.060222
701.909180,0.062798
702.216320,0.063355
702.523420,0.062747
702.830480,0.062178
703.137500,0.060795
703.444480,0.062722
703.751420,0.061538
704.058320,0.063316
704.365180,0.063880
704.672000,0.062574
704.978780,0.060476
705.285520,0.059468
705.592220,0.058431
705.898880,0.063436
706.205500,0.060642
706.512080,0.058057
706.818620,0.061146
707.125120,0.062692
707.431580,0.060180
707.738000,0.060937
708.044380,0.057893
708.350720,0.061903
708.657020,0.062134
708.963280,0.059783
709.269500,0.064579
709.575680,0.060511
709.881820,0.059748
710.187920,0.060700
710.493980,0.060124
710.800000,0.062929
711.105980,0.058735
711.411920,0.059913
711.717820,0.060819
712.023680,0.062573
712.329500,0.062303
712.635280,0.064341
712.941020,0.064554
713.246720,0.059289
713.552380,0.058085
713.858000,0.061490
714.163580,0.061563
714.469120,0.059398
714.774620,0.061192
715.080080,0.060071
715.385500,0.062350
715.690880,0.058777
715.996220,0.059826
716.301520,0.061265
716.606780,0.059748
716.912000,0.060985
717.217180,0.062251
717.522320,0.061630
717.827420,0.062653
718.132480,0.059012
718.437500,0.064819
718.742480,0.063306
719.047420,0.061893
719.352320,0.063097
719.657180,0.062142
719.962000,0.059553
720.266780,0.057333
720.571520,0.060066
720.876220,0.061375
721.180880,0.063545
721.485500,0.060593
721.790080,0.056476
722.094620,0.062178
722.399120,0.062042
722.703580,0.061294
723.008000,0.062096
723.312380,0.062850
723.616720,0.058649
723.921020,0.062365
724.225280,0.061082
724.529500,0.061296
724.833680,0.061833
725.137820,0.057709
725.441920,0.059741
725.745980,0.060850
726.050000,0.059540
726.353980,0.059036
726.657920,0.062978
726.961820,0.059361
727.265680,0.064725
727.569500,0.064899
727.873280,0.060970
728.177020,0.064947
728.480720,0.060185
728.784380,0.064819
729.088000,0.060763
729.391580,0.061582
729.695120,0.063820
729.998620,0.063098
730.302080,0.059106
730.605500,0.058224
730.908880,0.059775
731.212220,0.058276
731.515520,0.060946
731.818780,0.061650
732.122000,0.065945
732.425180,0.061607
732.728320,0.059990
733.031420,0.062155
733.334480,0.057653
733.637500,0.058468
733.940480,0.060901
734.243420,0.064730
734.546320,0.064834
734.849180,0.061983
735.152000,0.060685
735.454780,0.058368
735.757520,0.062698
736.060220,0.060558
736.362880,0.062500
736.665500,0.061097
736.968080,0.062332
737.270620,0.062058
737.573120,0.060590
737.875580,0.062122
738.178000,0.060425
738.480380,0.060541
738.782720,0.059978
739.085020,0.058921
739.387280,0.057650
739.689500,0.058890
739.991680,0.060640
740.293820,0.064124
740.595920,0.058987
740.897980,0.058724
741.200000,0.062255
741.501980,0.065330
741.803920,0.058559
742.105820,0.060350
742.407680,0.063483
742.709500,0.064773
743.011280,0.059203
743.313020,0.063188
743.614720,0.061521
743.916380,0.056977
744.218000,0.064439
744.519580,0.060990
744.821120,0.059281
745.122620,0.061714
745.424080,0.057692
745.725500,0.062161
746.026880,0.059113
746.328220,0.056720
746.629520,0.064419
746.930780,0.060662
747.232000,0.060699
747.533180,0.064674
747.834320,0.062082
748.135420,0.061529
748.436480,0.061759
748.737500,0.064237
749.038480,0.065974
749.339420,0.066584
749.640320,0.063482
749.941180,0.063710
750.242000,0.059673
750.542780,0.063896
750.843520,0.067905
751.144220,0.057692
751.444880,0.068484
751.745500,0.059740
752.046080,0.064785
752.346620,0.056057
752.647120,0.062051
752.947580,0.060155
753.248000,0.063185
753.548380,0.060507
753.848720,0.061816
754.149020,0.061896
754.449280,0.065660
754.749500,0.059721
755.049680,0.060000
755.349820,0.063376
755.649920,0.058163
755.949980,0.063703
756.250000,0.062459
756.549980,0.059406
756.849920,0.059823
757.149820,0.060546
757.449680,0.065347
757.749500,0.062713
758.049280,0.059386
758.349020,0.055633
758.648720,0.060041
758.948380,0.059107
759.248000,0.061995
759.547580,0.057162
759.847120,0.057891
760.146620,0.060217
760.446080,0.061828
760.745500,0.060839
761.044880,0.059659
761.344220,0.061297
761.643520,0.065678
761.942780,0.063681
762.242000,0.062942
762.541180,0.060563
762.840320,0.061798
763.139420,0.056962
763.438480,0.057416
763.737500,0.065472
764.036480,0.060098
764.335420,0.059986
764.634320,0.056133
764.933180,0.065753
765.232000,0.068702
765.530780,0.062456
765.829520,0.065734
766.128220,0.064718
766.426880,0.061123
766.725500,0.065113
767.024080,0.061728
767.322620,0.059474
767.621120,0.060976
767.919580,0.062799
768.218000,0.060876
768.516380,0.062204
768.814720,0.052126
769.113020,0.063405
769.411280,0.062845
769.709500,0.062923
770.007680,0.057260
770.305820,0.059500
770.603920,0.063342
770.901980,0.060109
771.200000,0.061141
771.497980,0.066354
771.795920,0.057525
772.093820,0.062834
772.391680,0.063283
772.689500,0.057432
772.987280,0.058586
773.285020,0.061517
773.582720,0.063514
773.880380,0.062457
774.178000,0.056578
774.475580,0.066309
774.773120,0.058233
775.070620,0.061528
775.368080,0.063460
775.665500,0.058428
775.962880,0.064710
776.260220,0.059892
776.557520,0.057372
776.854780,0.062204
777.152000,0.060345
777.449180,0.059339
777.746320,0.059812
778.043420,0.061392
778.340480,0.057510
778.637500,0.062880
778.934480,0.066577
779.231420,0.063772
779.528320,0.062792
779.825180,0.060606
780.122000,0.061089
780.418780,0.065663
780.715520,0.060362
781.012220,0.070548
781.308880,0.068289
781.605500,0.056849
781.902080,0.062286
782.198620,0.058783
782.495120,0.065158
782.791580,0.059835
783.088000,0.061422
783.384380,0.064649
783.680720,0.058824
783.977020,0.060564
784.273280,0.062937
784.569500,0.055206
784.865680,0.064673
785.161820,0.061806
785.457920,0.059598
785.753980,0.056525
786.050000,0.057320
786.345980,0.063889
786.641920,0.066620
786.937820,0.059829
787.233680,0.064022
787.529500,0.061026
787.825280,0.065156
788.121020,0.057365
788.416720,0.064220
788.712380,0.063470
789.008000,0.061615
789.303580,0.057951
789.599120,0.061818
789.894620,0.059206
790.190080,0.053662
790.485500,0.057595
790.780880,0.059498
791.076220,0.064214
791.371520,0.060276
791.666780,0.065455
791.962000,0.061719
792.257180,0.063690
792.552320,0.069616
792.847420,0.069869
793.142480,0.063736
793.437500,0.063676
793.732480,0.057791
794.027420,0.060089
794.322320,0.059657
794.617180,0.056464
794.912000,0.062407
795.206780,0.058911
795.501520,0.063118
795.796220,0.060000
796.090880,0.063301
796.385500,0.058471
796.680080,0.056096
796.974620,0.062126
797.269120,0.056775
797.563580,0.056489
797.858000,0.061503
798.152380,0.063418
798.446720,0.056923
798.741020,0.060092
799.035280,0.063665
799.329500,0.060046
799.623680,0.064341
