399.985280,0.108108
400.329500,0.027027
400.673680,0.025316
401.017820,-0.044118
401.361920,-0.045455
401.705980,0.024390
402.050000,0.000000
402.393980,0.105882
402.737920,0.044944
403.081820,0.061856
403.425680,0.058140
403.769500,0.010417
404.113280,0.045977
404.457020,0.056180
404.800720,0.000000
405.144380,0.070707
405.488000,0.053763
405.831580,0.041237
406.175120,0.063830
406.518620,0.080000
406.862080,0.051546
407.205500,0.062500
407.548880,0.040816
407.892220,0.049020
408.235520,-0.010638
408.578780,0.047619
408.922000,0.000000
409.265180,0.090909
409.608320,0.030303
409.951420,0.082474
410.294480,0.088235
410.637500,0.054348
410.980480,0.088235
411.323420,0.040816
411.666320,0.045872
412.009180,0.045455
412.352000,-0.029703
412.694780,0.073394
413.037520,0.045872
413.380220,0.036036
413.722880,0.017857
414.065500,0.072072
414.408080,0.053097
414.750620,-0.017699
415.093120,0.024793
415.435580,0.033613
415.778000,0.083333
416.120380,0.050420
416.462720,0.063492
416.805020,0.060150
417.147280,0.007463
417.489500,0.021429
417.831680,0.013699
418.173820,0.000000
418.515920,-0.006993
418.857980,0.025316
419.200000,0.038462
419.541980,0.041420
419.883920,0.033708
420.225820,0.086705
420.567680,0.050279
420.909500,0.060109
421.251280,0.057292
421.593020,0.045918
421.934720,0.055556
422.276380,0.035897
422.618000,0.053922
422.959580,0.068627
423.301120,0.054795
423.642620,0.034783
423.984080,0.041860
424.325500,0.035874
424.666880,0.047414
425.008220,0.021008
425.349520,0.033898
425.690780,0.038462
426.032000,0.023529
426.373180,0.066390
426.714320,0.062500
427.055420,0.046332
427.396480,0.052434
427.737500,0.027668
428.078480,0.035573
428.419420,0.048193
428.760320,0.045977
429.101180,0.074803
429.442000,0.068966
429.782780,0.042308
430.123520,0.043137
430.464220,0.062731
430.804880,0.065134
431.145500,0.036364
431.486080,0.052434
431.826620,0.034884
432.167120,0.051471
432.507580,0.050725
432.848000,0.071942
433.188380,0.050542
433.528720,0.045283
433.869020,0.050000
434.209280,0.038596
434.549500,0.052265
434.889680,0.057239
435.229820,0.058020
435.569920,0.044983
435.909980,0.042071
436.250000,0.067797
436.589980,0.040248
436.929920,0.047619
437.269820,0.053292
437.609680,0.050296
437.949500,0.039157
438.289280,0.048159
438.629020,0.063953
438.968720,0.061047
439.308380,0.037940
439.648000,0.030137
439.987580,0.055556
440.327120,0.050667
440.666620,0.038961
441.006080,0.040921
441.345500,0.046683
441.684880,0.062201
442.024220,0.042184
442.363520,0.038095
442.702780,0.036364
443.042000,0.028634
443.381180,0.047414
443.720320,0.060475
444.059420,0.035714
444.398480,0.035565
444.737500,0.053279
445.076480,0.049603
445.415420,0.041916
445.754320,0.037422
446.093180,0.047706
446.432000,0.050752
446.770780,0.041746
447.109520,0.055147
447.448220,0.046512
447.786880,0.059034
448.125500,0.060345
448.464080,0.053571
448.802620,0.054965
449.141120,0.048443
449.479580,0.045455
449.818000,0.056799
450.156380,0.045151
450.494720,0.047934
450.833020,0.054196
451.171280,0.047945
451.509500,0.057491
451.847680,0.048904
452.185820,0.051635
452.523920,0.065292
452.861980,0.050590
453.200000,0.049834
453.537980,0.045378
453.875920,0.053782
454.213820,0.042808
454.551680,0.051325
454.889500,0.057336
455.227280,0.037367
455.565020,0.055276
455.902720,0.044925
456.240380,0.043261
456.578000,0.054007
456.915580,0.051813
457.253120,0.049342
457.590620,0.060755
457.928080,0.057239
458.265500,0.042230
458.602880,0.050325
458.940220,0.037225
459.277520,0.048000
459.614780,0.058920
459.952000,0.051242
460.289180,0.047468
460.626320,0.050394
460.963420,0.048465
461.300480,0.055046
461.637500,0.047766
461.974480,0.048930
462.311420,0.047690
462.648320,0.051245
462.985180,0.047346
463.322000,0.043155
463.658780,0.045580
463.995520,0.049519
464.332220,0.047091
464.668880,0.055108
465.005500,0.052279
465.342080,0.048656
465.678620,0.052891
466.015120,0.049159
466.351580,0.055626
466.688000,0.052375
467.024380,0.048603
467.360720,0.052273
467.697020,0.054670
468.033280,0.058889
468.369500,0.051876
468.705680,0.054115
469.041820,0.051042
469.377920,0.049892
469.713980,0.056643
470.050000,0.061836
470.385980,0.052838
470.721920,0.051910
471.057820,0.049708
471.393680,0.057063
471.729500,0.049120
472.065280,0.054562
472.401020,0.045213
472.736720,0.052356
473.072380,0.044883
473.408000,0.053090
473.743580,0.045848
474.079120,0.056848
474.414620,0.049194
474.750080,0.051261
475.085500,0.054276
475.420880,0.052456
475.756220,0.053148
476.091520,0.050298
476.426780,0.052589
476.762000,0.049879
477.097180,0.054400
477.432320,0.054927
477.767420,0.050654
478.102480,0.050394
478.437500,0.046798
478.772480,0.049645
479.107420,0.048820
479.442320,0.050360
479.777180,0.046142
480.112000,0.050077
480.446780,0.050663
480.781520,0.054750
481.116220,0.049313
481.450880,0.051522
481.785500,0.053006
482.120080,0.053292
482.454620,0.053613
482.789120,0.045382
483.123580,0.047508
483.458000,0.052215
483.792380,0.047125
484.126720,0.047876
484.461020,0.049961
484.795280,0.057055
485.129500,0.053001
485.463680,0.051938
485.797820,0.055210
486.131920,0.051262
486.465980,0.053282
486.800000,0.053435
487.133980,0.049849
487.467920,0.049732
487.801820,0.056445
488.135680,0.055345
488.469500,0.050681
488.803280,0.054235
489.137020,0.049084
489.470720,0.048220
489.804380,0.051967
490.138000,0.052671
490.471580,0.055269
490.805120,0.055754
491.138620,0.045487
491.472080,0.050177
491.805500,0.054393
492.138880,0.050035
492.472220,0.051903
492.805520,0.050978
493.138780,0.056513
493.472000,0.057525
493.805180,0.055252
494.138320,0.054036
494.471420,0.055339
494.804480,0.048512
495.137500,0.056483
495.470480,0.060548
495.803420,0.055416
496.136320,0.055764
496.469180,0.054635
496.802000,0.052567
497.134780,0.053972
497.467520,0.057492
497.800220,0.055425
498.132880,0.052322
498.465500,0.052144
498.798080,0.051941
499.130620,0.056710
499.463120,0.058956
499.795580,0.054455
500.128000,0.054496
500.460380,0.053283
500.792720,0.050901
501.125020,0.052023
501.457280,0.050653
501.789500,0.049070
502.121680,0.057024
502.453820,0.052524
502.785920,0.054027
503.117980,0.053484
503.450000,0.053742
503.781980,0.052317
504.113920,0.055951
504.445820,0.052504
504.777680,0.050353
505.109500,0.050962
505.441280,0.054493
505.773020,0.054016
506.104720,0.053227
506.436380,0.056791
506.768000,0.055192
507.099580,0.054462
507.431120,0.054801
507.762620,0.049812
508.094080,0.053783
508.425500,0.057423
508.756880,0.051212
509.088220,0.052898
509.419520,0.053073
509.750780,0.053421
510.082000,0.056903
510.413180,0.057117
510.744320,0.052462
511.075420,0.051787
511.406480,0.055007
511.737500,0.054167
512.068480,0.055451
512.399420,0.053052
512.730320,0.053580
513.061180,0.053758
513.392000,0.054898
513.722780,0.053314
514.053520,0.051749
514.384220,0.053283
514.714880,0.055529
515.045500,0.051245
515.376080,0.052300
515.706620,0.051632
516.037120,0.054902
516.367580,0.055200
516.698000,0.054412
517.028380,0.057597
517.358720,0.051358
517.689020,0.054896
518.019280,0.054190
518.349500,0.052712
518.679680,0.050984
519.009820,0.051113
519.339920,0.060621
519.669980,0.057258
520.000000,0.051961
520.329980,0.052877
520.659920,0.054192
520.989820,0.056244
521.319680,0.058128
521.649500,0.055527
521.979280,0.055324
522.309020,0.057573
522.638720,0.050179
522.968380,0.057394
523.298000,0.052714
523.627580,0.050698
523.957120,0.055065
524.286620,0.058364
524.616080,0.054292
524.945500,0.056331
525.274880,0.056952
525.604220,0.056936
525.933520,0.057128
526.262780,0.052205
526.592000,0.055809
526.921180,0.062976
527.250320,0.051243
527.579420,0.057605
527.908480,0.058592
528.237500,0.056604
528.566480,0.055389
528.895420,0.056678
529.224320,0.056959
529.553180,0.053976
529.882000,0.058394
530.210780,0.056467
530.539520,0.057047
530.868220,0.052657
531.196880,0.054467
531.525500,0.062954
531.854080,0.058630
532.182620,0.054647
532.511120,0.051508
532.839580,0.052632
533.168000,0.057429
533.496380,0.057991
533.824720,0.058322
534.153020,0.054837
534.481280,0.058150
534.809500,0.059367
535.137680,0.058160
535.465820,0.054983
535.793920,0.058376
536.121980,0.057910
536.450000,0.055391
536.777980,0.056975
537.105920,0.057700
537.433820,0.058920
537.761680,0.058367
538.089500,0.056657
538.417280,0.052527
538.745020,0.061014
539.072720,0.052714
539.400380,0.058275
539.728000,0.057361
540.055580,0.054307
540.383120,0.059196
540.710620,0.056548
541.038080,0.056068
541.365500,0.056618
541.692880,0.055596
542.020220,0.056495
542.347520,0.058507
542.674780,0.058574
543.002000,0.057033
543.329180,0.057173
543.656320,0.057314
543.983420,0.058803
544.310480,0.057085
544.637500,0.058683
544.964480,0.055518
545.291420,0.054171
545.618320,0.058433
545.945180,0.054713
546.272000,0.054391
546.598780,0.055392
546.925520,0.059017
547.252220,0.055794
547.578880,0.057674
547.905500,0.055882
548.232080,0.054906
548.558620,0.056622
548.885120,0.058881
549.211580,0.057859
549.538000,0.056744
549.864380,0.056592
550.190720,0.059089
550.517020,0.058018
550.843280,0.056678
551.169500,0.057252
551.495680,0.059133
551.821820,0.059765
552.147920,0.056278
552.473980,0.054001
552.800000,0.059516
553.125980,0.059921
553.451920,0.057731
553.777820,0.057628
554.103680,0.055275
554.429500,0.054570
554.755280,0.056742
555.081020,0.054479
555.406720,0.056891
555.732380,0.056252
556.058000,0.058045
556.383580,0.053064
556.709120,0.055824
557.034620,0.056838
557.360080,0.056304
557.685500,0.059129
558.010880,0.055806
558.336220,0.054130
558.661520,0.058135
558.986780,0.059178
559.312000,0.058048
559.637180,0.058528
559.962320,0.058028
560.287420,0.059944
560.612480,0.056692
560.937500,0.058370
561.262480,0.057185
561.587420,0.058034
561.912320,0.056743
562.237180,0.058845
562.562000,0.056491
562.886780,0.056856
563.211520,0.059613
563.536220,0.056030
563.860880,0.056205
564.185500,0.058537
564.510080,0.057938
564.834620,0.056941
565.159120,0.057143
565.483580,0.055872
565.808000,0.056754
566.132380,0.058187
566.456720,0.058579
566.781020,0.056264
567.105280,0.056333
567.429500,0.057284
567.753680,0.057537
568.077820,0.059142
568.401920,0.060351
568.725980,0.058824
569.050000,0.059316
569.373980,0.059383
569.697920,0.056883
570.021820,0.057303
570.345680,0.058936
570.669500,0.061427
570.993280,0.059432
571.317020,0.058458
571.640720,0.058170
571.964380,0.056793
572.288000,0.058976
572.611580,0.061400
572.935120,0.055743
573.258620,0.061705
573.582080,0.056632
573.905500,0.058079
574.228880,0.058278
574.552220,0.059362
574.875520,0.060313
575.198780,0.061800
575.522000,0.057918
575.845180,0.059456
576.168320,0.057851
576.491420,0.059593
576.814480,0.060398
577.137500,0.058081
577.460480,0.059442
577.783420,0.060021
578.106320,0.058048
578.429180,0.061859
578.752000,0.056964
579.074780,0.057991
579.397520,0.058425
579.720220,0.057593
580.042880,0.062438
580.365500,0.058570
580.688080,0.059023
581.010620,0.060412
581.333120,0.062458
581.655580,0.061272
581.978000,0.057532
582.300380,0.059396
582.622720,0.060316
582.945020,0.059818
583.267280,0.059915
583.589500,0.060674
583.911680,0.061289
584.233820,0.058861
584.555920,0.061141
584.877980,0.059359
585.200000,0.059546
585.521980,0.058696
585.843920,0.059487
586.165820,0.056977
586.487680,0.059585
586.809500,0.059106
587.131280,0.057675
587.453020,0.059226
587.774720,0.056475
588.096380,0.058343
588.418000,0.059409
588.739580,0.060075
589.061120,0.060380
589.382620,0.057880
589.704080,0.059467
590.025500,0.061929
590.346880,0.060989
590.668220,0.062167
590.989520,0.057682
591.310780,0.056338
591.632000,0.059563
591.953180,0.061998
592.274320,0.057603
592.595420,0.061153
592.916480,0.057321
593.237500,0.059014
593.558480,0.058380
593.879420,0.060696
594.200320,0.059202
594.521180,0.061355
594.842000,0.059108
595.162780,0.060363
595.483520,0.057697
595.804220,0.055048
596.124880,0.057820
596.445500,0.057375
596.766080,0.061307
597.086620,0.058386
597.407120,0.058978
597.727580,0.060196
598.048000,0.058715
598.368380,0.058653
598.688720,0.058716
599.009020,0.060510
599.329280,0.058808
599.649500,0.058637
599.969680,0.060897
600.289820,0.060096
600.609920,0.059845
600.929980,0.058525
601.250000,0.059459
601.569980,0.060762
601.889920,0.060412
602.209820,0.058442
602.529680,0.057676
602.849500,0.057010
603.169280,0.059245
603.489020,0.059507
603.808720,0.059517
604.128380,0.060982
604.448000,0.058287
604.767580,0.059497
605.087120,0.057618
605.406620,0.059054
605.726080,0.060451
606.045500,0.058233
606.364880,0.060391
606.684220,0.061393
607.003520,0.059633
607.322780,0.058556
607.642000,0.060310
607.961180,0.059555
608.280320,0.058875
608.599420,0.058517
608.918480,0.057771
609.237500,0.058685
609.556480,0.057413
609.875420,0.058771
610.194320,0.059345
610.513180,0.060669
610.832000,0.059857
611.150780,0.058276
611.469520,0.059729
611.788220,0.060459
612.106880,0.061821
612.425500,0.056029
612.744080,0.060018
613.062620,0.057798
613.381120,0.059720
613.699580,0.057020
614.018000,0.059275
614.336380,0.059531
614.654720,0.059845
614.973020,0.060784
615.291280,0.062287
615.609500,0.063391
615.927680,0.058096
616.245820,0.060606
616.563920,0.061548
616.881980,0.062364
617.200000,0.060653
617.517980,0.060983
617.835920,0.056850
618.153820,0.058440
618.471680,0.058605
618.789500,0.058527
619.107280,0.059468
619.425020,0.059943
619.742720,0.057439
620.060380,0.060169
620.378000,0.059471
620.695580,0.060026
621.013120,0.058898
621.330620,0.060872
621.648080,0.058991
621.965500,0.060226
622.282880,0.060845
622.600220,0.059065
622.917520,0.057341
623.234780,0.059145
623.552000,0.059198
623.869180,0.061771
624.186320,0.061127
624.503420,0.058621
624.820480,0.059692
625.137500,0.060941
625.454480,0.059706
625.771420,0.060530
626.088320,0.059269
626.405180,0.061294
626.722000,0.061167
627.038780,0.058584
627.355520,0.058438
627.672220,0.060031
627.988880,0.059098
628.305500,0.062948
628.622080,0.059480
628.938620,0.063303
629.255120,0.063472
629.571580,0.060374
629.888000,0.062903
630.204380,0.060448
630.520720,0.059415
630.837020,0.062288
631.153280,0.060552
631.469500,0.061249
631.785680,0.062990
632.101820,0.059409
632.417920,0.058718
632.733980,0.058523
633.050000,0.060340
633.365980,0.061648
633.681920,0.063246
633.997820,0.061566
634.313680,0.060454
634.629500,0.059569
634.945280,0.063050
635.261020,0.063692
635.576720,0.060482
635.892380,0.061865
636.208000,0.063335
636.523580,0.061970
636.839120,0.059931
637.154620,0.062029
637.470080,0.061406
637.785500,0.059203
638.100880,0.061685
638.416220,0.061547
638.731520,0.061891
639.046780,0.061754
639.362000,0.059920
639.677180,0.062821
639.992320,0.061742
640.307420,0.063782
640.622480,0.063568
640.937500,0.061304
641.252480,0.061156
641.567420,0.060529
641.882320,0.059298
642.197180,0.061763
642.512000,0.062413
642.826780,0.061026
643.141520,0.062795
643.456220,0.061981
643.770880,0.059978
644.085500,0.061207
644.400080,0.062079
644.714620,0.063545
645.029120,0.059681
645.343580,0.058420
645.658000,0.059117
645.972380,0.063853
646.286720,0.061597
646.601020,0.060614
646.915280,0.060324
647.229500,0.060440
647.543680,0.058824
647.857820,0.060831
648.171920,0.061313
648.485980,0.062483
648.800000,0.058694
649.113980,0.059313
649.427920,0.062413
649.741820,0.057708
650.055680,0.060889
650.369500,0.059697
650.683280,0.061321
650.997020,0.061056
651.310720,0.059989
651.624380,0.059341
651.938000,0.062604
652.251580,0.062343
652.565120,0.060928
652.878620,0.060248
653.192080,0.061798
653.505500,0.059748
653.818880,0.061985
654.132220,0.061521
654.445520,0.059841
654.758780,0.062890
655.072000,0.060458
655.385180,0.057917
655.698320,0.060875
656.011420,0.059616
656.324480,0.059166
656.637500,0.059386
656.950480,0.060775
657.263420,0.062075
657.576320,0.060184
657.889180,0.064583
658.202000,0.057669
658.514780,0.060732
658.827520,0.063025
659.140220,0.061133
659.452880,0.061613
659.765500,0.059302
660.078080,0.059585
660.390620,0.060189
660.703120,0.060495
661.015580,0.061350
661.328000,0.063287
661.640380,0.060267
661.952720,0.063532
662.265020,0.061752
662.577280,0.064567
662.889500,0.060549
663.201680,0.059987
663.513820,0.062721
663.825920,0.058598
664.137980,0.062702
664.450000,0.062020
664.761980,0.062193
665.073920,0.059721
665.385820,0.060864
665.697680,0.064132
666.009500,0.063186
666.321280,0.061962
666.633020,0.058178
666.944720,0.056960
667.256380,0.061238
667.568000,0.056726
667.879580,0.058844
668.191120,0.062500
668.502620,0.056830
668.814080,0.060000
669.125500,0.059186
669.436880,0.062932
669.748220,0.058152
670.059520,0.063725
670.370780,0.060891
670.682000,0.060531
670.993180,0.059901
671.304320,0.061885
671.615420,0.058594
671.926480,0.060681
672.237500,0.058235
672.548480,0.059262
672.859420,0.058971
673.170320,0.060210
673.481180,0.059739
673.792000,0.057339
674.102780,0.057810
674.413520,0.059424
674.724220,0.059165
675.034880,0.060873
675.345500,0.061634
675.656080,0.063884
675.966620,0.061841
676.277120,0.060051
676.587580,0.060383
676.898000,0.057857
677.208380,0.059519
677.518720,0.059081
677.829020,0.063193
678.139280,0.060044
678.449500,0.062013
678.759680,0.062196
679.069820,0.057249
679.379920,0.059223
679.689980,0.059042
680.000000,0.057944
680.309980,0.059020
680.619920,0.060583
680.929820,0.060844
681.239680,0.060931
681.549500,0.063704
681.859280,0.061987
682.169020,0.060798
682.478720,0.062453
682.788380,0.063861
683.098000,0.062453
683.407580,0.061163
683.717120,0.058559
684.026620,0.060994
684.336080,0.060629
684.645500,0.054620
684.954880,0.058557
685.264220,0.061910
685.573520,0.064713
685.882780,0.063675
686.192000,0.059443
686.501180,0.062429
686.810320,0.063797
687.119420,0.059293
687.428480,0.059628
687.737500,0.064467
688.046480,0.060583
688.355420,0.061109
688.664320,0.060061
688.973180,0.063553
689.282000,0.060571
689.590780,0.060966
689.899520,0.057729
690.208220,0.061162
690.516880,0.060710
690.825500,0.059245
691.134080,0.061124
691.442620,0.061357
691.751120,0.063709
692.059580,0.061521
692.368000,0.059069
692.676380,0.060687
692.984720,0.057252
693.293020,0.060030
693.601280,0.061045
693.909500,0.062051
694.217680,0.063214
694.525820,0.062452
694.833920,0.060282
695.141980,0.061705
695.450000,0.064122
695.757980,0.065699
696.065920,0.061748
696.373820,0.063895
696.681680,0.060606
696.989500,0.062910
697.297280,0.060677
697.605020,0.063889
697.912720,0.061491
698.220380,0.061393
698.528000,0.064082
698.835580,0.062821
699.143120,0.061185
699.450620,0.064439
699.758080,0.063529
700.065500,0.060255
700.372880,0.062400
700.680220,0.059832
700.987520,0.061508
701.294780,0.061233
701.602000,0.059429
701.909180,0.063196
702.216320,0.059445
702.523420,0.061168
702.830480,0.059010
703.137500,0.063913
703.444480,0.064694
703.751420,0.057594
704.058320,0.061338
704.365180,0.062697
704.672000,0.062970
704.978780,0.056184
705.285520,0.059077
705.592220,0.061176
705.898880,0.061466
706.205500,0.060642
706.512080,0.060821
706.818620,0.060372
707.125120,0.063077
707.431580,0.057054
707.738000,0.064453
708.044380,0.059822
708.350720,0.063431
708.657020,0.060961
708.963280,0.059783
709.269500,0.062622
709.575680,0.062868
709.881820,0.059748
710.187920,0.061868
710.493980,0.060512
710.800000,0.058734
711.105980,0.059111
711.411920,0.059125
711.717820,0.062378
712.023680,0.059075
712.329500,0.061514
712.635280,0.063566
712.941020,0.063394
713.246720,0.059684
713.552380,0.062402
713.858000,0.061490
714.163580,0.061168
714.469120,0.059007
714.774620,0.063166
715.080080,0.062819
715.385500,0.061551
715.690880,0.057594
715.996220,0.060618
716.301520,0.062846
716.606780,0.059748
716.912000,0.058158
717.217180,0.060255
717.522320,0.059642
717.827420,0.061839
718.132480,0.061020
718.437500,0.058296
718.742480,0.060887
719.047420,0.059871
719.352320,0.062267
719.657180,0.062960
719.962000,0.059140
720.266780,0.062734
720.571520,0.058824
720.876220,0.060147
721.180880,0.057692
721.485500,0.060593
721.790080,0.061146
722.094620,0.060463
722.399120,0.063766
722.703580,0.063009
723.008000,0.058215
723.312380,0.062850
723.616720,0.058649
723.921020,0.058900
724.225280,0.062391
724.529500,0.061296
724.833680,0.064502
725.137820,0.059912
725.441920,0.060187
725.745980,0.063982
726.050000,0.061795
726.353980,0.062190
726.657920,0.060729
726.961820,0.068037
727.265680,0.064725
727.569500,0.063528
727.873280,0.059122
728.177020,0.063565
728.480720,0.062500
728.784380,0.063410
729.088000,0.062176
729.391580,0.062530
729.695120,0.060940
729.998620,0.059751
730.302080,0.061989
730.605500,0.062106
730.908880,0.061734
731.212220,0.062684
731.515520,0.059971
731.818780,0.062136
732.122000,0.065453
732.425180,0.060128
732.728320,0.063956
733.031420,0.059148
733.334480,0.055612
733.637500,0.056452
733.940480,0.060389
734.243420,0.066259
734.546320,0.060166
734.849180,0.059917
735.152000,0.059647
735.454780,0.057335
735.757520,0.060590
736.060220,0.061085
736.362880,0.062500
736.665500,0.056919
736.968080,0.063407
737.270620,0.064780
737.573120,0.057860
737.875580,0.063771
738.178000,0.059336
738.480380,0.061622
738.782720,0.063795
739.085020,0.060022
739.387280,0.061530
739.689500,0.059456
739.991680,0.062886
740.293820,0.063018
740.595920,0.065665
740.897980,0.063806
741.200000,0.062255
741.501980,0.065330
741.803920,0.060811
742.105820,0.059222
742.407680,0.058241
742.709500,0.060227
743.011280,0.057444
743.313020,0.062609
743.614720,0.059779
743.916380,0.061628
744.218000,0.065036
744.519580,0.059179
744.821120,0.064671
745.122620,0.061714
745.424080,0.060096
745.725500,0.063368
746.026880,0.060345
746.328220,0.058570
746.629520,0.062613
746.930780,0.062500
747.232000,0.060086
747.533180,0.060403
747.834320,0.060864
748.135420,0.060907
748.436480,0.061759
748.737500,0.062384
749.038480,0.059255
749.339420,0.062850
749.640320,0.064111
749.941180,0.059338
750.242000,0.058417
750.542780,0.062035
750.843520,0.064061
751.144220,0.062821
751.444880,0.065314
751.745500,0.053896
752.046080,0.060936
752.346620,0.054768
752.647120,0.062051
752.947580,0.063389
753.248000,0.068988
753.548380,0.060507
753.848720,0.062460
754.149020,0.055448
754.449280,0.065003
754.749500,0.058394
755.049680,0.057333
755.349820,0.062041
755.649920,0.061467
755.949980,0.062376
756.250000,0.063774
756.549980,0.055446
756.849920,0.059823
757.149820,0.063207
757.449680,0.066007
757.749500,0.057941
758.049280,0.058020
758.349020,0.060501
758.648720,0.062112
758.948380,0.061168
759.248000,0.059973
759.547580,0.061870
759.847120,0.061337
760.146620,0.060893
760.446080,0.060484
760.745500,0.060140
761.044880,0.057528
761.344220,0.065574
761.643520,0.065678
761.942780,0.060882
762.242000,0.065771
762.541180,0.061268
762.840320,0.059691
763.139420,0.057665
763.438480,0.060834
763.737500,0.062715
764.036480,0.062893
764.335420,0.060692
764.634320,0.058905
764.933180,0.063699
765.232000,0.059681
765.530780,0.061754
765.829520,0.062238
766.128220,0.064022
766.426880,0.060412
766.725500,0.061001
767.024080,0.059671
767.322620,0.059474
767.621120,0.063008
767.919580,0.054608
768.218000,0.060192
768.516380,0.062880
768.814720,0.058299
769.113020,0.056513
769.411280,0.064917
769.709500,0.065629
770.007680,0.056578
770.305820,0.066261
770.603920,0.058625
770.901980,0.063525
771.200000,0.060462
771.497980,0.063673
771.795920,0.058863
772.093820,0.062834
772.391680,0.059328
772.689500,0.060135
772.987280,0.058586
773.285020,0.059467
773.582720,0.060135
773.880380,0.059025
774.178000,0.055215
774.475580,0.060951
774.773120,0.055556
775.070620,0.064233
775.368080,0.063460
775.665500,0.059772
775.962880,0.062041
776.260220,0.060565
776.557520,0.064710
776.854780,0.058824
777.152000,0.062997
777.449180,0.064734
777.746320,0.056452
778.043420,0.057299
778.340480,0.061570
778.637500,0.057471
778.934480,0.062542
779.231420,0.061737
779.528320,0.058784
779.825180,0.061265
780.122000,0.063081
780.418780,0.067715
780.715520,0.061704
781.012220,0.064384
781.308880,0.061528
781.605500,0.062329
781.902080,0.063655
782.198620,0.060834
782.495120,0.065158
782.791580,0.065337
783.088000,0.064872
783.384380,0.068776
783.680720,0.059508
783.977020,0.061253
784.273280,0.060839
784.569500,0.062194
784.865680,0.063978
785.161820,0.062500
785.457920,0.059598
785.753980,0.057223
786.050000,0.060083
786.345980,0.065972
786.641920,0.061763
786.937820,0.061966
787.233680,0.063326
787.529500,0.064494
787.825280,0.066572
788.121020,0.059490
788.416720,0.060692
788.712380,0.061354
789.008000,0.064448
789.303580,0.063604
789.599120,0.060364
789.894620,0.064260
790.190080,0.055112
790.485500,0.059035
790.780880,0.055197
791.076220,0.062049
791.371520,0.061002
791.666780,0.067636
791.962000,0.058046
792.257180,0.060029
792.552320,0.063089
792.847420,0.064774
793.142480,0.067399
793.437500,0.062229
793.732480,0.062180
794.027420,0.059347
794.322320,0.058166
794.617180,0.057949
794.912000,0.063893
795.206780,0.055183
795.501520,0.060076
795.796220,0.063704
796.090880,0.061794
796.385500,0.061469
796.680080,0.061331
796.974620,0.068114
797.269120,0.060560
797.563580,0.061069
797.858000,0.064541
798.152380,0.062645
798.446720,0.058462
798.741020,0.064715
799.035280,0.065217
799.329500,0.059276
799.623680,0.061240
