399.985280,0.040541
400.329500,0.013514
400.673680,0.088608
401.017820,0.000000
401.361920,-0.121212
401.705980,0.012195
402.050000,-0.012987
402.393980,0.058824
402.737920,0.022472
403.081820,0.041237
403.425680,0.081395
403.769500,-0.010417
404.113280,0.000000
404.457020,0.022472
404.800720,0.010870
405.144380,0.090909
405.488000,0.032258
405.831580,0.061856
406.175120,0.042553
406.518620,0.100000
406.862080,0.061856
407.205500,0.000000
407.548880,0.030612
407.892220,0.068627
408.235520,0.031915
408.578780,0.114286
408.922000,0.048077
409.265180,0.070707
409.608320,0.050505
409.951420,0.072165
410.294480,0.117647
410.637500,0.054348
410.980480,0.019608
411.323420,0.040816
411.666320,0.073394
412.009180,0.100000
412.352000,-0.019802
412.694780,0.110092
413.037520,0.045872
413.380220,0.063063
413.722880,0.080357
414.065500,0.072072
414.408080,0.035398
414.750620,0.008850
415.093120,0.008264
415.435580,0.025210
415.778000,0.098485
416.120380,0.050420
416.462720,0.039683
416.805020,0.052632
417.147280,0.052239
417.489500,0.078571
417.831680,0.020548
418.173820,0.021277
418.515920,0.062937
418.857980,0.056962
419.200000,0.083333
419.541980,0.065089
419.883920,0.039326
420.225820,0.040462
420.567680,0.050279
420.909500,0.065574
421.251280,0.052083
421.593020,0.061224
421.934720,0.045455
422.276380,0.020513
422.618000,0.063725
422.959580,0.058824
423.301120,0.050228
423.642620,0.039130
423.984080,0.032558
424.325500,0.031390
424.666880,0.034483
425.008220,0.021008
425.349520,0.055085
425.690780,0.050000
426.032000,0.047059
426.373180,0.033195
426.714320,0.050781
427.055420,0.038610
427.396480,0.074906
427.737500,0.051383
428.078480,0.047431
428.419420,0.032129
428.760320,0.045977
429.101180,0.059055
429.442000,0.065134
429.782780,0.042308
430.123520,0.011765
430.464220,0.059041
430.804880,0.065134
431.145500,0.029091
431.486080,0.059925
431.826620,0.034884
432.167120,0.040441
432.507580,0.061594
432.848000,0.053957
433.188380,0.050542
433.528720,0.037736
433.869020,0.050000
434.209280,0.049123
434.549500,0.038328
434.889680,0.053872
435.229820,0.054608
435.569920,0.038062
435.909980,0.055016
436.250000,0.047458
436.589980,0.030960
436.929920,0.050794
437.269820,0.043887
437.609680,0.050296
437.949500,0.042169
438.289280,0.048159
438.629020,0.066860
438.968720,0.049419
439.308380,0.048780
439.648000,0.052055
439.987580,0.039683
440.327120,0.042667
440.666620,0.044156
441.006080,0.053708
441.345500,0.056511
441.684880,0.052632
442.024220,0.052109
442.363520,0.045238
442.702780,0.038636
443.042000,0.035242
443.381180,0.051724
443.720320,0.060475
444.059420,0.039916
444.398480,0.037657
444.737500,0.047131
445.076480,0.053571
445.415420,0.051896
445.754320,0.035343
446.093180,0.062385
446.432000,0.045113
446.770780,0.043643
447.109520,0.055147
447.448220,0.055456
447.786880,0.050089
448.125500,0.055172
448.464080,0.048214
448.802620,0.056738
449.141120,0.051903
449.479580,0.054196
449.818000,0.049914
450.156380,0.055184
450.494720,0.052893
450.833020,0.064685
451.171280,0.047945
451.509500,0.048780
451.847680,0.045531
452.185820,0.048193
452.523920,0.067010
452.861980,0.053963
453.200000,0.061462
453.537980,0.040336
453.875920,0.055462
454.213820,0.047945
454.551680,0.051325
454.889500,0.045531
455.227280,0.040925
455.565020,0.056951
455.902720,0.056572
456.240380,0.036606
456.578000,0.059233
456.915580,0.051813
457.253120,0.049342
457.590620,0.052545
457.928080,0.067340
458.265500,0.050676
458.602880,0.058442
458.940220,0.038917
459.277520,0.054400
459.614780,0.054010
459.952000,0.045031
460.289180,0.049051
460.626320,0.047244
460.963420,0.053312
461.300480,0.053517
461.637500,0.050847
461.974480,0.055046
462.311420,0.053651
462.648320,0.051245
462.985180,0.044476
463.322000,0.055060
463.658780,0.045580
463.995520,0.045392
464.332220,0.052632
464.668880,0.053763
465.005500,0.045576
465.342080,0.048656
465.678620,0.046740
466.015120,0.043984
466.351580,0.056890
466.688000,0.057247
467.024380,0.053463
467.360720,0.046591
467.697020,0.051253
468.033280,0.055556
468.369500,0.050773
468.705680,0.057497
469.041820,0.051042
469.377920,0.052061
469.713980,0.052523
470.050000,0.056039
470.385980,0.053816
470.721920,0.047013
471.057820,0.051657
471.393680,0.051450
471.729500,0.050973
472.065280,0.055456
472.401020,0.050532
472.736720,0.054101
473.072380,0.050269
473.408000,0.046997
473.743580,0.043253
474.079120,0.054264
474.414620,0.046650
474.750080,0.047193
475.085500,0.052632
475.420880,0.053289
475.756220,0.050695
476.091520,0.050298
476.426780,0.048544
476.762000,0.050684
477.097180,0.055200
477.432320,0.055735
477.767420,0.053105
478.102480,0.050394
478.437500,0.048440
478.772480,0.045705
479.107420,0.049634
479.442320,0.045564
479.777180,0.051710
480.112000,0.056240
480.446780,0.050663
480.781520,0.049919
481.116220,0.046888
481.450880,0.051522
481.785500,0.053797
482.120080,0.053292
482.454620,0.050505
482.789120,0.050159
483.123580,0.051402
483.458000,0.053006
483.792380,0.055911
484.126720,0.050965
484.461020,0.049180
484.795280,0.053200
485.129500,0.053001
485.463680,0.053488
485.797820,0.052100
486.131920,0.054323
486.465980,0.056371
486.800000,0.061832
487.133980,0.049849
487.467920,0.049732
487.801820,0.054920
488.135680,0.048522
488.469500,0.050681
488.803280,0.049777
489.137020,0.051282
489.470720,0.052671
489.804380,0.054195
490.138000,0.054154
490.471580,0.053795
490.805120,0.053610
491.138620,0.049041
491.472080,0.053710
491.805500,0.046722
492.138880,0.054899
492.472220,0.054671
492.805520,0.049581
493.138780,0.053067
493.472000,0.056856
493.805180,0.058663
494.138320,0.053369
494.471420,0.049479
494.804480,0.053040
495.137500,0.051348
495.470480,0.055449
495.803420,0.056675
496.136320,0.056391
496.469180,0.050952
496.802000,0.057457
497.134780,0.051546
497.467520,0.055046
497.800220,0.055425
498.132880,0.049383
498.465500,0.055620
498.798080,0.053082
499.130620,0.057833
499.463120,0.058956
499.795580,0.053905
500.128000,0.055041
500.460380,0.053821
500.792720,0.052492
501.125020,0.046768
501.457280,0.050653
501.789500,0.051653
502.121680,0.061690
502.453820,0.052524
502.785920,0.052026
503.117980,0.054956
503.450000,0.056253
503.781980,0.054310
504.113920,0.053106
504.445820,0.050073
504.777680,0.050824
505.109500,0.053846
505.441280,0.049713
505.773020,0.049319
506.104720,0.052756
506.436380,0.053478
506.768000,0.052853
507.099580,0.054005
507.431120,0.058080
507.762620,0.050752
508.094080,0.055606
508.425500,0.056022
508.756880,0.051212
509.088220,0.053818
509.419520,0.053073
509.750780,0.055295
510.082000,0.058302
510.413180,0.056195
510.744320,0.051542
511.075420,0.054079
511.406480,0.053126
511.737500,0.053241
512.068480,0.055921
512.399420,0.052113
512.730320,0.053118
513.061180,0.053758
513.392000,0.054425
513.722780,0.053794
514.053520,0.052707
514.384220,0.051855
514.714880,0.054572
515.045500,0.055556
515.376080,0.053753
515.706620,0.050170
516.037120,0.051471
516.367580,0.052242
516.698000,0.051961
517.028380,0.055114
517.358720,0.052346
517.689020,0.054896
518.019280,0.053186
518.349500,0.054232
518.679680,0.051994
519.009820,0.053138
519.339920,0.055110
519.669980,0.051733
520.000000,0.056546
520.329980,0.053914
520.659920,0.052147
520.989820,0.054696
521.319680,0.056070
521.649500,0.054499
521.979280,0.057933
522.309020,0.050311
522.638720,0.049667
522.968380,0.055326
523.298000,0.053758
523.627580,0.054837
523.957120,0.057662
524.286620,0.053674
524.616080,0.057911
524.945500,0.055814
525.274880,0.059005
525.604220,0.055901
525.933520,0.055031
526.262780,0.053218
526.592000,0.056317
526.921180,0.058913
527.250320,0.051243
527.579420,0.055584
527.908480,0.057115
528.237500,0.056107
528.566480,0.054890
528.895420,0.056185
529.224320,0.054482
529.553180,0.056867
529.882000,0.058881
530.210780,0.053089
530.539520,0.055129
530.868220,0.056008
531.196880,0.053989
531.525500,0.058596
531.854080,0.057223
532.182620,0.058384
532.511120,0.052900
532.839580,0.054446
533.168000,0.057885
533.496380,0.058447
533.824720,0.055630
534.153020,0.057512
534.481280,0.060352
534.809500,0.056288
535.137680,0.055556
535.465820,0.054983
535.793920,0.057107
536.121980,0.056651
536.450000,0.058351
536.777980,0.057394
537.105920,0.055210
537.433820,0.058101
537.761680,0.056735
538.089500,0.058681
538.417280,0.058496
538.745020,0.052298
539.072720,0.055838
539.400380,0.058275
539.728000,0.056979
540.055580,0.056180
540.383120,0.057334
540.710620,0.055432
541.038080,0.057912
541.365500,0.055515
541.692880,0.055596
542.020220,0.056855
542.347520,0.057789
542.674780,0.055752
543.002000,0.057733
543.329180,0.060330
543.656320,0.058368
543.983420,0.057094
544.310480,0.057424
544.637500,0.059024
544.964480,0.056528
545.291420,0.056165
545.618320,0.057105
545.945180,0.054713
546.272000,0.054063
546.598780,0.058669
546.925520,0.055061
547.252220,0.054143
547.578880,0.056370
547.905500,0.058170
548.232080,0.058804
548.558620,0.056622
548.885120,0.058881
549.211580,0.054323
549.538000,0.056420
549.864380,0.054019
550.190720,0.056183
550.517020,0.057040
550.843280,0.059609
551.169500,0.058524
551.495680,0.055519
551.821820,0.058459
552.147920,0.057254
552.473980,0.057952
552.800000,0.057881
553.125980,0.058612
553.451920,0.059058
553.777820,0.055630
554.103680,0.054938
554.429500,0.054235
554.755280,0.058411
555.081020,0.054479
555.406720,0.055875
555.732380,0.056252
556.058000,0.059063
556.383580,0.056488
556.709120,0.057547
557.034620,0.055115
557.360080,0.056304
557.685500,0.058091
558.010880,0.056499
558.336220,0.056942
558.661520,0.057781
558.986780,0.057406
559.312000,0.056980
559.637180,0.054937
559.962320,0.058028
560.287420,0.058886
560.612480,0.055257
560.937500,0.057636
561.262480,0.056452
561.587420,0.055858
561.912320,0.056006
562.237180,0.055144
562.562000,0.057613
562.886780,0.058714
563.211520,0.057004
563.536220,0.059369
563.860880,0.057337
564.185500,0.057411
564.510080,0.059819
564.834620,0.056941
565.159120,0.053008
565.483580,0.057393
565.808000,0.056754
566.132380,0.058933
566.456720,0.058201
566.781020,0.057014
567.105280,0.055955
567.429500,0.057663
567.753680,0.057921
568.077820,0.054503
568.401920,0.059969
568.725980,0.061101
569.050000,0.057034
569.373980,0.057480
569.697920,0.054987
570.021820,0.056554
570.345680,0.059319
570.669500,0.059138
570.993280,0.056478
571.317020,0.058824
571.640720,0.058911
571.964380,0.057906
572.288000,0.060831
572.611580,0.058779
572.935120,0.057239
573.258620,0.060209
573.582080,0.058495
573.905500,0.056962
574.228880,0.060876
574.552220,0.059729
574.875520,0.058079
575.198780,0.060354
575.522000,0.060484
575.845180,0.055158
576.168320,0.057492
576.491420,0.058866
576.814480,0.058590
577.137500,0.057720
577.460480,0.056905
577.783420,0.060021
578.106320,0.060897
578.429180,0.058324
578.752000,0.058354
579.074780,0.059002
579.397520,0.061330
579.720220,0.056950
580.042880,0.057813
580.365500,0.057909
580.688080,0.058684
581.010620,0.059737
581.333120,0.060454
581.655580,0.059607
581.978000,0.057532
582.300380,0.062317
582.622720,0.058998
582.945020,0.063719
583.267280,0.060241
583.589500,0.057785
583.911680,0.062242
584.233820,0.058861
584.555920,0.060826
584.877980,0.059359
585.200000,0.056476
585.521980,0.059932
585.843920,0.057657
586.165820,0.058196
586.487680,0.058682
586.809500,0.060606
587.131280,0.060337
587.453020,0.058631
587.774720,0.060024
588.096380,0.060385
588.418000,0.059116
588.739580,0.062949
589.061120,0.060380
589.382620,0.059026
589.704080,0.058626
590.025500,0.060502
590.346880,0.058741
590.668220,0.059087
590.989520,0.056295
591.310780,0.056614
591.632000,0.060929
591.953180,0.060061
592.274320,0.057876
592.595420,0.058459
592.916480,0.058136
593.237500,0.057127
593.558480,0.059188
593.879420,0.060966
594.200320,0.058398
594.521180,0.058167
594.842000,0.061257
595.162780,0.060897
595.483520,0.060090
595.804220,0.059345
596.124880,0.059153
596.445500,0.057899
596.766080,0.061307
597.086620,0.059713
597.407120,0.058189
597.727580,0.060461
598.048000,0.058450
598.368380,0.060757
598.688720,0.061337
599.009020,0.061040
599.329280,0.059074
599.649500,0.061278
599.969680,0.060096
600.289820,0.057692
600.609920,0.057441
600.929980,0.060930
601.250000,0.060270
601.569980,0.059681
601.889920,0.059075
602.209820,0.057630
602.529680,0.063444
602.849500,0.058101
603.169280,0.058969
603.489020,0.057293
603.808720,0.059792
604.128380,0.059879
604.448000,0.059392
604.767580,0.059218
605.087120,0.059003
605.406620,0.059334
605.726080,0.063872
606.045500,0.057955
606.364880,0.060958
606.684220,0.058538
607.003520,0.060780
607.322780,0.059125
607.642000,0.058013
607.961180,0.056953
608.280320,0.059165
608.599420,0.056779
608.918480,0.057771
609.237500,0.060153
609.556480,0.061557
609.875420,0.057885
610.194320,0.057573
610.513180,0.058893
610.832000,0.058368
611.150780,0.058276
611.469520,0.061237
611.788220,0.061064
612.106880,0.060314
612.425500,0.058770
612.744080,0.059711
613.062620,0.059939
613.381120,0.061548
613.699580,0.060699
614.018000,0.057432
614.336380,0.061382
614.654720,0.059225
614.973020,0.057698
615.291280,0.060738
615.609500,0.061807
615.927680,0.060260
616.245820,0.059678
616.563920,0.058440
616.881980,0.061116
617.200000,0.058476
617.517980,0.057872
617.835920,0.058403
618.153820,0.057507
618.471680,0.062326
618.789500,0.060730
619.107280,0.058842
619.425020,0.060577
619.742720,0.057439
620.060380,0.058602
620.378000,0.059786
620.695580,0.061303
621.013120,0.058268
621.330620,0.061186
621.648080,0.060568
621.965500,0.061794
622.282880,0.059584
622.600220,0.061276
622.917520,0.059546
623.234780,0.065252
623.552000,0.059198
623.869180,0.057989
624.186320,0.060172
624.503420,0.060188
624.820480,0.060635
625.137500,0.061572
625.454480,0.060019
625.771420,0.060214
626.088320,0.062421
626.405180,0.061605
626.722000,0.059912
627.038780,0.060464
627.355520,0.059062
627.672220,0.060964
627.988880,0.059409
628.305500,0.061701
628.622080,0.061029
628.938620,0.060856
629.255120,0.062850
629.571580,0.059454
629.888000,0.058914
630.204380,0.059834
630.520720,0.061243
630.837020,0.059204
631.153280,0.059053
631.469500,0.060340
631.785680,0.059976
632.101820,0.061821
632.417920,0.061401
632.733980,0.057623
633.050000,0.061552
633.365980,0.059870
633.681920,0.059368
633.997820,0.060371
634.313680,0.061044
634.629500,0.059569
634.945280,0.059824
635.261020,0.060464
635.576720,0.061069
635.892380,0.060122
636.208000,0.059849
636.523580,0.059339
636.839120,0.061957
637.154620,0.060000
637.470080,0.060258
637.785500,0.062720
638.100880,0.059948
638.416220,0.060972
638.731520,0.061891
639.046780,0.062045
639.362000,0.061067
639.677180,0.059966
639.992320,0.060897
640.307420,0.062658
640.622480,0.064128
640.937500,0.059639
641.252480,0.061156
641.567420,0.059392
641.882320,0.059577
642.197180,0.061482
642.512000,0.060174
642.826780,0.060472
643.141520,0.060017
643.456220,0.059214
643.770880,0.058320
644.085500,0.061487
644.400080,0.060674
644.714620,0.061037
645.029120,0.061056
645.343580,0.060614
645.658000,0.061893
645.972380,0.062209
646.286720,0.060234
646.601020,0.062275
646.915280,0.060598
647.229500,0.060440
647.543680,0.061861
647.857820,0.061382
648.171920,0.060499
648.485980,0.059468
648.800000,0.060072
649.113980,0.058758
649.427920,0.061026
649.741820,0.061281
650.055680,0.064180
650.369500,0.060818
650.683280,0.060766
650.997020,0.061881
651.310720,0.061365
651.624380,0.061813
651.938000,0.060942
652.251580,0.063457
652.565120,0.058971
652.878620,0.059122
653.192080,0.060393
653.505500,0.058906
653.818880,0.061416
654.132220,0.060382
654.445520,0.060125
654.758780,0.061190
655.072000,0.061318
655.385180,0.058203
655.698320,0.061732
656.011420,0.061049
656.324480,0.060624
656.637500,0.061124
656.950480,0.058426
657.263420,0.061779
657.576320,0.058998
657.889180,0.062813
658.202000,0.056461
658.514780,0.061030
658.827520,0.062425
659.140220,0.060533
659.452880,0.061311
659.765500,0.062312
660.078080,0.057779
660.390620,0.060800
660.703120,0.061412
661.015580,0.061350
661.328000,0.060768
661.640380,0.060578
661.952720,0.060417
662.265020,0.061122
662.577280,0.060751
662.889500,0.061810
663.201680,0.063497
663.513820,0.059183
663.825920,0.056676
664.137980,0.062379
664.450000,0.060422
664.761980,0.060556
665.073920,0.061019
665.385820,0.062173
665.697680,0.057851
666.009500,0.058863
666.321280,0.064281
666.633020,0.062500
666.944720,0.058982
667.256380,0.060229
667.568000,0.058084
667.879580,0.059864
668.191120,0.061470
668.502620,0.062650
668.814080,0.060351
669.125500,0.060554
669.436880,0.060512
669.748220,0.061613
670.059520,0.061275
670.370780,0.060543
670.682000,0.058053
670.993180,0.062368
671.304320,0.062588
671.615420,0.061080
671.926480,0.063875
672.237500,0.058235
672.548480,0.061746
672.859420,0.061830
673.170320,0.058760
673.481180,0.058653
673.792000,0.056617
674.102780,0.061400
674.413520,0.059059
674.724220,0.059165
675.034880,0.061239
675.345500,0.060540
675.656080,0.060980
675.966620,0.061841
676.277120,0.060417
676.587580,0.060751
676.898000,0.058977
677.208380,0.060628
677.518720,0.060904
677.829020,0.062823
678.139280,0.065604
678.449500,0.062013
678.759680,0.058449
679.069820,0.060595
679.379920,0.063372
679.689980,0.058299
680.000000,0.059439
680.309980,0.060134
680.619920,0.057933
680.929820,0.061963
681.239680,0.061669
681.549500,0.062593
681.859280,0.058626
682.169020,0.058933
682.478720,0.063949
682.788380,0.060539
683.098000,0.061705
683.407580,0.058912
683.717120,0.056682
684.026620,0.059864
684.336080,0.060629
684.645500,0.060232
684.954880,0.061201
685.264220,0.062288
685.573520,0.063190
685.882780,0.062908
686.192000,0.061701
686.501180,0.057889
686.810320,0.059954
687.119420,0.061954
687.428480,0.064565
687.737500,0.062164
688.046480,0.060583
688.355420,0.059223
688.664320,0.061974
688.973180,0.058959
689.282000,0.059028
689.590780,0.060199
689.899520,0.057349
690.208220,0.064220
690.516880,0.061474
690.825500,0.063774
691.134080,0.057327
691.442620,0.061738
691.751120,0.061054
692.059580,0.062667
692.368000,0.058690
692.676380,0.060687
692.984720,0.058397
693.293020,0.062310
693.601280,0.059901
693.909500,0.060159
694.217680,0.059406
694.525820,0.063976
694.833920,0.061427
695.141980,0.062862
695.450000,0.062595
695.757980,0.064553
696.065920,0.061359
696.373820,0.064665
696.681680,0.060222
696.989500,0.064068
697.297280,0.063399
697.605020,0.062698
697.912720,0.059570
698.220380,0.061000
698.528000,0.063687
698.835580,0.063611
699.143120,0.063913
699.450620,0.063644
699.758080,0.061569
700.065500,0.063049
700.372880,0.063200
700.680220,0.062625
700.987520,0.059921
701.294780,0.066099
701.602000,0.059826
701.909180,0.061208
702.216320,0.059836
702.523420,0.061168
702.830480,0.060990
703.137500,0.058846
703.444480,0.062722
703.751420,0.059566
704.058320,0.060546
704.365180,0.061514
704.672000,0.062178
704.978780,0.059696
705.285520,0.056729
705.592220,0.059608
705.898880,0.060284
706.205500,0.062989
706.512080,0.063586
706.818620,0.061146
707.125120,0.061923
707.431580,0.060961
707.738000,0.062500
708.044380,0.060208
708.350720,0.058082
708.657020,0.060571
708.963280,0.061335
709.269500,0.063014
709.575680,0.062868
709.881820,0.060142
710.187920,0.060700
710.493980,0.057797
710.800000,0.062548
711.105980,0.059864
711.411920,0.059519
711.717820,0.058869
712.023680,0.059852
712.329500,0.065063
712.635280,0.063178
712.941020,0.058369
713.246720,0.059289
713.552380,0.060047
713.858000,0.061884
714.163580,0.060379
714.469120,0.058617
714.774620,0.061587
715.080080,0.059285
715.385500,0.062350
715.690880,0.060750
715.996220,0.059033
716.301520,0.062451
716.606780,0.061321
716.912000,0.058966
717.217180,0.059058
717.522320,0.060835
717.827420,0.062653
718.132480,0.062625
718.437500,0.060334
718.742480,0.059274
719.047420,0.060275
719.352320,0.063097
719.657180,0.064186
719.962000,0.062862
720.266780,0.061072
720.571520,0.059238
720.876220,0.061784
721.180880,0.059783
721.485500,0.062265
721.790080,0.057325
722.094620,0.063036
722.399120,0.061611
722.703580,0.058294
723.008000,0.061233
723.312380,0.061128
723.616720,0.059074
723.921020,0.060199
724.225280,0.061082
724.529500,0.062172
724.833680,0.066281
725.137820,0.061233
725.441920,0.060633
725.745980,0.060850
726.050000,0.064051
726.353980,0.059937
726.657920,0.062078
726.961820,0.059361
727.265680,0.060564
727.569500,0.063528
727.873280,0.058661
728.177020,0.065408
728.480720,0.061574
728.784380,0.065759
729.088000,0.060292
729.391580,0.063951
729.695120,0.063340
729.998620,0.061663
730.302080,0.061028
730.605500,0.059195
730.908880,0.062714
731.212220,0.061704
731.515520,0.058996
731.818780,0.060680
732.122000,0.062008
732.425180,0.061607
732.728320,0.061973
733.031420,0.058647
733.334480,0.058673
733.637500,0.056956
733.940480,0.060901
734.243420,0.063710
734.546320,0.064315
734.849180,0.058884
735.152000,0.057054
735.454780,0.062500
735.757520,0.060063
736.060220,0.062138
736.362880,0.061975
736.665500,0.061097
736.968080,0.063944
737.270620,0.059880
737.573120,0.061135
737.875580,0.058824
738.178000,0.057703
738.480380,0.062162
738.782720,0.061069
739.085020,0.053965
739.387280,0.063193
739.689500,0.065685
739.991680,0.058956
740.293820,0.064124
740.595920,0.061770
740.897980,0.062112
741.200000,0.066741
741.501980,0.059599
741.803920,0.055180
742.105820,0.060350
742.407680,0.061153
742.709500,0.057955
743.011280,0.059203
743.313020,0.066087
743.614720,0.060360
743.916380,0.056977
744.218000,0.064439
744.519580,0.060386
744.821120,0.061677
745.122620,0.065908
745.424080,0.058293
745.725500,0.059747
746.026880,0.060345
746.328220,0.056720
746.629520,0.058399
746.930780,0.062500
747.232000,0.059473
747.533180,0.063453
747.834320,0.059038
748.135420,0.064015
748.436480,0.064255
748.737500,0.059296
749.038480,0.063531
749.339420,0.065339
749.640320,0.058454
749.941180,0.059338
750.242000,0.062186
750.542780,0.066998
750.843520,0.064061
751.144220,0.060256
751.444880,0.062143
751.745500,0.055195
752.046080,0.062861
752.346620,0.061856
752.647120,0.061398
752.947580,0.062743
753.248000,0.062540
753.548380,0.063761
753.848720,0.064392
754.149020,0.058672
754.449280,0.062377
754.749500,0.058394
755.049680,0.062000
755.349820,0.060040
755.649920,0.062128
755.949980,0.061712
756.250000,0.059829
756.549980,0.059406
756.849920,0.059823
757.149820,0.058550
757.449680,0.064686
757.749500,0.064076
758.049280,0.061433
758.349020,0.057719
758.648720,0.062112
758.948380,0.059107
759.248000,0.061995
759.547580,0.055145
759.847120,0.055824
760.146620,0.062923
760.446080,0.068548
760.745500,0.060140
761.044880,0.057528
761.344220,0.062010
761.643520,0.058616
761.942780,0.065780
762.242000,0.063649
762.541180,0.057042
762.840320,0.064607
763.139420,0.064698
763.438480,0.059467
763.737500,0.064094
764.036480,0.062893
764.335420,0.061397
764.634320,0.058905
764.933180,0.064384
765.232000,0.063151
765.530780,0.065965
765.829520,0.067133
766.128220,0.059847
766.426880,0.061123
766.725500,0.065113
767.024080,0.056927
767.322620,0.058091
767.621120,0.060976
767.919580,0.061433
768.218000,0.056088
768.516380,0.060176
768.814720,0.058985
769.113020,0.057891
769.411280,0.060773
769.709500,0.058863
770.007680,0.060668
770.305820,0.065585
770.603920,0.059299
770.901980,0.062842
771.200000,0.062500
771.497980,0.063003
771.795920,0.058863
772.093820,0.064171
772.391680,0.059987
772.689500,0.061486
772.987280,0.061279
773.285020,0.060150
773.582720,0.059459
773.880380,0.057653
774.178000,0.062031
774.475580,0.064970
774.773120,0.055556
775.070620,0.058824
775.368080,0.061456
775.665500,0.065816
775.962880,0.065377
776.260220,0.059219
776.557520,0.060040
776.854780,0.060852
777.152000,0.058355
777.449180,0.060688
777.746320,0.059812
778.043420,0.064120
778.340480,0.064953
778.637500,0.060176
778.934480,0.063887
779.231420,0.061737
779.528320,0.062124
779.825180,0.058630
780.122000,0.059097
780.418780,0.060876
780.715520,0.059691
781.012220,0.064384
781.308880,0.064909
781.605500,0.059589
781.902080,0.064339
782.198620,0.060150
782.495120,0.063786
782.791580,0.062586
783.088000,0.061422
783.384380,0.063961
783.680720,0.060876
783.977020,0.062629
784.273280,0.065035
784.569500,0.057303
784.865680,0.062587
785.161820,0.060417
785.457920,0.056133
785.753980,0.060712
786.050000,0.058011
786.345980,0.069444
786.641920,0.063845
786.937820,0.065527
787.233680,0.059847
787.529500,0.062413
787.825280,0.060907
788.121020,0.058074
788.416720,0.061397
788.712380,0.059944
789.008000,0.060907
789.303580,0.061484
789.599120,0.058909
789.894620,0.062094
790.190080,0.057288
790.485500,0.061195
790.780880,0.068100
791.076220,0.060606
791.371520,0.062455
791.666780,0.069091
791.962000,0.061719
792.257180,0.062225
792.552320,0.064540
792.847420,0.062591
793.142480,0.068132
793.437500,0.062229
793.732480,0.059985
794.027420,0.065282
794.322320,0.058166
794.617180,0.063893
794.912000,0.062407
795.206780,0.062640
795.501520,0.061597
795.796220,0.059259
796.090880,0.060286
796.385500,0.058471
796.680080,0.061331
796.974620,0.068114
797.269120,0.061317
797.563580,0.064122
797.858000,0.063022
798.152380,0.061098
798.446720,0.064615
798.741020,0.060863
799.035280,0.059783
799.329500,0.064665
799.623680,0.064341
