399.985280,0.040541
400.329500,0.027027
400.673680,0.025316
401.017820,0.029412
401.361920,-0.090909
401.705980,-0.024390
402.050000,0.012987
402.393980,0.035294
402.737920,0.022472
403.081820,0.092784
403.425680,0.058140
403.769500,0.000000
404.113280,0.000000
404.457020,0.101124
404.800720,0.032609
405.144380,0.080808
405.488000,0.000000
405.831580,0.000000
406.175120,0.031915
406.518620,0.080000
406.862080,0.051546
407.205500,0.041667
407.548880,0.040816
407.892220,0.049020
408.235520,0.021277
408.578780,0.057143
408.922000,0.028846
409.265180,0.070707
409.608320,-0.010101
409.951420,0.082474
410.294480,0.098039
410.637500,0.021739
410.980480,0.127451
411.323420,0.040816
411.666320,0.036697
412.009180,0.090909
412.352000,0.009901
412.694780,0.045872
413.037520,0.018349
413.380220,0.072072
413.722880,0.044643
414.065500,0.081081
414.408080,0.053097
414.750620,0.061947
415.093120,0.041322
415.435580,0.058824
415.778000,0.083333
416.120380,0.067227
416.462720,0.039683
416.805020,0.075188
417.147280,0.052239
417.489500,0.050000
417.831680,0.082192
418.173820,0.028369
418.515920,0.055944
418.857980,0.044304
419.200000,0.012821
419.541980,0.041420
419.883920,0.056180
420.225820,0.052023
420.567680,0.044693
420.909500,0.065574
421.251280,0.057292
421.593020,0.061224
421.934720,0.030303
422.276380,0.035897
422.618000,0.063725
422.959580,0.049020
423.301120,0.068493
423.642620,0.065217
423.984080,0.051163
424.325500,0.062780
424.666880,0.034483
425.008220,0.029412
425.349520,0.046610
425.690780,0.053846
426.032000,0.027451
426.373180,0.058091
426.714320,0.054687
427.055420,0.050193
427.396480,0.067416
427.737500,0.051383
428.078480,0.063241
428.419420,0.044177
428.760320,0.026820
429.101180,0.055118
429.442000,0.049808
429.782780,0.046154
430.123520,0.039216
430.464220,0.047970
430.804880,0.065134
431.145500,0.040000
431.486080,0.029963
431.826620,0.031008
432.167120,0.058824
432.507580,0.065217
432.848000,0.057554
433.188380,0.054152
433.528720,0.052830
433.869020,0.057143
434.209280,0.028070
434.549500,0.059233
434.889680,0.043771
435.229820,0.058020
435.569920,0.006920
435.909980,0.042071
436.250000,0.057627
436.589980,0.040248
436.929920,0.060317
437.269820,0.050157
437.609680,0.062130
437.949500,0.051205
438.289280,0.050992
438.629020,0.043605
438.968720,0.040698
439.308380,0.051491
439.648000,0.035616
439.987580,0.050265
440.327120,0.061333
440.666620,0.046753
441.006080,0.053708
441.345500,0.051597
441.684880,0.052632
442.024220,0.037221
442.363520,0.045238
442.702780,0.040909
443.042000,0.046256
443.381180,0.056034
443.720320,0.062635
444.059420,0.046218
444.398480,0.039749
444.737500,0.055328
445.076480,0.055556
445.415420,0.043912
445.754320,0.045738
446.093180,0.044037
446.432000,0.043233
446.770780,0.041746
447.109520,0.047794
447.448220,0.059034
447.786880,0.057245
448.125500,0.062069
448.464080,0.057143
448.802620,0.053191
449.141120,0.053633
449.479580,0.054196
449.818000,0.055077
450.156380,0.046823
450.494720,0.059504
450.833020,0.064685
451.171280,0.039384
451.509500,0.057491
451.847680,0.052277
452.185820,0.056799
452.523920,0.051546
452.861980,0.053963
453.200000,0.053156
453.537980,0.053782
453.875920,0.047059
454.213820,0.039384
454.551680,0.046358
454.889500,0.055649
455.227280,0.042705
455.565020,0.055276
455.902720,0.051581
456.240380,0.041597
456.578000,0.054007
456.915580,0.044905
457.253120,0.050987
457.590620,0.050903
457.928080,0.060606
458.265500,0.055743
458.602880,0.064935
458.940220,0.035533
459.277520,0.067200
459.614780,0.055646
459.952000,0.049689
460.289180,0.052215
460.626320,0.042520
460.963420,0.048465
461.300480,0.048930
461.637500,0.035439
461.974480,0.050459
462.311420,0.041729
462.648320,0.051245
462.985180,0.045911
463.322000,0.050595
463.658780,0.056630
463.995520,0.042641
464.332220,0.054017
464.668880,0.053763
465.005500,0.052279
465.342080,0.046095
465.678620,0.049200
466.015120,0.051746
466.351580,0.056890
466.688000,0.051157
467.024380,0.053463
467.360720,0.048864
467.697020,0.053531
468.033280,0.053333
468.369500,0.060706
468.705680,0.051860
469.041820,0.055208
469.377920,0.043384
469.713980,0.052523
470.050000,0.057005
470.385980,0.054795
470.721920,0.052889
471.057820,0.055556
471.393680,0.047708
471.729500,0.051900
472.065280,0.052773
472.401020,0.049645
472.736720,0.054101
473.072380,0.051167
473.408000,0.043516
473.743580,0.049308
474.079120,0.051680
474.414620,0.042409
474.750080,0.050448
475.085500,0.051809
475.420880,0.049958
475.756220,0.053148
476.091520,0.049446
476.426780,0.046926
476.762000,0.045052
477.097180,0.052000
477.432320,0.050081
477.767420,0.054739
478.102480,0.049606
478.437500,0.047619
478.772480,0.050433
479.107420,0.048820
479.442320,0.047162
479.777180,0.050915
480.112000,0.055470
480.446780,0.045986
480.781520,0.051530
481.116220,0.048504
481.450880,0.052303
481.785500,0.053006
482.120080,0.047022
482.454620,0.052059
482.789120,0.054936
483.123580,0.057632
483.458000,0.049842
483.792380,0.046326
484.126720,0.051737
484.461020,0.051522
484.795280,0.051658
485.129500,0.057677
485.463680,0.048837
485.797820,0.054432
486.131920,0.049732
486.465980,0.054054
486.800000,0.054962
487.133980,0.051360
487.467920,0.052028
487.801820,0.059497
488.135680,0.047763
488.469500,0.048411
488.803280,0.049777
489.137020,0.049084
489.470720,0.051187
489.804380,0.054937
490.138000,0.048961
490.471580,0.054532
490.805120,0.054325
491.138620,0.050462
491.472080,0.052297
491.805500,0.054393
492.138880,0.057679
492.472220,0.050519
492.805520,0.055168
493.138780,0.055134
493.472000,0.054849
493.805180,0.051842
494.138320,0.057372
494.471420,0.054036
494.804480,0.053040
495.137500,0.054557
495.470480,0.054812
495.803420,0.051637
496.136320,0.054511
496.469180,0.051565
496.802000,0.054401
497.134780,0.054579
497.467520,0.056881
497.800220,0.053656
498.132880,0.055262
498.465500,0.052723
498.798080,0.051370
499.130620,0.055025
499.463120,0.050533
499.795580,0.056106
500.128000,0.053951
500.460380,0.054898
500.792720,0.048250
501.125020,0.050447
501.457280,0.052742
501.789500,0.055269
502.121680,0.058061
502.453820,0.054564
502.785920,0.054527
503.117980,0.055937
503.450000,0.055751
503.781980,0.054808
504.113920,0.049787
504.445820,0.052018
504.777680,0.053647
505.109500,0.053365
505.441280,0.055927
505.773020,0.054486
506.104720,0.050871
506.436380,0.053478
506.768000,0.054256
507.099580,0.049886
507.431120,0.052459
507.762620,0.050752
508.094080,0.052871
508.425500,0.059290
508.756880,0.055327
509.088220,0.055198
509.419520,0.048883
509.750780,0.053421
510.082000,0.055037
510.413180,0.054813
510.744320,0.051081
511.075420,0.051329
511.406480,0.055947
511.737500,0.051389
512.068480,0.053102
512.399420,0.053052
512.730320,0.048037
513.061180,0.053758
513.392000,0.054898
513.722780,0.054275
514.053520,0.050791
514.384220,0.055186
514.714880,0.055529
515.045500,0.053640
515.376080,0.055206
515.706620,0.055528
516.037120,0.057353
516.367580,0.051257
516.698000,0.051471
517.028380,0.053128
517.358720,0.049877
517.689020,0.058853
518.019280,0.056197
518.349500,0.055246
518.679680,0.054013
519.009820,0.052126
519.339920,0.060120
519.669980,0.053240
520.000000,0.051961
520.329980,0.055469
520.659920,0.055726
520.989820,0.056244
521.319680,0.056070
521.649500,0.052956
521.979280,0.055324
522.309020,0.052905
522.638720,0.051715
522.968380,0.056360
523.298000,0.053236
523.627580,0.056906
523.957120,0.059740
524.286620,0.057843
524.616080,0.054292
524.945500,0.062532
525.274880,0.056952
525.604220,0.055383
525.933520,0.052935
526.262780,0.057780
526.592000,0.058346
526.921180,0.056374
527.250320,0.053272
527.579420,0.054573
527.908480,0.059084
528.237500,0.061072
528.566480,0.059880
528.895420,0.055692
529.224320,0.054978
529.553180,0.053494
529.882000,0.059854
530.210780,0.055502
530.539520,0.058006
530.868220,0.057444
531.196880,0.057334
531.525500,0.057627
531.854080,0.053940
532.182620,0.057450
532.511120,0.054756
532.839580,0.058076
533.168000,0.058341
533.496380,0.059361
533.824720,0.056528
534.153020,0.056621
534.481280,0.059031
534.809500,0.055409
535.137680,0.059896
535.465820,0.054983
535.793920,0.057107
536.121980,0.055812
536.450000,0.055391
536.777980,0.056137
537.105920,0.057285
537.433820,0.055237
537.761680,0.058367
538.089500,0.055443
538.417280,0.057700
538.745020,0.057448
539.072720,0.053104
539.400380,0.056333
539.728000,0.056597
540.055580,0.054682
540.383120,0.057707
540.710620,0.060268
541.038080,0.057174
541.365500,0.054412
541.692880,0.058866
542.020220,0.055416
542.347520,0.061019
542.674780,0.054693
543.002000,0.053884
543.329180,0.058576
543.656320,0.059072
543.983420,0.056752
544.310480,0.056745
544.637500,0.056977
544.964480,0.055855
545.291420,0.057162
545.618320,0.058433
545.945180,0.052736
546.272000,0.053080
546.598780,0.056375
546.925520,0.057699
547.252220,0.056454
547.578880,0.054741
547.905500,0.055882
548.232080,0.058480
548.558620,0.057273
548.885120,0.057573
549.211580,0.058502
549.538000,0.057393
549.864380,0.057235
550.190720,0.054569
550.517020,0.057040
550.843280,0.058632
551.169500,0.056298
551.495680,0.055848
551.821820,0.058785
552.147920,0.057580
552.473980,0.056964
552.800000,0.057227
553.125980,0.056320
553.451920,0.059721
553.777820,0.056296
554.103680,0.058308
554.429500,0.053900
554.755280,0.055073
555.081020,0.056484
555.406720,0.056214
555.732380,0.054558
556.058000,0.056008
556.383580,0.052379
556.709120,0.055479
557.034620,0.056493
557.360080,0.056304
557.685500,0.059820
558.010880,0.058925
558.336220,0.054130
558.661520,0.059908
558.986780,0.056697
559.312000,0.057692
559.637180,0.054219
559.962320,0.058384
560.287420,0.057123
560.612480,0.057409
560.937500,0.058003
561.262480,0.057551
561.587420,0.058034
561.912320,0.059322
562.237180,0.055144
562.562000,0.057613
562.886780,0.058343
563.211520,0.057750
563.536220,0.059740
563.860880,0.057337
564.185500,0.056660
564.510080,0.053800
564.834620,0.057685
565.159120,0.058647
565.483580,0.055872
565.808000,0.058267
566.132380,0.056322
566.456720,0.058957
566.781020,0.057764
567.105280,0.056333
567.429500,0.059560
567.753680,0.055619
568.077820,0.055276
568.401920,0.060733
568.725980,0.059583
569.050000,0.058935
569.373980,0.057861
569.697920,0.056883
570.021820,0.059176
570.345680,0.058936
570.669500,0.058756
570.993280,0.057217
571.317020,0.059189
571.640720,0.054465
571.964380,0.055308
572.288000,0.059718
572.611580,0.059154
572.935120,0.058736
573.258620,0.057966
573.582080,0.058867
573.905500,0.058824
574.228880,0.058649
574.552220,0.058630
574.875520,0.061430
575.198780,0.056740
575.522000,0.056818
575.845180,0.055158
576.168320,0.060726
576.491420,0.060683
576.814480,0.056781
577.137500,0.059524
577.460480,0.059804
577.783420,0.061451
578.106320,0.059473
578.429180,0.060799
578.752000,0.058701
579.074780,0.061362
579.397520,0.059716
579.720220,0.057593
580.042880,0.059795
580.365500,0.057578
580.688080,0.056649
581.010620,0.058724
581.333120,0.058784
581.655580,0.062604
581.978000,0.058530
582.300380,0.057773
582.622720,0.062294
582.945020,0.059493
583.267280,0.056333
583.589500,0.058106
583.911680,0.058431
584.233820,0.057287
584.555920,0.060195
584.877980,0.059987
585.200000,0.055556
585.521980,0.059005
585.843920,0.058877
586.165820,0.056673
586.487680,0.057478
586.809500,0.058806
587.131280,0.059746
587.453020,0.059524
587.774720,0.059137
588.096380,0.057176
588.418000,0.057068
588.739580,0.061224
589.061120,0.058942
589.382620,0.059026
589.704080,0.060028
590.025500,0.060217
590.346880,0.060427
590.668220,0.057407
590.989520,0.058514
591.310780,0.058547
591.632000,0.059836
591.953180,0.060061
592.274320,0.057603
592.595420,0.058998
592.916480,0.058951
593.237500,0.061169
593.558480,0.058111
593.879420,0.059347
594.200320,0.061345
594.521180,0.060823
594.842000,0.059108
595.162780,0.060363
595.483520,0.058761
595.804220,0.057197
596.124880,0.061284
596.445500,0.060519
596.766080,0.061845
597.086620,0.061306
597.407120,0.059768
597.727580,0.057544
598.048000,0.058979
598.368380,0.058916
598.688720,0.057667
599.009020,0.062898
599.329280,0.062799
599.649500,0.060222
599.969680,0.060897
600.289820,0.059562
600.609920,0.057441
600.929980,0.057723
601.250000,0.058919
601.569980,0.058061
601.889920,0.059342
602.209820,0.059524
602.529680,0.060698
602.849500,0.060829
603.169280,0.060072
603.489020,0.059231
603.808720,0.057872
604.128380,0.059051
604.448000,0.057735
604.767580,0.062291
605.087120,0.058449
605.406620,0.061013
605.726080,0.060451
606.045500,0.057955
606.364880,0.059541
606.684220,0.060822
607.003520,0.059060
607.322780,0.057987
607.642000,0.060023
607.961180,0.059266
608.280320,0.060905
608.599420,0.056779
608.918480,0.057771
609.237500,0.061620
609.556480,0.060373
609.875420,0.059953
610.194320,0.061116
610.513180,0.061557
610.832000,0.058964
611.150780,0.058576
611.469520,0.058824
611.788220,0.061366
612.106880,0.061218
612.425500,0.059074
612.744080,0.061557
613.062620,0.059327
613.381120,0.060938
613.699580,0.061619
614.018000,0.062346
614.336380,0.058606
614.654720,0.060155
614.973020,0.059550
615.291280,0.059808
615.609500,0.059588
615.927680,0.059333
616.245820,0.060297
616.563920,0.060305
616.881980,0.060493
617.200000,0.061586
617.517980,0.059428
617.835920,0.056539
618.153820,0.060615
618.471680,0.059225
618.789500,0.058527
619.107280,0.063537
619.425020,0.061529
619.742720,0.059322
620.060380,0.059229
620.378000,0.060101
620.695580,0.060983
621.013120,0.059843
621.330620,0.058676
621.648080,0.058991
621.965500,0.059285
622.282880,0.061160
622.600220,0.060960
622.917520,0.059861
623.234780,0.060752
623.552000,0.060153
623.869180,0.060511
624.186320,0.060490
624.503420,0.061755
624.820480,0.060635
625.137500,0.058415
625.454480,0.062832
625.771420,0.059899
626.088320,0.059899
626.405180,0.059428
626.722000,0.060540
627.038780,0.056704
627.355520,0.061250
627.672220,0.059720
627.988880,0.058476
628.305500,0.060455
628.622080,0.063197
628.938620,0.062385
629.255120,0.062850
629.571580,0.060987
629.888000,0.058300
630.204380,0.059221
630.520720,0.059415
630.837020,0.059513
631.153280,0.060252
631.469500,0.060340
631.785680,0.057263
632.101820,0.063329
632.417920,0.061103
632.733980,0.060624
633.050000,0.060946
633.365980,0.061055
633.681920,0.065036
633.997820,0.059175
634.313680,0.061929
634.629500,0.060749
634.945280,0.058358
635.261020,0.062812
635.576720,0.060482
635.892380,0.061284
636.208000,0.063045
636.523580,0.060509
636.839120,0.059931
637.154620,0.063478
637.470080,0.059971
637.785500,0.061254
638.100880,0.059658
638.416220,0.060684
638.731520,0.058739
639.046780,0.059132
639.362000,0.060206
639.677180,0.061965
639.992320,0.060051
640.307420,0.061534
640.622480,0.058807
640.937500,0.061581
641.252480,0.061435
641.567420,0.060244
641.882320,0.059855
642.197180,0.062605
642.512000,0.059614
642.826780,0.060194
643.141520,0.060572
643.456220,0.060321
643.770880,0.061083
644.085500,0.056736
644.400080,0.060393
644.714620,0.059922
645.029120,0.061056
645.343580,0.057872
645.658000,0.058840
645.972380,0.061935
646.286720,0.061597
646.601020,0.060061
646.915280,0.060872
647.229500,0.060165
647.543680,0.061309
647.857820,0.060556
648.171920,0.061042
648.485980,0.062209
648.800000,0.058694
649.113980,0.059867
649.427920,0.061581
649.741820,0.059632
650.055680,0.063083
650.369500,0.063061
650.683280,0.062986
650.997020,0.061606
651.310720,0.059439
651.624380,0.060989
651.938000,0.060388
652.251580,0.059004
652.565120,0.058133
652.878620,0.061937
653.192080,0.059831
653.505500,0.060870
653.818880,0.063122
654.132220,0.060382
654.445520,0.060976
654.758780,0.061190
655.072000,0.060172
655.385180,0.060485
655.698320,0.060303
656.011420,0.061909
656.324480,0.061498
656.637500,0.057937
656.950480,0.059307
657.263420,0.060006
657.576320,0.058998
657.889180,0.060454
658.202000,0.061292
658.514780,0.061625
658.827520,0.062125
659.140220,0.059035
659.452880,0.058895
659.765500,0.060807
660.078080,0.059585
660.390620,0.060800
660.703120,0.063550
661.015580,0.059202
661.328000,0.062972
661.640380,0.063063
661.952720,0.061040
662.265020,0.063012
662.577280,0.063931
662.889500,0.063387
663.201680,0.063497
663.513820,0.058861
663.825920,0.059558
664.137980,0.061732
664.450000,0.060422
664.761980,0.061866
665.073920,0.061344
665.385820,0.061518
665.697680,0.059174
666.009500,0.060525
666.321280,0.062293
666.633020,0.063165
666.944720,0.058982
667.256380,0.061575
667.568000,0.059783
667.879580,0.062925
668.191120,0.062500
668.502620,0.061623
668.814080,0.059649
669.125500,0.059528
669.436880,0.060858
669.748220,0.062305
670.059520,0.061975
670.370780,0.060891
670.682000,0.056991
670.993180,0.058492
671.304320,0.062588
671.615420,0.062145
671.926480,0.062101
672.237500,0.060736
672.548480,0.063875
672.859420,0.058971
673.170320,0.059485
673.481180,0.062274
673.792000,0.058781
674.102780,0.063555
674.413520,0.060153
674.724220,0.062795
675.034880,0.060873
675.345500,0.060540
675.656080,0.060254
675.966620,0.059294
676.277120,0.061516
676.587580,0.064801
676.898000,0.060844
677.208380,0.059889
677.518720,0.060175
677.829020,0.061715
678.139280,0.060415
678.449500,0.064983
678.759680,0.061446
679.069820,0.058364
679.379920,0.061486
679.689980,0.061641
680.000000,0.061682
680.309980,0.061247
680.619920,0.059447
680.929820,0.059351
681.239680,0.061669
681.549500,0.063704
681.859280,0.060119
682.169020,0.061544
682.478720,0.063201
682.788380,0.057955
683.098000,0.061705
683.407580,0.058537
683.717120,0.061937
684.026620,0.061370
684.336080,0.061008
684.645500,0.058736
684.954880,0.061201
685.264220,0.063043
685.573520,0.062429
685.882780,0.063291
686.192000,0.059067
686.501180,0.063186
686.810320,0.064566
687.119420,0.059673
687.428480,0.059628
687.737500,0.061397
688.046480,0.061350
688.355420,0.059600
688.664320,0.061209
688.973180,0.063553
689.282000,0.057485
689.590780,0.056748
689.899520,0.059248
690.208220,0.063838
690.516880,0.061092
690.825500,0.061509
691.134080,0.062263
691.442620,0.063262
691.751120,0.059158
692.059580,0.061521
692.368000,0.060962
692.676380,0.060305
692.984720,0.060305
693.293020,0.060410
693.601280,0.057993
693.909500,0.059402
694.217680,0.059787
694.525820,0.065118
694.833920,0.062572
695.141980,0.058619
695.450000,0.063359
695.757980,0.059587
696.065920,0.064078
696.373820,0.063125
696.681680,0.059072
696.989500,0.065612
697.297280,0.061455
697.605020,0.059524
697.912720,0.060338
698.220380,0.059425
698.528000,0.062500
698.835580,0.065587
699.143120,0.061185
699.450620,0.064439
699.758080,0.059608
700.065500,0.061053
700.372880,0.059200
700.680220,0.060630
700.987520,0.063095
701.294780,0.061233
701.602000,0.058241
701.909180,0.064388
702.216320,0.061009
702.523420,0.059195
702.830480,0.061782
703.137500,0.061185
703.444480,0.065878
703.751420,0.057988
704.058320,0.062525
704.365180,0.063486
704.672000,0.063366
704.978780,0.059696
705.285520,0.058294
705.592220,0.065490
705.898880,0.061466
706.205500,0.062989
706.512080,0.062796
706.818620,0.061533
707.125120,0.064615
707.431580,0.062134
707.738000,0.062109
708.044380,0.059437
708.350720,0.063049
708.657020,0.062134
708.963280,0.059006
709.269500,0.061448
709.575680,0.062083
709.881820,0.059748
710.187920,0.062257
710.493980,0.063227
710.800000,0.061785
711.105980,0.060617
711.411920,0.059519
711.717820,0.063158
712.023680,0.061018
712.329500,0.060331
712.635280,0.063566
712.941020,0.061848
713.246720,0.061660
713.552380,0.060832
713.858000,0.063067
714.163580,0.062747
714.469120,0.059007
714.774620,0.060403
715.080080,0.062819
715.385500,0.063149
715.690880,0.059961
715.996220,0.060618
716.301520,0.061660
716.606780,0.058962
716.912000,0.061793
717.217180,0.059058
717.522320,0.056461
717.827420,0.061432
718.132480,0.061823
718.437500,0.057888
718.742480,0.061694
719.047420,0.060680
719.352320,0.065587
719.657180,0.063778
719.962000,0.060794
720.266780,0.063565
720.571520,0.061723
720.876220,0.060556
721.180880,0.059783
721.485500,0.061847
721.790080,0.059448
722.094620,0.064322
722.399120,0.063766
722.703580,0.059151
723.008000,0.065545
723.312380,0.065002
723.616720,0.056099
723.921020,0.061932
724.225280,0.059773
724.529500,0.061734
724.833680,0.064947
725.137820,0.059471
725.441920,0.058404
725.745980,0.061745
726.050000,0.063599
726.353980,0.060838
726.657920,0.061179
726.961820,0.060731
727.265680,0.065187
727.569500,0.062614
727.873280,0.057737
728.177020,0.064026
728.480720,0.063426
728.784380,0.063880
729.088000,0.057937
729.391580,0.061108
729.695120,0.060940
729.998620,0.065488
730.302080,0.062470
730.605500,0.058709
730.908880,0.058305
731.212220,0.057786
731.515520,0.061433
731.818780,0.062136
732.122000,0.062500
732.425180,0.057664
732.728320,0.058007
733.031420,0.059148
733.334480,0.059184
733.637500,0.060484
733.940480,0.060389
734.243420,0.065240
734.546320,0.062241
734.849180,0.058884
735.152000,0.060166
735.454780,0.058884
735.757520,0.061644
736.060220,0.064771
736.362880,0.061975
736.665500,0.057963
736.968080,0.060720
737.270620,0.065868
737.573120,0.058952
737.875580,0.065421
738.178000,0.063691
738.480380,0.059459
738.782720,0.058888
739.085020,0.059471
739.387280,0.063747
739.689500,0.060023
739.991680,0.064009
740.293820,0.064124
740.595920,0.057874
740.897980,0.057595
741.200000,0.063937
741.501980,0.063610
741.803920,0.060248
742.105820,0.062042
742.407680,0.061736
742.709500,0.063636
743.011280,0.058030
743.313020,0.063188
743.614720,0.058038
743.916380,0.062791
744.218000,0.063842
744.519580,0.062802
744.821120,0.064072
745.122620,0.063511
745.424080,0.056490
745.725500,0.062764
746.026880,0.062192
746.328220,0.057953
746.629520,0.063817
746.930780,0.064951
747.232000,0.063151
747.533180,0.063453
747.834320,0.063907
748.135420,0.065258
748.436480,0.064878
748.737500,0.062384
749.038480,0.063531
749.339420,0.065339
749.640320,0.060339
749.941180,0.062461
750.242000,0.058417
750.542780,0.062035
750.843520,0.060858
751.144220,0.061538
751.444880,0.067216
751.745500,0.059091
752.046080,0.061578
752.346620,0.056701
752.647120,0.059438
752.947580,0.063389
753.248000,0.064475
753.548380,0.059857
753.848720,0.060528
754.149020,0.057382
754.449280,0.064347
754.749500,0.058394
755.049680,0.060000
755.349820,0.062708
755.649920,0.063450
755.949980,0.064366
756.250000,0.064431
756.549980,0.059406
756.849920,0.063902
757.149820,0.059880
757.449680,0.067987
757.749500,0.064076
758.049280,0.057338
758.349020,0.058414
758.648720,0.061422
758.948380,0.059107
759.248000,0.059299
759.547580,0.057835
759.847120,0.059269
760.146620,0.062923
760.446080,0.059812
760.745500,0.055944
761.044880,0.057528
761.344220,0.061297
761.643520,0.063559
761.942780,0.065780
762.242000,0.064356
762.541180,0.061268
762.840320,0.059691
763.139420,0.055556
763.438480,0.060834
763.737500,0.060648
764.036480,0.062893
764.335420,0.062103
764.634320,0.058905
764.933180,0.065068
765.232000,0.061069
765.530780,0.065263
765.829520,0.064336
766.128220,0.061935
766.426880,0.059701
766.725500,0.063057
767.024080,0.061728
767.322620,0.060166
767.621120,0.063686
767.919580,0.062799
768.218000,0.061560
768.516380,0.060852
768.814720,0.058299
769.113020,0.059959
769.411280,0.062845
769.709500,0.060217
770.007680,0.054533
770.305820,0.060176
770.603920,0.059973
770.901980,0.064891
771.200000,0.059783
771.497980,0.066354
771.795920,0.058863
772.093820,0.060160
772.391680,0.062624
772.689500,0.058784
772.987280,0.063300
773.285020,0.063568
773.582720,0.062162
773.880380,0.059712
774.178000,0.062713
774.475580,0.062291
774.773120,0.059572
775.070620,0.060176
775.368080,0.058116
775.665500,0.057085
775.962880,0.064043
776.260220,0.056528
776.557520,0.064710
776.854780,0.058824
777.152000,0.059682
777.449180,0.062711
777.746320,0.055780
778.043420,0.064802
778.340480,0.061570
778.637500,0.063556
778.934480,0.059852
779.231420,0.052917
779.528320,0.058784
779.825180,0.063900
780.122000,0.060425
780.418780,0.062927
780.715520,0.062374
781.012220,0.067123
781.308880,0.062880
781.605500,0.060959
781.902080,0.065024
782.198620,0.060834
782.495120,0.058985
782.791580,0.061898
783.088000,0.062802
783.384380,0.065337
783.680720,0.062927
783.977020,0.059188
784.273280,0.069231
784.569500,0.062893
784.865680,0.066064
785.161820,0.061806
785.457920,0.059598
785.753980,0.061410
786.050000,0.059392
786.345980,0.063194
786.641920,0.063845
786.937820,0.064815
787.233680,0.058455
787.529500,0.062413
787.825280,0.065156
788.121020,0.062323
788.416720,0.062809
788.712380,0.059944
789.008000,0.058782
789.303580,0.060071
789.599120,0.060364
789.894620,0.065704
790.190080,0.058738
790.485500,0.066955
790.780880,0.062366
791.076220,0.061328
791.371520,0.063181
791.666780,0.066182
791.962000,0.064658
792.257180,0.065154
792.552320,0.062364
792.847420,0.060408
793.142480,0.068132
793.437500,0.057887
793.732480,0.059254
794.027420,0.061573
794.322320,0.059657
794.617180,0.062407
794.912000,0.057207
795.206780,0.061148
795.501520,0.067681
795.796220,0.057778
796.090880,0.063301
796.385500,0.059970
796.680080,0.062079
796.974620,0.065120
797.269120,0.059046
797.563580,0.062595
797.858000,0.063022
798.152380,0.060325
798.446720,0.062308
798.741020,0.060092
799.035280,0.063665
799.329500,0.060046
799.623680,0.065116
