399.985280,0.135135
400.329500,0.040541
400.673680,0.063291
401.017820,0.014706
401.361920,-0.060606
401.705980,0.012195
402.050000,0.000000
402.393980,0.035294
402.737920,0.056180
403.081820,0.000000
403.425680,0.034884
403.769500,-0.020833
404.113280,-0.011494
404.457020,0.044944
404.800720,0.000000
405.144380,0.101010
405.488000,0.053763
405.831580,0.061856
406.175120,0.010638
406.518620,0.030000
406.862080,0.103093
407.205500,0.020833
407.548880,0.010204
407.892220,0.039216
408.235520,0.021277
408.578780,0.114286
408.922000,0.076923
409.265180,0.121212
409.608320,0.080808
409.951420,0.020619
410.294480,0.107843
410.637500,0.054348
410.980480,0.049020
411.323420,0.020408
411.666320,0.055046
412.009180,0.145455
412.352000,0.000000
412.694780,0.073394
413.037520,0.055046
413.380220,0.045045
413.722880,0.044643
414.065500,0.054054
414.408080,-0.017699
414.750620,0.026549
415.093120,0.008264
415.435580,0.033613
415.778000,0.098485
416.120380,0.050420
416.462720,0.031746
416.805020,0.120301
417.147280,0.029851
417.489500,0.071429
417.831680,0.034247
418.173820,0.021277
418.515920,0.027972
418.857980,0.031646
419.200000,0.044872
419.541980,0.088757
419.883920,0.056180
420.225820,0.046243
420.567680,0.067039
420.909500,0.060109
421.251280,0.067708
421.593020,0.045918
421.934720,0.030303
422.276380,0.041026
422.618000,0.068627
422.959580,0.063725
423.301120,0.045662
423.642620,0.021739
423.984080,0.037209
424.325500,0.031390
424.666880,0.047414
425.008220,0.029412
425.349520,0.046610
425.690780,0.042308
426.032000,0.043137
426.373180,0.041494
426.714320,0.042969
427.055420,0.034749
427.396480,0.056180
427.737500,0.031621
428.078480,0.047431
428.419420,0.056225
428.760320,0.057471
429.101180,0.066929
429.442000,0.053640
429.782780,0.057692
430.123520,0.047059
430.464220,0.044280
430.804880,0.049808
431.145500,0.036364
431.486080,0.048689
431.826620,0.031008
432.167120,0.058824
432.507580,0.047101
432.848000,0.043165
433.188380,0.046931
433.528720,0.049057
433.869020,0.050000
434.209280,0.042105
434.549500,0.041812
434.889680,0.074074
435.229820,0.030717
435.569920,0.044983
435.909980,0.038835
436.250000,0.050847
436.589980,0.043344
436.929920,0.060317
437.269820,0.053292
437.609680,0.062130
437.949500,0.045181
438.289280,0.065156
438.629020,0.043605
438.968720,0.055233
439.308380,0.051491
439.648000,0.063014
439.987580,0.055556
440.327120,0.050667
440.666620,0.054545
441.006080,0.053708
441.345500,0.054054
441.684880,0.050239
442.024220,0.037221
442.363520,0.045238
442.702780,0.043182
443.042000,0.035242
443.381180,0.053879
443.720320,0.056156
444.059420,0.035714
444.398480,0.041841
444.737500,0.055328
445.076480,0.051587
445.415420,0.037924
445.754320,0.039501
446.093180,0.055046
446.432000,0.045113
446.770780,0.053131
447.109520,0.058824
447.448220,0.051878
447.786880,0.055456
448.125500,0.056897
448.464080,0.042857
448.802620,0.047872
449.141120,0.048443
449.479580,0.052448
449.818000,0.060241
450.156380,0.053512
450.494720,0.054545
450.833020,0.054196
451.171280,0.039384
451.509500,0.057491
451.847680,0.048904
452.185820,0.053356
452.523920,0.053265
452.861980,0.053963
453.200000,0.049834
453.537980,0.055462
453.875920,0.060504
454.213820,0.039384
454.551680,0.054636
454.889500,0.057336
455.227280,0.035587
455.565020,0.053601
455.902720,0.053245
456.240380,0.034942
456.578000,0.060976
456.915580,0.050086
457.253120,0.052632
457.590620,0.057471
457.928080,0.042088
458.265500,0.054054
458.602880,0.051948
458.940220,0.038917
459.277520,0.044800
459.614780,0.062193
459.952000,0.055901
460.289180,0.064873
460.626320,0.039370
460.963420,0.053312
461.300480,0.050459
461.637500,0.049307
461.974480,0.055046
462.311420,0.044709
462.648320,0.046852
462.985180,0.047346
463.322000,0.040179
463.658780,0.044199
463.995520,0.050894
464.332220,0.049861
464.668880,0.059140
465.005500,0.058981
465.342080,0.060179
465.678620,0.054121
466.015120,0.043984
466.351580,0.058154
466.688000,0.052375
467.024380,0.052248
467.360720,0.047727
467.697020,0.048975
468.033280,0.054444
468.369500,0.055188
468.705680,0.054115
469.041820,0.054167
469.377920,0.048807
469.713980,0.049434
470.050000,0.059903
470.385980,0.050881
470.721920,0.050930
471.057820,0.046784
471.393680,0.047708
471.729500,0.048193
472.065280,0.051878
472.401020,0.054965
472.736720,0.049738
473.072380,0.051167
473.408000,0.050479
473.743580,0.055363
474.079120,0.053402
474.414620,0.046650
474.750080,0.050448
475.085500,0.050164
475.420880,0.049126
475.756220,0.050695
476.091520,0.050298
476.426780,0.051780
476.762000,0.049075
477.097180,0.050400
477.432320,0.046850
477.767420,0.052288
478.102480,0.054331
478.437500,0.050903
478.772480,0.046493
479.107420,0.053702
479.442320,0.049560
479.777180,0.052506
480.112000,0.049307
480.446780,0.049883
480.781520,0.052335
481.116220,0.047696
481.450880,0.050742
481.785500,0.053006
482.120080,0.050940
482.454620,0.054390
482.789120,0.054140
483.123580,0.049065
483.458000,0.047468
483.792380,0.054313
484.126720,0.047876
484.461020,0.053084
484.795280,0.055513
485.129500,0.059236
485.463680,0.051163
485.797820,0.058320
486.131920,0.049732
486.465980,0.054826
486.800000,0.052672
487.133980,0.050604
487.467920,0.053558
487.801820,0.050343
488.135680,0.053829
488.469500,0.051437
488.803280,0.052749
489.137020,0.052747
489.470720,0.050445
489.804380,0.051967
490.138000,0.054154
490.471580,0.055269
490.805120,0.052895
491.138620,0.054726
491.472080,0.053710
491.805500,0.048815
492.138880,0.053509
492.472220,0.054671
492.805520,0.053073
493.138780,0.058580
493.472000,0.056187
493.805180,0.054570
494.138320,0.053369
494.471420,0.050130
494.804480,0.051100
495.137500,0.057125
495.470480,0.056087
495.803420,0.051637
496.136320,0.053885
496.469180,0.052179
496.802000,0.055012
497.134780,0.053366
497.467520,0.056881
497.800220,0.052476
498.132880,0.055850
498.465500,0.056199
498.798080,0.052511
499.130620,0.055587
499.463120,0.057271
499.795580,0.059406
500.128000,0.053406
500.460380,0.054360
500.792720,0.049311
501.125020,0.054651
501.457280,0.052742
501.789500,0.054752
502.121680,0.057543
502.453820,0.052014
502.785920,0.051526
503.117980,0.057409
503.450000,0.053240
503.781980,0.055306
504.113920,0.051683
504.445820,0.052018
504.777680,0.051294
505.109500,0.051442
505.441280,0.051147
505.773020,0.054955
506.104720,0.051342
506.436380,0.054898
506.768000,0.053321
507.099580,0.053089
507.431120,0.055269
507.762620,0.053571
508.094080,0.056518
508.425500,0.053688
508.756880,0.052583
509.088220,0.052898
509.419520,0.055866
509.750780,0.052015
510.082000,0.052705
510.413180,0.055735
510.744320,0.053843
511.075420,0.054995
511.406480,0.054537
511.737500,0.052778
512.068480,0.053102
512.399420,0.051643
512.730320,0.050808
513.061180,0.051855
513.392000,0.052532
513.722780,0.051393
514.053520,0.052707
514.384220,0.052807
514.714880,0.052178
515.045500,0.054119
515.376080,0.055690
515.706620,0.052606
516.037120,0.053431
516.367580,0.049778
516.698000,0.052451
517.028380,0.053128
517.358720,0.051852
517.689020,0.054402
518.019280,0.050677
518.349500,0.054232
518.679680,0.050480
519.009820,0.051113
519.339920,0.056112
519.669980,0.056253
520.000000,0.056037
520.329980,0.053914
520.659920,0.056748
520.989820,0.056244
521.319680,0.058128
521.649500,0.048843
521.979280,0.055324
522.309020,0.056017
522.638720,0.053251
522.968380,0.053257
523.298000,0.052192
523.627580,0.056389
523.957120,0.057143
524.286620,0.054195
524.616080,0.054809
524.945500,0.056848
525.274880,0.057465
525.604220,0.059006
525.933520,0.051363
526.262780,0.052712
526.592000,0.059868
526.921180,0.061453
527.250320,0.055809
527.579420,0.057100
527.908480,0.056622
528.237500,0.056604
528.566480,0.053892
528.895420,0.053721
529.224320,0.055968
529.553180,0.058313
529.882000,0.057908
530.210780,0.054054
530.539520,0.053691
530.868220,0.058880
531.196880,0.055423
531.525500,0.058111
531.854080,0.055816
532.182620,0.055114
532.511120,0.054756
532.839580,0.057169
533.168000,0.055606
533.496380,0.057991
533.824720,0.054733
534.153020,0.056621
534.481280,0.057709
534.809500,0.055409
535.137680,0.056858
535.465820,0.059278
535.793920,0.058376
536.121980,0.057910
536.450000,0.059197
536.777980,0.060327
537.105920,0.058115
537.433820,0.057692
537.761680,0.057143
538.089500,0.058681
538.417280,0.054517
538.745020,0.057052
539.072720,0.051542
539.400380,0.057498
539.728000,0.057744
540.055580,0.057678
540.383120,0.057334
540.710620,0.056920
541.038080,0.057174
541.365500,0.055515
541.692880,0.057776
542.020220,0.056135
542.347520,0.055994
542.674780,0.057163
543.002000,0.056683
543.329180,0.059277
543.656320,0.059072
543.983420,0.057436
544.310480,0.055725
544.637500,0.056636
544.964480,0.055518
545.291420,0.058159
545.618320,0.059429
545.945180,0.053724
546.272000,0.054063
546.598780,0.054408
546.925520,0.055720
547.252220,0.054143
547.578880,0.059629
547.905500,0.056209
548.232080,0.055231
548.558620,0.059876
548.885120,0.055937
549.211580,0.057538
549.538000,0.056420
549.864380,0.056913
550.190720,0.056506
550.517020,0.057366
550.843280,0.056026
551.169500,0.055980
551.495680,0.058804
551.821820,0.059112
552.147920,0.056604
552.473980,0.055318
552.800000,0.056900
553.125980,0.058284
553.451920,0.059058
553.777820,0.056629
554.103680,0.056960
554.429500,0.052896
554.755280,0.056075
555.081020,0.054813
555.406720,0.057230
555.732380,0.053541
556.058000,0.059403
556.383580,0.058199
556.709120,0.058580
557.034620,0.057182
557.360080,0.057340
557.685500,0.059474
558.010880,0.056153
558.336220,0.054482
558.661520,0.055300
558.986780,0.057052
559.312000,0.056980
559.637180,0.059605
559.962320,0.058384
560.287420,0.056770
560.612480,0.055974
560.937500,0.057636
561.262480,0.053152
561.587420,0.060210
561.912320,0.059690
562.237180,0.060696
562.562000,0.055368
562.886780,0.057228
563.211520,0.058122
563.536220,0.060853
563.860880,0.055828
564.185500,0.058161
564.510080,0.055305
564.834620,0.057685
565.159120,0.054887
565.483580,0.056632
565.808000,0.056375
566.132380,0.060425
566.456720,0.060091
566.781020,0.057014
567.105280,0.059735
567.429500,0.055766
567.753680,0.058688
568.077820,0.058369
568.401920,0.060351
568.725980,0.060342
569.050000,0.061217
569.373980,0.061287
569.697920,0.058020
570.021820,0.059176
570.345680,0.058171
570.669500,0.059138
570.993280,0.062016
571.317020,0.059554
571.640720,0.057799
571.964380,0.059762
572.288000,0.061202
572.611580,0.057656
572.935120,0.060232
573.258620,0.059835
573.582080,0.057004
573.905500,0.058079
574.228880,0.058278
574.552220,0.061195
574.875520,0.061430
575.198780,0.059270
575.522000,0.056818
575.845180,0.058381
576.168320,0.059289
576.491420,0.058866
576.814480,0.058228
577.137500,0.060245
577.460480,0.058354
577.783420,0.058592
578.106320,0.055556
578.429180,0.059738
578.752000,0.056964
579.074780,0.062711
579.397520,0.060362
579.720220,0.057593
580.042880,0.056822
580.365500,0.060225
580.688080,0.059701
581.010620,0.059062
581.333120,0.057782
581.655580,0.060273
581.978000,0.059528
582.300380,0.057449
582.622720,0.060316
582.945020,0.058518
583.267280,0.059915
583.589500,0.059711
583.911680,0.059384
584.233820,0.057916
584.555920,0.059250
584.877980,0.057789
585.200000,0.057704
585.521980,0.060550
585.843920,0.059182
586.165820,0.056673
586.487680,0.057177
586.809500,0.058206
587.131280,0.058858
587.453020,0.061607
587.774720,0.057658
588.096380,0.059510
588.418000,0.059409
588.739580,0.064674
589.061120,0.057217
589.382620,0.059599
589.704080,0.057784
590.025500,0.059075
590.346880,0.058179
590.668220,0.059927
590.989520,0.057682
591.310780,0.061309
591.632000,0.062022
591.953180,0.060891
592.274320,0.057876
592.595420,0.059537
592.916480,0.060310
593.237500,0.062786
593.558480,0.058649
593.879420,0.061236
594.200320,0.060005
594.521180,0.061620
594.842000,0.058033
595.162780,0.060096
595.483520,0.059027
595.804220,0.058539
596.124880,0.059686
596.445500,0.057899
596.766080,0.060231
597.086620,0.058121
597.407120,0.058452
597.727580,0.059136
598.048000,0.060566
598.368380,0.059705
598.688720,0.057929
599.009020,0.061571
599.329280,0.058542
599.649500,0.058637
599.969680,0.058494
600.289820,0.059562
600.609920,0.057975
600.929980,0.058525
601.250000,0.058919
601.569980,0.058601
601.889920,0.057739
602.209820,0.060065
602.529680,0.059874
602.849500,0.057556
603.169280,0.058969
603.489020,0.059507
603.808720,0.060889
604.128380,0.060982
604.448000,0.057182
604.767580,0.058101
605.087120,0.060665
605.406620,0.057935
605.726080,0.059880
606.045500,0.057398
606.364880,0.060108
606.684220,0.059680
607.003520,0.060780
607.322780,0.059977
607.642000,0.060310
607.961180,0.058398
608.280320,0.058585
608.599420,0.057937
608.918480,0.057478
609.237500,0.060446
609.556480,0.059781
609.875420,0.058181
610.194320,0.062297
610.513180,0.061557
610.832000,0.058070
611.150780,0.057675
611.469520,0.059729
611.788220,0.059553
612.106880,0.059107
612.425500,0.059074
612.744080,0.059711
613.062620,0.057492
613.381120,0.060024
613.699580,0.058553
614.018000,0.058047
614.336380,0.059223
614.654720,0.059225
614.973020,0.059550
615.291280,0.061357
615.609500,0.060539
615.927680,0.058096
616.245820,0.059988
616.563920,0.062791
616.881980,0.059557
617.200000,0.060031
617.517980,0.060672
617.835920,0.058093
618.153820,0.059372
618.471680,0.059225
618.789500,0.060730
619.107280,0.061033
619.425020,0.059626
619.742720,0.057753
620.060380,0.058916
620.378000,0.058527
620.695580,0.061303
621.013120,0.057953
621.330620,0.061500
621.648080,0.060883
621.965500,0.060226
622.282880,0.061475
622.600220,0.061276
622.917520,0.059546
623.234780,0.062038
623.552000,0.059198
623.869180,0.059565
624.186320,0.061127
624.503420,0.060188
624.820480,0.060635
625.137500,0.056836
625.454480,0.059394
625.771420,0.059269
626.088320,0.060530
626.405180,0.058183
626.722000,0.061481
627.038780,0.058271
627.355520,0.060312
627.672220,0.061897
627.988880,0.058476
628.305500,0.062636
628.622080,0.062577
628.938620,0.062997
629.255120,0.061605
629.571580,0.058535
629.888000,0.058914
630.204380,0.060755
630.520720,0.060938
630.837020,0.057663
631.153280,0.058453
631.469500,0.060340
631.785680,0.062990
632.101820,0.062425
632.417920,0.060507
632.733980,0.057923
633.050000,0.060946
633.365980,0.060462
633.681920,0.061754
633.997820,0.061267
634.313680,0.061044
634.629500,0.059864
634.945280,0.060997
635.261020,0.061931
635.576720,0.060188
635.892380,0.060412
636.208000,0.063045
636.523580,0.059924
636.839120,0.061668
637.154620,0.062899
637.470080,0.059110
637.785500,0.061254
638.100880,0.060237
638.416220,0.062123
638.731520,0.062178
639.046780,0.060880
639.362000,0.060206
639.677180,0.061965
639.992320,0.063152
640.307420,0.061815
640.622480,0.063568
640.937500,0.061304
641.252480,0.061435
641.567420,0.059392
641.882320,0.060134
642.197180,0.059798
642.512000,0.060453
642.826780,0.062968
643.141520,0.060572
643.456220,0.061981
643.770880,0.058596
644.085500,0.060369
644.400080,0.061236
644.714620,0.059643
645.029120,0.061881
645.343580,0.060889
645.658000,0.058840
645.972380,0.061387
646.286720,0.059962
646.601020,0.060061
646.915280,0.062243
647.229500,0.060714
647.543680,0.060204
647.857820,0.061657
648.171920,0.063755
648.485980,0.060290
648.800000,0.059796
649.113980,0.060976
649.427920,0.062968
649.741820,0.059907
650.055680,0.062260
650.369500,0.060818
650.683280,0.061598
650.997020,0.060781
651.310720,0.062190
651.624380,0.059615
651.938000,0.062050
652.251580,0.060674
652.565120,0.058413
652.878620,0.063063
653.192080,0.058427
653.505500,0.057784
653.818880,0.063122
654.132220,0.060666
654.445520,0.062394
654.758780,0.060907
655.072000,0.063037
655.385180,0.061341
655.698320,0.060589
656.011420,0.058469
656.324480,0.059458
656.637500,0.060834
656.950480,0.060482
657.263420,0.061188
657.576320,0.059591
657.889180,0.061339
658.202000,0.061594
658.514780,0.058946
658.827520,0.061224
659.140220,0.060833
659.452880,0.059801
659.765500,0.062613
660.078080,0.060788
660.390620,0.060189
660.703120,0.060495
661.015580,0.062270
661.328000,0.062028
661.640380,0.055607
661.952720,0.062286
662.265020,0.060491
662.577280,0.061705
662.889500,0.059603
663.201680,0.062859
663.513820,0.061435
663.825920,0.060519
664.137980,0.061086
664.450000,0.062020
664.761980,0.060884
665.073920,0.060370
665.385820,0.062827
665.697680,0.061157
666.009500,0.058198
666.321280,0.062624
666.633020,0.060838
666.944720,0.059993
667.256380,0.058883
667.568000,0.058424
667.879580,0.060544
668.191120,0.060783
668.502620,0.058199
668.814080,0.061404
669.125500,0.061581
669.436880,0.059820
669.748220,0.060575
670.059520,0.060224
670.370780,0.062283
670.682000,0.060531
670.993180,0.059901
671.304320,0.062588
671.615420,0.060369
671.926480,0.057488
672.237500,0.057163
672.548480,0.061746
672.859420,0.060043
673.170320,0.057671
673.481180,0.061550
673.792000,0.060584
674.102780,0.059605
674.413520,0.061247
674.724220,0.059165
675.034880,0.059406
675.345500,0.060904
675.656080,0.062795
675.966620,0.060749
676.277120,0.061150
676.587580,0.062224
676.898000,0.058604
677.208380,0.056932
677.518720,0.060540
677.829020,0.062823
678.139280,0.058933
678.449500,0.063869
678.759680,0.063320
679.069820,0.062454
679.379920,0.063372
679.689980,0.060156
680.000000,0.058318
680.309980,0.060876
680.619920,0.058690
680.929820,0.060844
681.239680,0.061300
681.549500,0.063704
681.859280,0.060119
682.169020,0.060425
682.478720,0.064697
682.788380,0.060539
683.098000,0.065445
683.407580,0.060038
683.717120,0.060435
684.026620,0.063253
684.336080,0.061008
684.645500,0.056865
684.954880,0.061957
685.264220,0.059645
685.573520,0.062429
685.882780,0.058305
686.192000,0.060196
686.501180,0.060916
686.810320,0.061107
687.119420,0.062714
687.428480,0.059248
687.737500,0.059094
688.046480,0.059816
688.355420,0.062618
688.664320,0.059679
688.973180,0.062021
689.282000,0.059799
689.590780,0.061350
689.899520,0.060008
690.208220,0.061927
690.516880,0.058801
690.825500,0.064528
691.134080,0.060364
691.442620,0.058689
691.751120,0.058400
692.059580,0.061903
692.368000,0.057933
692.676380,0.063359
692.984720,0.058397
693.293020,0.061550
693.601280,0.056467
693.909500,0.060916
694.217680,0.060548
694.525820,0.065499
694.833920,0.064861
695.141980,0.059391
695.450000,0.063740
695.757980,0.059969
696.065920,0.063689
696.373820,0.062356
696.681680,0.062908
696.989500,0.063296
697.297280,0.061455
697.605020,0.063095
697.912720,0.061875
698.220380,0.060213
698.528000,0.064873
698.835580,0.063611
699.143120,0.057677
699.450620,0.061257
699.758080,0.058824
700.065500,0.060255
700.372880,0.060800
700.680220,0.060630
700.987520,0.060317
701.294780,0.062449
701.602000,0.061410
701.909180,0.061606
702.216320,0.060618
702.523420,0.060379
702.830480,0.060594
703.137500,0.058846
703.444480,0.063905
703.751420,0.059566
704.058320,0.057776
704.365180,0.061120
704.672000,0.060594
704.978780,0.060476
705.285520,0.060250
705.592220,0.058431
705.898880,0.060678
706.205500,0.061033
706.512080,0.065166
706.818620,0.062693
707.125120,0.060769
707.431580,0.059398
707.738000,0.061328
708.044380,0.058279
708.350720,0.060757
708.657020,0.060571
708.963280,0.056289
709.269500,0.063796
709.575680,0.060904
709.881820,0.062107
710.187920,0.060311
710.493980,0.060512
710.800000,0.062166
711.105980,0.061370
711.411920,0.059125
711.717820,0.062378
712.023680,0.058298
712.329500,0.061120
712.635280,0.061240
712.941020,0.063007
713.246720,0.062055
713.552380,0.062009
713.858000,0.061490
714.163580,0.056433
714.469120,0.055881
714.774620,0.060403
715.080080,0.062034
715.385500,0.060751
715.690880,0.057594
715.996220,0.059429
716.301520,0.061265
716.606780,0.060535
716.912000,0.058158
717.217180,0.060654
717.522320,0.059245
717.827420,0.062653
718.132480,0.063027
718.437500,0.060334
718.742480,0.060081
719.047420,0.058657
719.352320,0.063512
719.657180,0.060507
719.962000,0.062862
720.266780,0.061072
720.571520,0.058409
720.876220,0.060556
721.180880,0.060201
721.485500,0.060176
721.790080,0.062845
722.094620,0.060463
722.399120,0.059888
722.703580,0.057865
723.008000,0.060371
723.312380,0.061558
723.616720,0.061623
723.921020,0.060632
724.225280,0.060646
724.529500,0.062172
724.833680,0.061833
725.137820,0.060352
725.441920,0.061971
725.745980,0.062192
726.050000,0.063148
726.353980,0.059486
726.657920,0.060279
726.961820,0.062557
727.265680,0.061489
727.569500,0.062157
727.873280,0.061432
728.177020,0.063565
728.480720,0.063889
728.784380,0.065759
729.088000,0.060292
729.391580,0.059214
729.695120,0.059501
729.998620,0.060707
730.302080,0.059587
730.605500,0.057254
730.908880,0.061244
731.212220,0.059256
731.515520,0.065822
731.818780,0.060680
732.122000,0.062992
732.425180,0.060128
732.728320,0.062965
733.031420,0.059148
733.334480,0.058163
733.637500,0.057964
733.940480,0.056807
734.243420,0.065240
734.546320,0.063797
734.849180,0.062500
735.152000,0.062241
735.454780,0.059917
735.757520,0.061117
736.060220,0.061085
736.362880,0.065126
736.665500,0.059530
736.968080,0.060720
737.270620,0.060425
737.573120,0.061681
737.875580,0.063222
738.178000,0.063146
738.480380,0.058378
738.782720,0.061069
739.085020,0.060022
739.387280,0.056541
739.689500,0.065119
739.991680,0.061763
740.293820,0.066335
740.595920,0.062883
740.897980,0.062676
741.200000,0.064498
741.501980,0.065330
741.803920,0.057995
742.105820,0.058658
742.407680,0.062318
742.709500,0.060227
743.011280,0.058617
743.313020,0.061449
743.614720,0.055717
743.916380,0.055814
744.218000,0.063842
744.519580,0.062198
744.821120,0.062275
745.122620,0.063511
745.424080,0.057091
745.725500,0.063971
746.026880,0.059113
746.328220,0.061036
746.629520,0.062613
746.930780,0.064951
747.232000,0.065604
747.533180,0.063453
747.834320,0.062690
748.135420,0.066501
748.436480,0.067374
748.737500,0.066090
749.038480,0.059255
749.339420,0.065339
749.640320,0.060968
749.941180,0.061836
750.242000,0.059673
750.542780,0.065757
750.843520,0.064061
751.144220,0.063462
751.444880,0.063412
751.745500,0.057792
752.046080,0.059012
752.346620,0.061856
752.647120,0.060745
752.947580,0.059508
753.248000,0.059317
753.548380,0.057905
753.848720,0.061172
754.149020,0.057382
754.449280,0.061720
754.749500,0.061048
755.049680,0.059333
755.349820,0.061374
755.649920,0.062789
755.949980,0.063039
756.250000,0.061801
756.549980,0.058746
756.849920,0.063902
757.149820,0.061876
757.449680,0.064026
757.749500,0.059986
758.049280,0.064164
758.349020,0.063978
758.648720,0.061422
758.948380,0.055670
759.248000,0.061995
759.547580,0.062542
759.847120,0.060648
760.146620,0.062246
760.446080,0.063844
760.745500,0.055245
761.044880,0.056818
761.344220,0.059872
761.643520,0.059322
761.942780,0.065080
762.242000,0.059406
762.541180,0.060563
762.840320,0.062500
763.139420,0.057665
763.438480,0.061517
763.737500,0.059269
764.036480,0.064990
764.335420,0.062809
764.634320,0.062370
764.933180,0.065068
765.232000,0.063845
765.530780,0.061053
765.829520,0.065035
766.128220,0.064718
766.426880,0.058991
766.725500,0.067169
767.024080,0.062414
767.322620,0.059474
767.621120,0.064363
767.919580,0.058020
768.218000,0.058140
768.516380,0.066261
768.814720,0.061728
769.113020,0.062026
769.411280,0.063536
769.709500,0.062246
770.007680,0.058623
770.305820,0.066937
770.603920,0.056604
770.901980,0.058743
771.200000,0.061141
771.497980,0.065684
771.795920,0.056856
772.093820,0.060160
772.391680,0.061964
772.689500,0.059459
772.987280,0.060606
773.285020,0.057416
773.582720,0.058784
773.880380,0.062457
774.178000,0.060668
774.475580,0.064970
774.773120,0.054886
775.070620,0.066261
775.368080,0.064128
775.665500,0.060443
775.962880,0.062041
776.260220,0.061911
776.557520,0.063376
776.854780,0.064233
777.152000,0.062997
777.449180,0.062711
777.746320,0.053763
778.043420,0.062756
778.340480,0.059540
778.637500,0.062204
778.934480,0.056490
779.231420,0.061058
779.528320,0.059452
779.825180,0.060606
780.122000,0.059761
780.418780,0.058824
780.715520,0.059691
781.012220,0.060959
781.308880,0.060176
781.605500,0.060274
781.902080,0.063655
782.198620,0.059467
782.495120,0.061043
782.791580,0.061898
783.088000,0.062112
783.384380,0.062586
783.680720,0.065663
783.977020,0.060564
784.273280,0.060839
784.569500,0.062893
784.865680,0.060501
785.161820,0.063194
785.457920,0.061677
785.753980,0.060014
786.050000,0.058702
786.345980,0.061111
786.641920,0.061069
786.937820,0.059829
787.233680,0.061239
787.529500,0.056172
787.825280,0.063031
788.121020,0.061615
788.416720,0.058574
788.712380,0.059944
789.008000,0.060907
789.303580,0.057244
789.599120,0.063273
789.894620,0.062094
790.190080,0.057288
790.485500,0.061915
790.780880,0.057348
791.076220,0.066378
791.371520,0.065359
791.666780,0.062545
791.962000,0.058780
792.257180,0.058565
792.552320,0.064540
792.847420,0.066230
793.142480,0.065934
793.437500,0.062229
793.732480,0.060717
794.027420,0.060831
794.322320,0.064131
794.617180,0.059435
794.912000,0.057949
795.206780,0.062640
795.501520,0.066160
795.796220,0.057037
796.090880,0.058779
796.385500,0.058471
796.680080,0.059835
796.974620,0.065120
797.269120,0.062074
797.563580,0.058015
797.858000,0.064541
798.152380,0.061098
798.446720,0.063846
798.741020,0.069337
799.035280,0.065217
799.329500,0.061586
799.623680,0.067442
