399.985280,0.013514
400.329500,0.040541
400.673680,-0.025316
401.017820,-0.029412
401.361920,-0.045455
401.705980,0.036585
402.050000,0.012987
402.393980,0.082353
402.737920,0.011236
403.081820,0.041237
403.425680,0.011628
403.769500,0.062500
404.113280,0.011494
404.457020,0.033708
404.800720,-0.021739
405.144380,0.040404
405.488000,0.043011
405.831580,0.092784
406.175120,0.010638
406.518620,0.110000
406.862080,0.082474
407.205500,0.052083
407.548880,0.051020
407.892220,0.058824
408.235520,0.074468
408.578780,0.114286
408.922000,0.028846
409.265180,0.080808
409.608320,0.030303
409.951420,0.061856
410.294480,0.098039
410.637500,0.054348
410.980480,0.039216
411.323420,0.061224
411.666320,0.082569
412.009180,0.109091
412.352000,0.019802
412.694780,0.055046
413.037520,0.018349
413.380220,0.063063
413.722880,0.053571
414.065500,0.027027
414.408080,0.008850
414.750620,0.035398
415.093120,0.000000
415.435580,0.067227
415.778000,0.075758
416.120380,0.033613
416.462720,0.039683
416.805020,0.045113
417.147280,0.044776
417.489500,0.071429
417.831680,0.006849
418.173820,0.014184
418.515920,0.000000
418.857980,0.063291
419.200000,0.051282
419.541980,0.082840
419.883920,0.050562
420.225820,0.063584
420.567680,0.055866
420.909500,0.043716
421.251280,0.072917
421.593020,0.061224
421.934720,0.015152
422.276380,0.035897
422.618000,0.053922
422.959580,0.034314
423.301120,0.063927
423.642620,0.047826
423.984080,0.023256
424.325500,0.049327
424.666880,0.051724
425.008220,0.029412
425.349520,0.029661
425.690780,0.026923
426.032000,0.023529
426.373180,0.045643
426.714320,0.046875
427.055420,0.054054
427.396480,0.044944
427.737500,0.039526
428.078480,0.035573
428.419420,0.052209
428.760320,0.053640
429.101180,0.082677
429.442000,0.049808
429.782780,0.034615
430.123520,0.035294
430.464220,0.033210
430.804880,0.072797
431.145500,0.043636
431.486080,0.041199
431.826620,0.058140
432.167120,0.069853
432.507580,0.043478
432.848000,0.050360
433.188380,0.039711
433.528720,0.049057
433.869020,0.050000
434.209280,0.038596
434.549500,0.045296
434.889680,0.047138
435.229820,0.061433
435.569920,0.041522
435.909980,0.061489
436.250000,0.057627
436.589980,0.043344
436.929920,0.057143
437.269820,0.059561
437.609680,0.073964
437.949500,0.048193
438.289280,0.053824
438.629020,0.058140
438.968720,0.055233
439.308380,0.046070
439.648000,0.054795
439.987580,0.068783
440.327120,0.058667
440.666620,0.046753
441.006080,0.058824
441.345500,0.034398
441.684880,0.055024
442.024220,0.044665
442.363520,0.040476
442.702780,0.036364
443.042000,0.026432
443.381180,0.040948
443.720320,0.060475
444.059420,0.056723
444.398480,0.046025
444.737500,0.061475
445.076480,0.045635
445.415420,0.053892
445.754320,0.047817
446.093180,0.042202
446.432000,0.050752
446.770780,0.043643
447.109520,0.066176
447.448220,0.050089
447.786880,0.060823
448.125500,0.051724
448.464080,0.039286
448.802620,0.039007
449.141120,0.051903
449.479580,0.054196
449.818000,0.060241
450.156380,0.046823
450.494720,0.049587
450.833020,0.055944
451.171280,0.047945
451.509500,0.052265
451.847680,0.053963
452.185820,0.056799
452.523920,0.054983
452.861980,0.045531
453.200000,0.048173
453.537980,0.057143
453.875920,0.053782
454.213820,0.046233
454.551680,0.056291
454.889500,0.048904
455.227280,0.044484
455.565020,0.061977
455.902720,0.059900
456.240380,0.039933
456.578000,0.050523
456.915580,0.046632
457.253120,0.054276
457.590620,0.059113
457.928080,0.048822
458.265500,0.043919
458.602880,0.056818
458.940220,0.040609
459.277520,0.044800
459.614780,0.050736
459.952000,0.046584
460.289180,0.047468
460.626320,0.053543
460.963420,0.042003
461.300480,0.055046
461.637500,0.049307
461.974480,0.051988
462.311420,0.043219
462.648320,0.045388
462.985180,0.045911
463.322000,0.040179
463.658780,0.049724
463.995520,0.048143
464.332220,0.048476
464.668880,0.055108
465.005500,0.050938
465.342080,0.056338
465.678620,0.047970
466.015120,0.043984
466.351580,0.046776
466.688000,0.051157
467.024380,0.044957
467.360720,0.052273
467.697020,0.051253
468.033280,0.051111
468.369500,0.047461
468.705680,0.051860
469.041820,0.053125
469.377920,0.047722
469.713980,0.046344
470.050000,0.051208
470.385980,0.050881
470.721920,0.046033
471.057820,0.052632
471.393680,0.045837
471.729500,0.050973
472.065280,0.051878
472.401020,0.049645
472.736720,0.055846
473.072380,0.051167
473.408000,0.047868
473.743580,0.052768
474.079120,0.057709
474.414620,0.052587
474.750080,0.053702
475.085500,0.051809
475.420880,0.049958
475.756220,0.056419
476.091520,0.054561
476.426780,0.053398
476.762000,0.050684
477.097180,0.051200
477.432320,0.051696
477.767420,0.045752
478.102480,0.045669
478.437500,0.049261
478.772480,0.046493
479.107420,0.048007
479.442320,0.046363
479.777180,0.052506
480.112000,0.054700
480.446780,0.049104
480.781520,0.052335
481.116220,0.046888
481.450880,0.053084
481.785500,0.052215
482.120080,0.052508
482.454620,0.055167
482.789120,0.052548
483.123580,0.049844
483.458000,0.047468
483.792380,0.049521
484.126720,0.054054
484.461020,0.056206
484.795280,0.052429
485.129500,0.053001
485.463680,0.054264
485.797820,0.049767
486.131920,0.052028
486.465980,0.049421
486.800000,0.056489
487.133980,0.056647
487.467920,0.055088
487.801820,0.056445
488.135680,0.051554
488.469500,0.050681
488.803280,0.054235
489.137020,0.048352
489.470720,0.051187
489.804380,0.052710
490.138000,0.052671
490.471580,0.050847
490.805120,0.050036
491.138620,0.046198
491.472080,0.057244
491.805500,0.054393
492.138880,0.055594
492.472220,0.056747
492.805520,0.046788
493.138780,0.053756
493.472000,0.055518
493.805180,0.056617
494.138320,0.052702
494.471420,0.054036
494.804480,0.052393
495.137500,0.056483
495.470480,0.055449
495.803420,0.050378
496.136320,0.057644
496.469180,0.050952
496.802000,0.048900
497.134780,0.057004
497.467520,0.059939
497.800220,0.051297
498.132880,0.052322
498.465500,0.055041
498.798080,0.052511
499.130620,0.055025
499.463120,0.056148
499.795580,0.053355
500.128000,0.053406
500.460380,0.051130
500.792720,0.051432
501.125020,0.053074
501.457280,0.050653
501.789500,0.054236
502.121680,0.056506
502.453820,0.053544
502.785920,0.052026
503.117980,0.055447
503.450000,0.056253
503.781980,0.053313
504.113920,0.051209
504.445820,0.055907
504.777680,0.051765
505.109500,0.054327
505.441280,0.052103
505.773020,0.051667
506.104720,0.049929
506.436380,0.056318
506.768000,0.055192
507.099580,0.054920
507.431120,0.051991
507.762620,0.052162
508.094080,0.054695
508.425500,0.055089
508.756880,0.051212
509.088220,0.056578
509.419520,0.054469
509.750780,0.052484
510.082000,0.055970
510.413180,0.054353
510.744320,0.054763
511.075420,0.052704
511.406480,0.051246
511.737500,0.052315
512.068480,0.056391
512.399420,0.051643
512.730320,0.049885
513.061180,0.055186
513.392000,0.051585
513.722780,0.054755
514.053520,0.054624
514.384220,0.054234
514.714880,0.053614
515.045500,0.051245
515.376080,0.053753
515.706620,0.054067
516.037120,0.053431
516.367580,0.050271
516.698000,0.050490
517.028380,0.055114
517.358720,0.053827
517.689020,0.055391
518.019280,0.050677
518.349500,0.051698
518.679680,0.055528
519.009820,0.051619
519.339920,0.061122
519.669980,0.057258
520.000000,0.054508
520.329980,0.053914
520.659920,0.053170
520.989820,0.054696
521.319680,0.058128
521.649500,0.055527
521.979280,0.054802
522.309020,0.050830
522.638720,0.053251
522.968380,0.054292
523.298000,0.053758
523.627580,0.051733
523.957120,0.057662
524.286620,0.053153
524.616080,0.055843
524.945500,0.056848
525.274880,0.056952
525.604220,0.055383
525.933520,0.056080
526.262780,0.051191
526.592000,0.055302
526.921180,0.055866
527.250320,0.052765
527.579420,0.058110
527.908480,0.056130
528.237500,0.055611
528.566480,0.054890
528.895420,0.052242
529.224320,0.054978
529.553180,0.055422
529.882000,0.062287
530.210780,0.054537
530.539520,0.055129
530.868220,0.054572
531.196880,0.053989
531.525500,0.056174
531.854080,0.055347
532.182620,0.056983
532.511120,0.053828
532.839580,0.054900
533.168000,0.058341
533.496380,0.055251
533.824720,0.056976
534.153020,0.057958
534.481280,0.057269
534.809500,0.057608
535.137680,0.055990
535.465820,0.057560
535.793920,0.058799
536.121980,0.057910
536.450000,0.056237
536.777980,0.057394
537.105920,0.058115
537.433820,0.057283
537.761680,0.062041
538.089500,0.057467
538.417280,0.058098
538.745020,0.056260
539.072720,0.054276
539.400380,0.058664
539.728000,0.059273
540.055580,0.055056
540.383120,0.057334
540.710620,0.054687
541.038080,0.055699
541.365500,0.055515
541.692880,0.054869
542.020220,0.056135
542.347520,0.059584
542.674780,0.055752
543.002000,0.055633
543.329180,0.056121
543.656320,0.057665
543.983420,0.054359
544.310480,0.058784
544.637500,0.056977
544.964480,0.053499
545.291420,0.058159
545.618320,0.058433
545.945180,0.058009
546.272000,0.056029
546.598780,0.055719
546.925520,0.058358
547.252220,0.055464
547.578880,0.056696
547.905500,0.056209
548.232080,0.057180
548.558620,0.057598
548.885120,0.055937
549.211580,0.057216
549.538000,0.057717
549.864380,0.059164
550.190720,0.056183
550.517020,0.055085
550.843280,0.059609
551.169500,0.057252
551.495680,0.056176
551.821820,0.057805
552.147920,0.057580
552.473980,0.055976
552.800000,0.052649
553.125980,0.056974
553.451920,0.058062
553.777820,0.059627
554.103680,0.056960
554.429500,0.057583
554.755280,0.054406
555.081020,0.058155
555.406720,0.055875
555.732380,0.053880
556.058000,0.061100
556.383580,0.057515
556.709120,0.057547
557.034620,0.056149
557.360080,0.057340
557.685500,0.056017
558.010880,0.055113
558.336220,0.055536
558.661520,0.056363
558.986780,0.058824
559.312000,0.058761
559.637180,0.054937
559.962320,0.055180
560.287420,0.061001
560.612480,0.057409
560.937500,0.054699
561.262480,0.058284
561.587420,0.057309
561.912320,0.059322
562.237180,0.058845
562.562000,0.054246
562.886780,0.059829
563.211520,0.057377
563.536220,0.058998
563.860880,0.056960
564.185500,0.058161
564.510080,0.057938
564.834620,0.061407
565.159120,0.057143
565.483580,0.057013
565.808000,0.060537
566.132380,0.062290
566.456720,0.057067
566.781020,0.057014
567.105280,0.057089
567.429500,0.058801
567.753680,0.056770
568.077820,0.056823
568.401920,0.058060
568.725980,0.060721
569.050000,0.059696
569.373980,0.059003
569.697920,0.054987
570.021820,0.057678
570.345680,0.058553
570.669500,0.056849
570.993280,0.060170
571.317020,0.056266
571.640720,0.057058
571.964380,0.055308
572.288000,0.059347
572.611580,0.064395
572.935120,0.059484
573.258620,0.060209
573.582080,0.058495
573.905500,0.058824
574.228880,0.059020
574.552220,0.056797
574.875520,0.058079
575.198780,0.057102
575.522000,0.057918
575.845180,0.057307
576.168320,0.060007
576.491420,0.058503
576.814480,0.058228
577.137500,0.059163
577.460480,0.059442
577.783420,0.056449
578.106320,0.058761
578.429180,0.057618
578.752000,0.056617
579.074780,0.058665
579.397520,0.060362
579.720220,0.058880
580.042880,0.059134
580.365500,0.061549
580.688080,0.059362
581.010620,0.060412
581.333120,0.058450
581.655580,0.059274
581.978000,0.058530
582.300380,0.059721
582.622720,0.060316
582.945020,0.057867
583.267280,0.061218
583.589500,0.060032
583.911680,0.058749
584.233820,0.059175
584.555920,0.063662
584.877980,0.056533
585.200000,0.059853
585.521980,0.057461
585.843920,0.059793
586.165820,0.057892
586.487680,0.060788
586.809500,0.058806
587.131280,0.061224
587.453020,0.059821
587.774720,0.058841
588.096380,0.060385
588.418000,0.058531
588.739580,0.059212
589.061120,0.062105
589.382620,0.060458
589.704080,0.059748
590.025500,0.059361
590.346880,0.060146
590.668220,0.058527
590.989520,0.059623
591.310780,0.060204
591.632000,0.061475
591.953180,0.061445
592.274320,0.057330
592.595420,0.059267
592.916480,0.061396
593.237500,0.059283
593.558480,0.061878
593.879420,0.058538
594.200320,0.059737
594.521180,0.060823
594.842000,0.060989
595.162780,0.056891
595.483520,0.057432
595.804220,0.055317
596.124880,0.060218
596.445500,0.059995
596.766080,0.059425
597.086620,0.059979
597.407120,0.058715
597.727580,0.059931
598.048000,0.060302
598.368380,0.056286
598.688720,0.058978
599.009020,0.057059
599.329280,0.060671
599.649500,0.058901
599.969680,0.058226
600.289820,0.058761
600.609920,0.059578
600.929980,0.057189
601.250000,0.059730
601.569980,0.059411
601.889920,0.059342
602.209820,0.061418
602.529680,0.061247
602.849500,0.060556
603.169280,0.058418
603.489020,0.059231
603.808720,0.058694
604.128380,0.058499
604.448000,0.057459
604.767580,0.058380
605.087120,0.060665
605.406620,0.061293
605.726080,0.060736
606.045500,0.059069
606.364880,0.060108
606.684220,0.061108
607.003520,0.059920
607.322780,0.058556
607.642000,0.059736
607.961180,0.058687
608.280320,0.060325
608.599420,0.058806
608.918480,0.056305
609.237500,0.061620
609.556480,0.058005
609.875420,0.059953
610.194320,0.060821
610.513180,0.064516
610.832000,0.059559
611.150780,0.059477
611.469520,0.061237
611.788220,0.060157
612.106880,0.062726
612.425500,0.061815
612.744080,0.060942
613.062620,0.057492
613.381120,0.060329
613.699580,0.062845
614.018000,0.061425
614.336380,0.058606
614.654720,0.058915
614.973020,0.058315
615.291280,0.061357
615.609500,0.063708
615.927680,0.059333
616.245820,0.060915
616.563920,0.059683
616.881980,0.061116
617.200000,0.062208
617.517980,0.060050
617.835920,0.058403
618.153820,0.057196
618.471680,0.058605
618.789500,0.061045
619.107280,0.058842
619.425020,0.061846
619.742720,0.061205
620.060380,0.060169
620.378000,0.061045
620.695580,0.059706
621.013120,0.057323
621.330620,0.061814
621.648080,0.058991
621.965500,0.062108
622.282880,0.060845
622.600220,0.060328
622.917520,0.060491
623.234780,0.060431
623.552000,0.059198
623.869180,0.058620
624.186320,0.060172
624.503420,0.061129
624.820480,0.060320
625.137500,0.059046
625.454480,0.061269
625.771420,0.060214
626.088320,0.058323
626.405180,0.061917
626.722000,0.061794
627.038780,0.058897
627.355520,0.061875
627.672220,0.060031
627.988880,0.058787
628.305500,0.061078
628.622080,0.062268
628.938620,0.062691
629.255120,0.062539
629.571580,0.059148
629.888000,0.061369
630.204380,0.058914
630.520720,0.059110
630.837020,0.060746
631.153280,0.061751
631.469500,0.060946
631.785680,0.059976
632.101820,0.059107
632.417920,0.058420
632.733980,0.058223
633.050000,0.062462
633.365980,0.060166
633.681920,0.059368
633.997820,0.060669
634.313680,0.059864
634.629500,0.060159
634.945280,0.060997
635.261020,0.061344
635.576720,0.058720
635.892380,0.057798
636.208000,0.061011
636.523580,0.062262
636.839120,0.061378
637.154620,0.062029
637.470080,0.059397
637.785500,0.062427
638.100880,0.058500
638.416220,0.058671
638.731520,0.061891
639.046780,0.061462
639.362000,0.061927
639.677180,0.060537
639.992320,0.058641
640.307420,0.063501
640.622480,0.061607
640.937500,0.060749
641.252480,0.063390
641.567420,0.058255
641.882320,0.061526
642.197180,0.061202
642.512000,0.059334
642.826780,0.062413
643.141520,0.062240
643.456220,0.061704
643.770880,0.061083
644.085500,0.062605
644.400080,0.062640
644.714620,0.062430
645.029120,0.062706
645.343580,0.060066
645.658000,0.060505
645.972380,0.057824
646.286720,0.062960
646.601020,0.061722
646.915280,0.063066
647.229500,0.060989
647.543680,0.061309
647.857820,0.059730
648.171920,0.061584
648.485980,0.061387
648.800000,0.060898
649.113980,0.061253
649.427920,0.063800
649.741820,0.059082
650.055680,0.060889
650.369500,0.062780
650.683280,0.061321
650.997020,0.060781
651.310720,0.058613
651.624380,0.057967
651.938000,0.059834
652.251580,0.059560
652.565120,0.060928
652.878620,0.062782
653.192080,0.062079
653.505500,0.061431
653.818880,0.061416
654.132220,0.061236
654.445520,0.062677
654.758780,0.060907
655.072000,0.059312
655.385180,0.059344
655.698320,0.059160
656.011420,0.060476
656.324480,0.059166
656.637500,0.060545
656.950480,0.059307
657.263420,0.057937
657.576320,0.057219
657.889180,0.061929
658.202000,0.057971
658.514780,0.061328
658.827520,0.060924
659.140220,0.061432
659.452880,0.060405
659.765500,0.062312
660.078080,0.058381
660.390620,0.060800
660.703120,0.058356
661.015580,0.058589
661.328000,0.062972
661.640380,0.059025
661.952720,0.062909
662.265020,0.060491
662.577280,0.063295
662.889500,0.063702
663.201680,0.060944
663.513820,0.057253
663.825920,0.058598
664.137980,0.061086
664.450000,0.060742
664.761980,0.060884
665.073920,0.060045
665.385820,0.059882
665.697680,0.058512
666.009500,0.060525
666.321280,0.063618
666.633020,0.064495
666.944720,0.061341
667.256380,0.060229
667.568000,0.059783
667.879580,0.061224
668.191120,0.061813
668.502620,0.061965
668.814080,0.057193
669.125500,0.057817
669.436880,0.061895
669.748220,0.063690
670.059520,0.060574
670.370780,0.061587
670.682000,0.059115
670.993180,0.059901
671.304320,0.061181
671.615420,0.059659
671.926480,0.058907
672.237500,0.061451
672.548480,0.061746
672.859420,0.061830
673.170320,0.059485
673.481180,0.059377
673.792000,0.058060
674.102780,0.061759
674.413520,0.059789
674.724220,0.061343
675.034880,0.062706
675.345500,0.060175
675.656080,0.060980
675.966620,0.063296
676.277120,0.063347
676.587580,0.062224
676.898000,0.060470
677.208380,0.058410
677.518720,0.057622
677.829020,0.063562
678.139280,0.060415
678.449500,0.061270
678.759680,0.065568
679.069820,0.059480
679.379920,0.061109
679.689980,0.061641
680.000000,0.056822
680.309980,0.057906
680.619920,0.059826
680.929820,0.063083
681.239680,0.060561
681.549500,0.060741
681.859280,0.060493
682.169020,0.062290
682.478720,0.060209
682.788380,0.057217
683.098000,0.061705
683.407580,0.057036
683.717120,0.059685
684.026620,0.063253
684.336080,0.060250
684.645500,0.055743
684.954880,0.058935
685.264220,0.063043
685.573520,0.062429
685.882780,0.063291
686.192000,0.061324
686.501180,0.062051
686.810320,0.062644
687.119420,0.060813
687.428480,0.058868
687.737500,0.061013
688.046480,0.061350
688.355420,0.061863
688.664320,0.061209
688.973180,0.065467
689.282000,0.060957
689.590780,0.061733
689.899520,0.059628
690.208220,0.062691
690.516880,0.061092
690.825500,0.060755
691.134080,0.059605
691.442620,0.058308
691.751120,0.062192
692.059580,0.061903
692.368000,0.061340
692.676380,0.061450
692.984720,0.058015
693.293020,0.062310
693.601280,0.059519
693.909500,0.062807
694.217680,0.060548
694.525820,0.063595
694.833920,0.062190
695.141980,0.059776
695.450000,0.062214
695.757980,0.064935
696.065920,0.060971
696.373820,0.060816
696.681680,0.059839
696.989500,0.063296
697.297280,0.061066
697.605020,0.062698
697.912720,0.061107
698.220380,0.061787
698.528000,0.064082
698.835580,0.064006
699.143120,0.061185
699.450620,0.060859
699.758080,0.061176
700.065500,0.061852
700.372880,0.060800
700.680220,0.059035
700.987520,0.061508
701.294780,0.062449
701.602000,0.059033
701.909180,0.062003
702.216320,0.061791
702.523420,0.059984
702.830480,0.061782
703.137500,0.062744
703.444480,0.066667
703.751420,0.061538
704.058320,0.059755
704.365180,0.062697
704.672000,0.061782
704.978780,0.058525
705.285520,0.060642
705.592220,0.058824
705.898880,0.062648
706.205500,0.057121
706.512080,0.060427
706.818620,0.061920
707.125120,0.063846
707.431580,0.061743
707.738000,0.060547
708.044380,0.059437
708.350720,0.058464
708.657020,0.064088
708.963280,0.062500
709.269500,0.062231
709.575680,0.064047
709.881820,0.059355
710.187920,0.061089
710.493980,0.063227
710.800000,0.060259
711.105980,0.060241
711.411920,0.063067
711.717820,0.060429
712.023680,0.060630
712.329500,0.061909
712.635280,0.063566
712.941020,0.061075
713.246720,0.063241
713.552380,0.062794
713.858000,0.060702
714.163580,0.061563
714.469120,0.059007
714.774620,0.059218
715.080080,0.063212
715.385500,0.060751
715.690880,0.059566
715.996220,0.061410
716.301520,0.062451
716.606780,0.060928
716.912000,0.060178
717.217180,0.060255
717.522320,0.060437
717.827420,0.065907
718.132480,0.060217
718.437500,0.060334
718.742480,0.062903
719.047420,0.065129
719.352320,0.063097
719.657180,0.061733
719.962000,0.061621
720.266780,0.063565
720.571520,0.060895
720.876220,0.063011
721.180880,0.062291
721.485500,0.061429
721.790080,0.059873
722.094620,0.064751
722.399120,0.062042
722.703580,0.062580
723.008000,0.064683
723.312380,0.059406
723.616720,0.061198
723.921020,0.061065
724.225280,0.058464
724.529500,0.061296
724.833680,0.065391
725.137820,0.063436
725.441920,0.061971
725.745980,0.062640
726.050000,0.060442
726.353980,0.059937
726.657920,0.061179
726.961820,0.062557
727.265680,0.062413
727.569500,0.062157
727.873280,0.057275
728.177020,0.064026
728.480720,0.061574
728.784380,0.067168
729.088000,0.056524
729.391580,0.061582
729.695120,0.062860
729.998620,0.064532
730.302080,0.061989
730.605500,0.057254
730.908880,0.058795
731.212220,0.060235
731.515520,0.057533
731.818780,0.060680
732.122000,0.057087
732.425180,0.060621
732.728320,0.060486
733.031420,0.058647
733.334480,0.058163
733.637500,0.058468
733.940480,0.060389
734.243420,0.063710
734.546320,0.065353
734.849180,0.062500
735.152000,0.059647
735.454780,0.059917
735.757520,0.060063
736.060220,0.063718
736.362880,0.062500
736.665500,0.059530
736.968080,0.064481
737.270620,0.060425
737.573120,0.061681
737.875580,0.062672
738.178000,0.060425
738.480380,0.060541
738.782720,0.061614
739.085020,0.061674
739.387280,0.057650
739.689500,0.065685
739.991680,0.065132
740.293820,0.063571
740.595920,0.065109
740.897980,0.063241
741.200000,0.062815
741.501980,0.061891
741.803920,0.059122
742.105820,0.059786
742.407680,0.058824
742.709500,0.057955
743.011280,0.060961
743.313020,0.064928
743.614720,0.056878
743.916380,0.056395
744.218000,0.065632
744.519580,0.060386
744.821120,0.061677
745.122620,0.059317
745.424080,0.058293
745.725500,0.068196
746.026880,0.057266
746.328220,0.059186
746.629520,0.060807
746.930780,0.062500
747.232000,0.058246
747.533180,0.063453
747.834320,0.063299
748.135420,0.064015
748.436480,0.061759
748.737500,0.059296
749.038480,0.062309
749.339420,0.060983
749.640320,0.060339
749.941180,0.061836
750.242000,0.060930
750.542780,0.063896
750.843520,0.065983
751.144220,0.062179
751.444880,0.064046
751.745500,0.055195
752.046080,0.061578
752.346620,0.054124
752.647120,0.056826
752.947580,0.062743
753.248000,0.062540
753.548380,0.060507
753.848720,0.059240
754.149020,0.056093
754.449280,0.066316
754.749500,0.057731
755.049680,0.058667
755.349820,0.060707
755.649920,0.064772
755.949980,0.062376
756.250000,0.065089
756.549980,0.056106
756.849920,0.065942
757.149820,0.064538
757.449680,0.062046
757.749500,0.059986
758.049280,0.065529
758.349020,0.059805
758.648720,0.061422
758.948380,0.057045
759.248000,0.059299
759.547580,0.058507
759.847120,0.060648
760.146620,0.063599
760.446080,0.064516
760.745500,0.056643
761.044880,0.060369
761.344220,0.060584
761.643520,0.060734
761.942780,0.062281
762.242000,0.069307
762.541180,0.060563
762.840320,0.061798
763.139420,0.059775
763.438480,0.058100
763.737500,0.061337
764.036480,0.064990
764.335420,0.055752
764.634320,0.060291
764.933180,0.064384
765.232000,0.063845
765.530780,0.059649
765.829520,0.067133
766.128220,0.066110
766.426880,0.061834
766.725500,0.063742
767.024080,0.062414
767.322620,0.060166
767.621120,0.062331
767.919580,0.057338
768.218000,0.058824
768.516380,0.064909
768.814720,0.061043
769.113020,0.062026
769.411280,0.068370
769.709500,0.061570
770.007680,0.059305
770.305820,0.068966
770.603920,0.059973
770.901980,0.062842
771.200000,0.063179
771.497980,0.062332
771.795920,0.058194
772.093820,0.057487
772.391680,0.059987
772.689500,0.055405
772.987280,0.059933
773.285020,0.065619
773.582720,0.059459
773.880380,0.057653
774.178000,0.056578
774.475580,0.060281
774.773120,0.058902
775.070620,0.064233
775.368080,0.063460
775.665500,0.058428
775.962880,0.061374
776.260220,0.061238
776.557520,0.062708
776.854780,0.061528
777.152000,0.055040
777.449180,0.064059
777.746320,0.057796
778.043420,0.064120
778.340480,0.065629
778.637500,0.066937
778.934480,0.065232
779.231420,0.056988
779.528320,0.062124
779.825180,0.061924
780.122000,0.057769
780.418780,0.060192
780.715520,0.062374
781.012220,0.065753
781.308880,0.063556
781.605500,0.059589
781.902080,0.060233
782.198620,0.066302
782.495120,0.058299
782.791580,0.064649
783.088000,0.064182
783.384380,0.065337
783.680720,0.063611
783.977020,0.061253
784.273280,0.064336
784.569500,0.064990
784.865680,0.067455
785.161820,0.061111
785.457920,0.058212
785.753980,0.060014
786.050000,0.058702
786.345980,0.063194
786.641920,0.068008
786.937820,0.065527
787.233680,0.061935
787.529500,0.062413
787.825280,0.064448
788.121020,0.058782
788.416720,0.060692
788.712380,0.059944
789.008000,0.056657
789.303580,0.055830
789.599120,0.063273
789.894620,0.067870
790.190080,0.065990
790.485500,0.060475
790.780880,0.057348
791.076220,0.061328
791.371520,0.063907
791.666780,0.064000
791.962000,0.063924
792.257180,0.064422
792.552320,0.063089
792.847420,0.064774
793.142480,0.059341
793.437500,0.060781
793.732480,0.065838
794.027420,0.058605
794.322320,0.062640
794.617180,0.060178
794.912000,0.058692
795.206780,0.057420
795.501520,0.060837
795.796220,0.063704
796.090880,0.061794
796.385500,0.062219
796.680080,0.064323
796.974620,0.067365
797.269120,0.062074
797.563580,0.064885
797.858000,0.066819
798.152380,0.062645
798.446720,0.061538
798.741020,0.060092
799.035280,0.062112
799.329500,0.066975
799.623680,0.061240
