399.985280,0.000000
400.329500,0.094595
400.673680,0.012658
401.017820,-0.014706
401.361920,-0.030303
401.705980,0.012195
402.050000,0.038961
402.393980,0.047059
402.737920,0.033708
403.081820,0.123711
403.425680,0.046512
403.769500,-0.031250
404.113280,0.011494
404.457020,0.044944
404.800720,0.032609
405.144380,0.090909
405.488000,0.053763
405.831580,0.030928
406.175120,-0.021277
406.518620,0.040000
406.862080,0.041237
407.205500,0.010417
407.548880,0.102041
407.892220,0.098039
408.235520,0.063830
408.578780,0.095238
408.922000,0.019231
409.265180,0.060606
409.608320,0.060606
409.951420,0.082474
410.294480,0.137255
410.637500,0.032609
410.980480,0.058824
411.323420,0.071429
411.666320,0.055046
412.009180,0.081818
412.352000,0.019802
412.694780,0.128440
413.037520,0.036697
413.380220,0.063063
413.722880,0.035714
414.065500,0.072072
414.408080,0.044248
414.750620,0.070796
415.093120,0.041322
415.435580,0.067227
415.778000,0.083333
416.120380,0.025210
416.462720,0.031746
416.805020,0.045113
417.147280,0.029851
417.489500,0.057143
417.831680,0.054795
418.173820,0.049645
418.515920,0.055944
418.857980,0.088608
419.200000,0.038462
419.541980,0.053254
419.883920,0.056180
420.225820,0.040462
420.567680,0.039106
420.909500,0.071038
421.251280,0.078125
421.593020,0.056122
421.934720,0.020202
422.276380,0.041026
422.618000,0.068627
422.959580,0.058824
423.301120,0.050228
423.642620,0.039130
423.984080,0.023256
424.325500,0.067265
424.666880,0.064655
425.008220,0.033613
425.349520,0.033898
425.690780,0.042308
426.032000,0.047059
426.373180,0.033195
426.714320,0.074219
427.055420,0.057915
427.396480,0.074906
427.737500,0.031621
428.078480,0.051383
428.419420,0.048193
428.760320,0.038314
429.101180,0.062992
429.442000,0.030651
429.782780,0.030769
430.123520,0.047059
430.464220,0.047970
430.804880,0.065134
431.145500,0.036364
431.486080,0.052434
431.826620,0.046512
432.167120,0.055147
432.507580,0.072464
432.848000,0.043165
433.188380,0.046931
433.528720,0.026415
433.869020,0.046429
434.209280,0.024561
434.549500,0.059233
434.889680,0.060606
435.229820,0.040956
435.569920,0.038062
435.909980,0.045307
436.250000,0.064407
436.589980,0.055728
436.929920,0.057143
437.269820,0.053292
437.609680,0.065089
437.949500,0.042169
438.289280,0.067989
438.629020,0.078488
438.968720,0.052326
439.308380,0.056911
439.648000,0.063014
439.987580,0.039683
440.327120,0.042667
440.666620,0.049351
441.006080,0.056266
441.345500,0.039312
441.684880,0.055024
442.024220,0.039702
442.363520,0.030952
442.702780,0.034091
443.042000,0.044053
443.381180,0.066810
443.720320,0.062635
444.059420,0.039916
444.398480,0.033473
444.737500,0.051230
445.076480,0.051587
445.415420,0.047904
445.754320,0.037422
446.093180,0.053211
446.432000,0.052632
446.770780,0.043643
447.109520,0.051471
447.448220,0.060823
447.786880,0.051878
448.125500,0.065517
448.464080,0.053571
448.802620,0.058511
449.141120,0.048443
449.479580,0.048951
449.818000,0.046472
450.156380,0.051839
450.494720,0.052893
450.833020,0.048951
451.171280,0.037671
451.509500,0.050523
451.847680,0.050590
452.185820,0.049914
452.523920,0.053265
452.861980,0.047218
453.200000,0.056478
453.537980,0.050420
453.875920,0.057143
454.213820,0.039384
454.551680,0.052980
454.889500,0.048904
455.227280,0.042705
455.565020,0.051926
455.902720,0.059900
456.240380,0.031614
456.578000,0.048780
456.915580,0.051813
457.253120,0.046053
457.590620,0.050903
457.928080,0.057239
458.265500,0.060811
458.602880,0.053571
458.940220,0.043993
459.277520,0.060800
459.614780,0.054010
459.952000,0.049689
460.289180,0.056962
460.626320,0.044094
460.963420,0.048465
461.300480,0.050459
461.637500,0.044684
461.974480,0.056575
462.311420,0.043219
462.648320,0.046852
462.985180,0.045911
463.322000,0.046131
463.658780,0.051105
463.995520,0.045392
464.332220,0.049861
464.668880,0.051075
465.005500,0.046917
465.342080,0.052497
465.678620,0.051661
466.015120,0.050453
466.351580,0.049305
466.688000,0.049939
467.024380,0.049818
467.360720,0.044318
467.697020,0.052392
468.033280,0.057778
468.369500,0.050773
468.705680,0.052988
469.041820,0.050000
469.377920,0.047722
469.713980,0.050463
470.050000,0.058937
470.385980,0.051859
470.721920,0.047013
471.057820,0.045809
471.393680,0.053321
471.729500,0.050046
472.065280,0.050984
472.401020,0.053191
472.736720,0.046248
473.072380,0.049372
473.408000,0.044386
473.743580,0.048443
474.079120,0.052541
474.414620,0.049194
474.750080,0.050448
475.085500,0.050164
475.420880,0.049126
475.756220,0.051513
476.091520,0.051151
476.426780,0.052589
476.762000,0.048270
477.097180,0.053600
477.432320,0.053312
477.767420,0.051471
478.102480,0.052756
478.437500,0.052545
478.772480,0.051221
479.107420,0.048007
479.442320,0.047162
479.777180,0.052506
480.112000,0.054700
480.446780,0.048324
480.781520,0.049919
481.116220,0.051738
481.450880,0.051522
481.785500,0.050633
482.120080,0.052508
482.454620,0.057498
482.789120,0.048567
483.123580,0.049844
483.458000,0.050633
483.792380,0.050319
484.126720,0.050193
484.461020,0.050742
484.795280,0.053971
485.129500,0.053001
485.463680,0.051938
485.797820,0.059876
486.131920,0.049732
486.465980,0.050965
486.800000,0.053435
487.133980,0.051360
487.467920,0.052028
487.801820,0.052632
488.135680,0.056861
488.469500,0.050681
488.803280,0.054978
489.137020,0.054212
489.470720,0.056380
489.804380,0.056422
490.138000,0.053412
490.471580,0.053795
490.805120,0.050036
491.138620,0.050462
491.472080,0.052297
491.805500,0.054393
492.138880,0.053509
492.472220,0.050519
492.805520,0.051676
493.138780,0.054445
493.472000,0.055518
493.805180,0.053206
494.138320,0.053369
494.471420,0.053385
494.804480,0.052393
495.137500,0.057766
495.470480,0.057999
495.803420,0.051008
496.136320,0.053885
496.469180,0.057704
496.802000,0.051956
497.134780,0.055185
497.467520,0.056881
497.800220,0.051297
498.132880,0.052322
498.465500,0.055620
498.798080,0.050799
499.130620,0.056148
499.463120,0.057271
499.795580,0.053355
500.128000,0.057221
500.460380,0.051668
500.792720,0.051432
501.125020,0.053074
501.457280,0.057441
501.789500,0.053719
502.121680,0.058061
502.453820,0.055584
502.785920,0.051026
503.117980,0.055937
503.450000,0.054244
503.781980,0.053313
504.113920,0.051683
504.445820,0.052504
504.777680,0.048471
505.109500,0.052404
505.441280,0.053059
505.773020,0.054486
506.104720,0.056053
506.436380,0.052059
506.768000,0.055659
507.099580,0.053547
507.431120,0.056206
507.762620,0.054511
508.094080,0.056518
508.425500,0.057890
508.756880,0.054412
509.088220,0.053818
509.419520,0.054004
509.750780,0.051078
510.082000,0.055037
510.413180,0.054353
510.744320,0.055683
511.075420,0.051787
511.406480,0.050776
511.737500,0.056481
512.068480,0.054981
512.399420,0.050704
512.730320,0.049885
513.061180,0.048049
513.392000,0.054425
513.722780,0.054275
514.053520,0.053666
514.384220,0.053758
514.714880,0.054093
515.045500,0.050766
515.376080,0.054722
515.706620,0.049683
516.037120,0.053922
516.367580,0.051257
516.698000,0.050490
517.028380,0.057597
517.358720,0.051852
517.689020,0.056380
518.019280,0.054190
518.349500,0.055246
518.679680,0.053508
519.009820,0.052632
519.339920,0.062124
519.669980,0.054244
520.000000,0.055018
520.329980,0.053396
520.659920,0.053681
520.989820,0.056244
521.319680,0.056584
521.649500,0.056041
521.979280,0.055324
522.309020,0.052386
522.638720,0.050691
522.968380,0.059979
523.298000,0.052192
523.627580,0.055354
523.957120,0.057143
524.286620,0.055758
524.616080,0.057911
524.945500,0.057881
525.274880,0.054387
525.604220,0.056418
525.933520,0.053459
526.262780,0.051698
526.592000,0.055302
526.921180,0.058405
527.250320,0.055809
527.579420,0.058615
527.908480,0.055638
528.237500,0.054121
528.566480,0.055888
528.895420,0.058650
529.224320,0.054978
529.553180,0.053494
529.882000,0.061314
530.210780,0.050676
530.539520,0.053212
530.868220,0.052657
531.196880,0.056378
531.525500,0.058111
531.854080,0.056285
532.182620,0.054180
532.511120,0.056148
532.839580,0.055808
533.168000,0.055606
533.496380,0.060731
533.824720,0.060117
534.153020,0.057512
534.481280,0.058150
534.809500,0.055849
535.137680,0.058160
535.465820,0.060137
535.793920,0.054992
536.121980,0.056232
536.450000,0.057505
536.777980,0.058651
537.105920,0.055625
537.433820,0.058511
537.761680,0.059592
538.089500,0.056657
538.417280,0.054914
538.745020,0.057448
539.072720,0.056228
539.400380,0.055944
539.728000,0.059273
540.055580,0.056929
540.383120,0.055845
540.710620,0.058408
541.038080,0.056437
541.365500,0.056250
541.692880,0.055596
542.020220,0.054696
542.347520,0.058148
542.674780,0.055046
543.002000,0.059132
543.329180,0.058927
543.656320,0.057314
543.983420,0.054017
544.310480,0.056065
544.637500,0.059707
544.964480,0.057201
545.291420,0.056165
545.618320,0.060425
545.945180,0.058009
546.272000,0.056029
546.598780,0.056375
546.925520,0.056380
547.252220,0.055464
547.578880,0.058977
547.905500,0.058824
548.232080,0.058155
548.558620,0.058575
548.885120,0.054629
549.211580,0.056252
549.538000,0.057069
549.864380,0.055627
550.190720,0.057798
550.517020,0.057692
550.843280,0.058306
551.169500,0.058206
551.495680,0.057162
551.821820,0.058132
552.147920,0.059206
552.473980,0.055976
552.800000,0.056246
553.125980,0.059921
553.451920,0.057399
553.777820,0.057628
554.103680,0.054264
554.429500,0.058252
554.755280,0.056409
555.081020,0.055481
555.406720,0.055875
555.732380,0.055236
556.058000,0.057366
556.383580,0.053749
556.709120,0.056857
557.034620,0.055804
557.360080,0.058031
557.685500,0.055325
558.010880,0.056153
558.336220,0.055536
558.661520,0.058135
558.986780,0.057406
559.312000,0.059117
559.637180,0.053501
559.962320,0.057672
560.287420,0.056417
560.612480,0.056333
560.937500,0.056167
561.262480,0.056818
561.587420,0.056583
561.912320,0.056006
562.237180,0.055514
562.562000,0.053872
562.886780,0.057599
563.211520,0.060358
563.536220,0.056772
563.860880,0.056205
564.185500,0.060038
564.510080,0.057186
564.834620,0.057685
565.159120,0.054135
565.483580,0.056252
565.808000,0.054105
566.132380,0.060425
566.456720,0.056689
566.781020,0.057764
567.105280,0.059735
567.429500,0.056904
567.753680,0.057537
568.077820,0.056823
568.401920,0.059587
568.725980,0.056926
569.050000,0.057795
569.373980,0.058622
569.697920,0.058020
570.021820,0.056929
570.345680,0.059319
570.669500,0.056085
570.993280,0.060539
571.317020,0.058458
571.640720,0.058170
571.964380,0.056793
572.288000,0.060460
572.611580,0.058031
572.935120,0.056117
573.258620,0.057592
573.582080,0.058495
573.905500,0.057334
574.228880,0.059391
574.552220,0.058996
574.875520,0.059568
575.198780,0.056740
575.522000,0.061217
575.845180,0.055158
576.168320,0.057492
576.491420,0.060320
576.814480,0.058590
577.137500,0.062049
577.460480,0.057267
577.783420,0.057878
578.106320,0.057692
578.429180,0.062566
578.752000,0.058006
579.074780,0.056642
579.397520,0.057456
579.720220,0.059846
580.042880,0.058143
580.365500,0.059563
580.688080,0.062415
581.010620,0.061087
581.333120,0.060788
581.655580,0.061605
581.978000,0.058198
582.300380,0.059072
582.622720,0.058998
582.945020,0.059168
583.267280,0.058613
583.589500,0.058427
583.911680,0.059066
584.233820,0.059175
584.555920,0.059565
584.877980,0.060302
585.200000,0.060160
585.521980,0.061477
585.843920,0.058877
586.165820,0.058501
586.487680,0.058682
586.809500,0.057306
587.131280,0.061224
587.453020,0.059821
587.774720,0.058250
588.096380,0.058343
588.418000,0.059994
588.739580,0.060650
589.061120,0.060380
589.382620,0.058166
589.704080,0.061150
590.025500,0.059361
590.346880,0.058179
590.668220,0.059647
590.989520,0.057682
591.310780,0.061033
591.632000,0.058470
591.953180,0.058954
592.274320,0.058422
592.595420,0.059537
592.916480,0.059766
593.237500,0.059014
593.558480,0.059457
593.879420,0.057998
594.200320,0.060273
594.521180,0.059230
594.842000,0.061257
595.162780,0.057692
595.483520,0.059027
595.804220,0.057465
596.124880,0.062084
596.445500,0.056589
596.766080,0.061038
597.086620,0.060244
597.407120,0.059768
597.727580,0.059666
598.048000,0.059773
598.368380,0.058653
598.688720,0.059240
599.009020,0.058917
599.329280,0.060937
599.649500,0.060486
599.969680,0.061165
600.289820,0.063568
600.609920,0.059044
600.929980,0.059594
601.250000,0.059730
601.569980,0.057521
601.889920,0.060412
602.209820,0.059253
602.529680,0.057676
602.849500,0.061648
603.169280,0.060898
603.489020,0.057847
603.808720,0.058694
604.128380,0.059879
604.448000,0.057735
604.767580,0.058939
605.087120,0.058726
605.406620,0.059894
605.726080,0.058740
606.045500,0.057119
606.364880,0.058974
606.684220,0.059395
607.003520,0.057913
607.322780,0.059125
607.642000,0.058874
607.961180,0.058109
608.280320,0.056555
608.599420,0.056779
608.918480,0.057478
609.237500,0.061033
609.556480,0.062149
609.875420,0.060248
610.194320,0.062002
610.513180,0.062445
610.832000,0.061048
611.150780,0.059778
611.469520,0.059125
611.788220,0.057134
612.106880,0.060314
612.425500,0.058161
612.744080,0.059403
613.062620,0.059939
613.381120,0.058501
613.699580,0.060086
614.018000,0.060504
614.336380,0.059531
614.654720,0.060155
614.973020,0.058315
615.291280,0.062287
615.609500,0.059588
615.927680,0.059642
616.245820,0.060297
616.563920,0.063724
616.881980,0.060804
617.200000,0.059720
617.517980,0.056627
617.835920,0.057161
618.153820,0.060305
618.471680,0.059845
618.789500,0.061989
619.107280,0.061346
619.425020,0.062163
619.742720,0.059008
620.060380,0.058602
620.378000,0.059471
620.695580,0.061622
621.013120,0.058583
621.330620,0.055224
621.648080,0.059937
621.965500,0.058971
622.282880,0.059269
622.600220,0.059381
622.917520,0.056396
623.234780,0.060431
623.552000,0.061426
623.869180,0.058304
624.186320,0.061445
624.503420,0.062069
624.820480,0.060949
625.137500,0.059994
625.454480,0.060957
625.771420,0.058953
626.088320,0.061791
626.405180,0.059739
626.722000,0.059285
627.038780,0.059211
627.355520,0.060000
627.672220,0.061275
627.988880,0.060342
628.305500,0.060767
628.622080,0.062268
628.938620,0.062080
629.255120,0.064095
629.571580,0.059454
629.888000,0.058300
630.204380,0.059527
630.520720,0.058501
630.837020,0.061671
631.153280,0.060552
631.469500,0.062765
631.785680,0.062086
632.101820,0.062123
632.417920,0.061103
632.733980,0.057023
633.050000,0.058520
633.365980,0.058684
633.681920,0.060263
633.997820,0.060072
634.313680,0.060749
634.629500,0.060749
634.945280,0.060411
635.261020,0.064866
635.576720,0.059894
635.892380,0.058670
636.208000,0.063335
636.523580,0.059924
636.839120,0.061668
637.154620,0.060580
637.470080,0.059397
637.785500,0.061841
638.100880,0.062554
638.416220,0.062410
638.731520,0.062178
639.046780,0.062627
639.362000,0.058486
639.677180,0.061965
639.992320,0.060333
640.307420,0.060972
640.622480,0.064128
640.937500,0.061026
641.252480,0.061994
641.567420,0.063086
641.882320,0.060969
642.197180,0.063728
642.512000,0.059334
642.826780,0.061581
643.141520,0.060017
643.456220,0.059214
643.770880,0.060807
644.085500,0.061766
644.400080,0.058427
644.714620,0.061037
645.029120,0.061056
645.343580,0.057872
645.658000,0.059672
645.972380,0.058372
646.286720,0.062142
646.601020,0.061168
646.915280,0.062243
647.229500,0.059615
647.543680,0.061033
647.857820,0.060831
648.171920,0.061584
648.485980,0.061113
648.800000,0.059796
649.113980,0.061253
649.427920,0.061581
649.741820,0.059357
650.055680,0.060614
650.369500,0.059417
650.683280,0.061598
650.997020,0.059956
651.310720,0.062741
651.624380,0.060989
651.938000,0.060665
652.251580,0.060674
652.565120,0.060089
652.878620,0.060529
653.192080,0.059270
653.505500,0.060870
653.818880,0.062269
654.132220,0.061521
654.445520,0.059558
654.758780,0.058357
655.072000,0.062751
655.385180,0.061912
655.698320,0.059731
656.011420,0.059329
656.324480,0.062372
656.637500,0.059096
656.950480,0.060188
657.263420,0.060893
657.576320,0.059887
657.889180,0.059569
658.202000,0.058575
658.514780,0.062519
658.827520,0.062425
659.140220,0.062032
659.452880,0.058291
659.765500,0.058700
660.078080,0.060187
660.390620,0.059884
660.703120,0.061412
661.015580,0.062883
661.328000,0.062028
661.640380,0.060888
661.952720,0.058237
662.265020,0.062382
662.577280,0.062341
662.889500,0.060233
663.201680,0.059987
663.513820,0.060470
663.825920,0.060839
664.137980,0.060116
664.450000,0.058504
664.761980,0.060229
665.073920,0.061344
665.385820,0.062500
665.697680,0.058843
666.009500,0.060525
666.321280,0.062624
666.633020,0.061835
666.944720,0.060330
667.256380,0.062584
667.568000,0.058084
667.879580,0.060204
668.191120,0.061126
668.502620,0.060938
668.814080,0.058596
669.125500,0.061238
669.436880,0.060858
669.748220,0.060575
670.059520,0.062675
670.370780,0.060891
670.682000,0.061239
670.993180,0.063425
671.304320,0.062588
671.615420,0.062855
671.926480,0.061746
672.237500,0.058235
672.548480,0.061036
672.859420,0.058613
673.170320,0.059848
673.481180,0.059377
673.792000,0.063109
674.102780,0.062118
674.413520,0.060882
674.724220,0.060617
675.034880,0.064906
675.345500,0.060904
675.656080,0.062069
675.966620,0.058567
676.277120,0.060417
676.587580,0.058910
676.898000,0.058231
677.208380,0.059150
677.518720,0.059446
677.829020,0.060237
678.139280,0.060786
678.449500,0.063869
678.759680,0.061446
679.069820,0.060223
679.379920,0.061486
679.689980,0.062013
680.000000,0.057570
680.309980,0.059020
680.619920,0.061719
680.929820,0.060844
681.239680,0.059084
681.549500,0.063333
681.859280,0.060493
682.169020,0.057814
682.478720,0.061705
682.788380,0.059062
683.098000,0.059461
683.407580,0.058537
683.717120,0.058183
684.026620,0.062123
684.336080,0.059492
684.645500,0.058361
684.954880,0.058557
685.264220,0.061155
685.573520,0.060906
685.882780,0.064442
686.192000,0.063205
686.501180,0.059402
686.810320,0.061491
687.119420,0.062714
687.428480,0.058488
687.737500,0.059478
688.046480,0.061733
688.355420,0.062241
688.664320,0.060061
688.973180,0.060490
689.282000,0.061343
689.590780,0.059433
689.899520,0.060008
690.208220,0.059251
690.516880,0.063001
690.825500,0.061887
691.134080,0.062263
691.442620,0.060976
691.751120,0.061054
692.059580,0.058846
692.368000,0.059447
692.676380,0.060305
692.984720,0.054962
693.293020,0.061550
693.601280,0.060664
693.909500,0.062429
694.217680,0.059787
694.525820,0.063595
694.833920,0.058375
695.141980,0.061319
695.450000,0.062214
695.757980,0.061879
696.065920,0.057864
696.373820,0.059661
696.681680,0.062908
696.989500,0.061752
697.297280,0.061455
697.605020,0.063492
697.912720,0.062260
698.220380,0.060213
698.528000,0.064082
698.835580,0.061241
699.143120,0.060405
699.450620,0.062053
699.758080,0.063922
700.065500,0.064246
700.372880,0.060400
700.680220,0.061428
700.987520,0.063492
701.294780,0.062855
701.602000,0.059826
701.909180,0.060413
702.216320,0.061400
702.523420,0.059590
702.830480,0.060990
703.137500,0.060405
703.444480,0.060750
703.751420,0.059172
704.058320,0.058172
704.365180,0.062303
704.672000,0.063366
704.978780,0.062037
705.285520,0.060642
705.592220,0.061176
705.898880,0.063436
706.205500,0.062989
706.512080,0.062796
706.818620,0.060372
707.125120,0.061923
707.431580,0.059789
707.738000,0.064844
708.044380,0.057121
708.350720,0.061521
708.657020,0.061352
708.963280,0.061724
709.269500,0.061057
709.575680,0.061690
709.881820,0.063286
710.187920,0.059533
710.493980,0.062452
710.800000,0.061785
711.105980,0.058735
711.411920,0.060307
711.717820,0.060429
712.023680,0.061796
712.329500,0.062303
712.635280,0.062016
712.941020,0.063394
713.246720,0.060474
713.552380,0.063187
713.858000,0.061096
714.163580,0.061957
714.469120,0.059398
714.774620,0.063166
715.080080,0.061641
715.385500,0.064349
715.690880,0.057594
715.996220,0.063391
716.301520,0.062055
716.606780,0.062893
716.912000,0.062601
717.217180,0.059058
717.522320,0.056859
717.827420,0.061025
718.132480,0.059815
718.437500,0.064003
718.742480,0.062500
719.047420,0.061489
719.352320,0.063097
719.657180,0.062142
719.962000,0.063689
720.266780,0.062318
720.571520,0.063380
720.876220,0.061784
721.180880,0.058528
721.485500,0.058922
721.790080,0.059023
722.094620,0.058748
722.399120,0.059026
722.703580,0.059151
723.008000,0.063821
723.312380,0.061989
723.616720,0.059499
723.921020,0.061498
724.225280,0.061518
724.529500,0.060858
724.833680,0.061388
725.137820,0.059912
725.441920,0.058850
725.745980,0.063982
726.050000,0.059540
726.353980,0.058585
726.657920,0.061628
726.961820,0.061187
727.265680,0.061489
727.569500,0.063528
727.873280,0.060508
728.177020,0.063105
728.480720,0.060185
728.784380,0.062471
729.088000,0.058408
729.391580,0.062530
729.695120,0.064299
729.998620,0.065010
730.302080,0.061509
730.605500,0.058224
730.908880,0.060265
731.212220,0.061214
731.515520,0.063871
731.818780,0.060194
732.122000,0.065453
732.425180,0.059635
732.728320,0.060982
733.031420,0.061153
733.334480,0.057143
733.637500,0.059980
733.940480,0.059365
734.243420,0.063710
734.546320,0.062759
734.849180,0.062500
735.152000,0.059129
735.454780,0.059401
735.757520,0.061117
736.060220,0.062138
736.362880,0.064076
736.665500,0.062663
736.968080,0.063407
737.270620,0.060969
737.573120,0.060044
737.875580,0.062122
738.178000,0.059336
738.480380,0.062703
738.782720,0.059978
739.085020,0.061123
739.387280,0.059867
739.689500,0.060589
739.991680,0.062325
740.293820,0.061913
740.595920,0.064552
740.897980,0.062112
741.200000,0.061133
741.501980,0.064756
741.803920,0.059122
742.105820,0.060350
742.407680,0.062900
742.709500,0.063068
743.011280,0.057444
743.313020,0.061449
743.614720,0.060940
743.916380,0.062209
744.218000,0.065632
744.519580,0.060990
744.821120,0.062275
745.122620,0.058119
745.424080,0.058293
745.725500,0.062764
746.026880,0.059729
746.328220,0.059186
746.629520,0.062011
746.930780,0.064338
747.232000,0.058246
747.533180,0.062843
747.834320,0.061473
748.135420,0.057800
748.436480,0.064878
748.737500,0.061149
749.038480,0.062309
749.339420,0.061605
749.640320,0.059082
749.941180,0.062461
750.242000,0.057789
750.542780,0.063275
750.843520,0.062140
751.144220,0.061538
751.444880,0.065314
751.745500,0.057143
752.046080,0.060936
752.346620,0.056701
752.647120,0.060745
752.947580,0.059508
753.248000,0.061251
753.548380,0.059857
753.848720,0.055377
754.149020,0.057382
754.449280,0.061720
754.749500,0.060385
755.049680,0.061333
755.349820,0.063376
755.649920,0.066755
755.949980,0.062376
756.250000,0.063774
756.549980,0.062046
756.849920,0.061863
757.149820,0.063872
757.449680,0.064026
757.749500,0.059986
758.049280,0.064164
758.349020,0.057024
758.648720,0.060732
758.948380,0.061856
759.248000,0.061321
759.547580,0.056490
759.847120,0.060648
760.146620,0.061570
760.446080,0.060484
760.745500,0.061538
761.044880,0.059659
761.344220,0.058446
761.643520,0.062853
761.942780,0.061582
762.242000,0.063649
762.541180,0.060563
762.840320,0.062500
763.139420,0.059775
763.438480,0.061517
763.737500,0.063405
764.036480,0.062893
764.335420,0.058574
764.634320,0.058212
764.933180,0.065068
765.232000,0.061069
765.530780,0.061754
765.829520,0.065035
766.128220,0.065414
766.426880,0.061834
766.725500,0.061001
767.024080,0.066529
767.322620,0.058783
767.621120,0.061653
767.919580,0.058703
768.218000,0.058824
768.516380,0.066937
768.814720,0.061043
769.113020,0.063405
769.411280,0.065608
769.709500,0.058187
770.007680,0.053170
770.305820,0.061528
770.603920,0.061321
770.901980,0.061475
771.200000,0.061141
771.497980,0.067694
771.795920,0.055518
772.093820,0.058155
772.391680,0.058009
772.689500,0.055405
772.987280,0.057239
773.285020,0.058100
773.582720,0.060135
773.880380,0.066575
774.178000,0.060668
774.475580,0.064300
774.773120,0.059572
775.070620,0.058147
775.368080,0.064796
775.665500,0.057085
775.962880,0.064710
776.260220,0.061911
776.557520,0.058706
776.854780,0.061528
777.152000,0.060345
777.449180,0.066082
777.746320,0.057796
778.043420,0.062074
778.340480,0.057510
778.637500,0.062204
778.934480,0.059852
779.231420,0.061058
779.528320,0.060788
779.825180,0.060606
780.122000,0.060425
780.418780,0.062244
780.715520,0.067069
781.012220,0.063014
781.308880,0.066937
781.605500,0.057534
781.902080,0.061602
782.198620,0.062884
782.495120,0.061728
782.791580,0.060523
783.088000,0.061422
783.384380,0.064649
783.680720,0.064295
783.977020,0.063317
784.273280,0.066434
784.569500,0.058700
784.865680,0.069541
785.161820,0.059722
785.457920,0.058905
785.753980,0.056525
786.050000,0.055939
786.345980,0.061111
786.641920,0.063151
786.937820,0.063390
787.233680,0.064022
787.529500,0.064494
787.825280,0.066572
788.121020,0.060907
788.416720,0.062809
788.712380,0.064880
789.008000,0.060907
789.303580,0.057951
789.599120,0.066909
789.894620,0.062816
790.190080,0.058013
790.485500,0.059035
790.780880,0.058781
791.076220,0.059885
791.371520,0.066086
791.666780,0.063273
791.962000,0.062454
792.257180,0.058565
792.552320,0.062364
792.847420,0.059680
793.142480,0.063736
793.437500,0.065847
793.732480,0.062911
794.027420,0.058605
794.322320,0.061894
794.617180,0.060178
794.912000,0.063150
795.206780,0.062640
795.501520,0.066160
795.796220,0.062222
796.090880,0.060286
796.385500,0.059220
796.680080,0.062827
796.974620,0.064371
797.269120,0.058289
797.563580,0.058015
797.858000,0.068337
798.152380,0.062645
798.446720,0.063077
798.741020,0.057011
799.035280,0.062112
799.329500,0.066205
799.623680,0.065891
