399.985280,-0.013514
400.329500,0.108108
400.673680,-0.063291
401.017820,-0.029412
401.361920,-0.060606
401.705980,-0.048780
402.050000,-0.012987
402.393980,0.047059
402.737920,0.067416
403.081820,0.092784
403.425680,0.081395
403.769500,0.031250
404.113280,0.000000
404.457020,0.123596
404.800720,0.000000
405.144380,0.040404
405.488000,0.000000
405.831580,0.041237
406.175120,0.031915
406.518620,0.000000
406.862080,0.041237
407.205500,0.031250
407.548880,0.020408
407.892220,0.068627
408.235520,0.063830
408.578780,0.066667
408.922000,0.057692
409.265180,0.030303
409.608320,0.020202
409.951420,0.082474
410.294480,0.058824
410.637500,0.021739
410.980480,0.019608
411.323420,-0.010204
411.666320,0.091743
412.009180,0.081818
412.352000,-0.009901
412.694780,0.036697
413.037520,0.018349
413.380220,0.045045
413.722880,0.008929
414.065500,0.081081
414.408080,0.035398
414.750620,0.035398
415.093120,0.008264
415.435580,0.067227
415.778000,0.121212
416.120380,0.042017
416.462720,0.023810
416.805020,0.037594
417.147280,0.052239
417.489500,0.064286
417.831680,0.034247
418.173820,0.035461
418.515920,0.027972
418.857980,0.063291
419.200000,0.057692
419.541980,0.053254
419.883920,0.033708
420.225820,0.023121
420.567680,0.067039
420.909500,0.038251
421.251280,0.062500
421.593020,0.045918
421.934720,0.020202
422.276380,0.041026
422.618000,0.039216
422.959580,0.068627
423.301120,0.059361
423.642620,0.021739
423.984080,0.032558
424.325500,0.040359
424.666880,0.043103
425.008220,0.042017
425.349520,0.042373
425.690780,0.057692
426.032000,0.043137
426.373180,0.024896
426.714320,0.027344
427.055420,0.054054
427.396480,0.048689
427.737500,0.039526
428.078480,0.035573
428.419420,0.036145
428.760320,0.042146
429.101180,0.047244
429.442000,0.049808
429.782780,0.019231
430.123520,0.043137
430.464220,0.040590
430.804880,0.068966
431.145500,0.047273
431.486080,0.037453
431.826620,0.042636
432.167120,0.062500
432.507580,0.057971
432.848000,0.064748
433.188380,0.061372
433.528720,0.022642
433.869020,0.042857
434.209280,0.024561
434.549500,0.048780
434.889680,0.047138
435.229820,0.047782
435.569920,0.034602
435.909980,0.038835
436.250000,0.040678
436.589980,0.027864
436.929920,0.053968
437.269820,0.056426
437.609680,0.065089
437.949500,0.054217
438.289280,0.070822
438.629020,0.063953
438.968720,0.040698
439.308380,0.035230
439.648000,0.057534
439.987580,0.047619
440.327120,0.040000
440.666620,0.051948
441.006080,0.058824
441.345500,0.046683
441.684880,0.055024
442.024220,0.042184
442.363520,0.042857
442.702780,0.059091
443.042000,0.044053
443.381180,0.053879
443.720320,0.053996
444.059420,0.042017
444.398480,0.035565
444.737500,0.055328
445.076480,0.057540
445.415420,0.057884
445.754320,0.047817
446.093180,0.044037
446.432000,0.048872
446.770780,0.051233
447.109520,0.049632
447.448220,0.057245
447.786880,0.060823
448.125500,0.060345
448.464080,0.050000
448.802620,0.058511
449.141120,0.058824
449.479580,0.050699
449.818000,0.048193
450.156380,0.043478
450.494720,0.042975
450.833020,0.054196
451.171280,0.039384
451.509500,0.047038
451.847680,0.047218
452.185820,0.046472
452.523920,0.058419
452.861980,0.052277
453.200000,0.053156
453.537980,0.052101
453.875920,0.057143
454.213820,0.039384
454.551680,0.052980
454.889500,0.040472
455.227280,0.037367
455.565020,0.058626
455.902720,0.053245
456.240380,0.048253
456.578000,0.055749
456.915580,0.053541
457.253120,0.050987
457.590620,0.050903
457.928080,0.055556
458.265500,0.057432
458.602880,0.045455
458.940220,0.035533
459.277520,0.057600
459.614780,0.054010
459.952000,0.052795
460.289180,0.056962
460.626320,0.047244
460.963420,0.043619
461.300480,0.056575
461.637500,0.046225
461.974480,0.061162
462.311420,0.041729
462.648320,0.058565
462.985180,0.050215
463.322000,0.052083
463.658780,0.048343
463.995520,0.050894
464.332220,0.041551
464.668880,0.056452
465.005500,0.046917
465.342080,0.043534
465.678620,0.054121
466.015120,0.050453
466.351580,0.054362
466.688000,0.052375
467.024380,0.049818
467.360720,0.051136
467.697020,0.052392
468.033280,0.060000
468.369500,0.051876
468.705680,0.057497
469.041820,0.048958
469.377920,0.047722
469.713980,0.054583
470.050000,0.056039
470.385980,0.050881
470.721920,0.047992
471.057820,0.051657
471.393680,0.054256
471.729500,0.047266
472.065280,0.056351
472.401020,0.055851
472.736720,0.051483
473.072380,0.055655
473.408000,0.046127
473.743580,0.052768
474.079120,0.054264
474.414620,0.048346
474.750080,0.048007
475.085500,0.053454
475.420880,0.049958
475.756220,0.056419
476.091520,0.050298
476.426780,0.057443
476.762000,0.049075
477.097180,0.046400
477.432320,0.048465
477.767420,0.049837
478.102480,0.050394
478.437500,0.050082
478.772480,0.049645
479.107420,0.043938
479.442320,0.049560
479.777180,0.049324
480.112000,0.052388
480.446780,0.042868
480.781520,0.050725
481.116220,0.046079
481.450880,0.050742
481.785500,0.054589
482.120080,0.050157
482.454620,0.046620
482.789120,0.057325
483.123580,0.052181
483.458000,0.049051
483.792380,0.049521
484.126720,0.050193
484.461020,0.053864
484.795280,0.049345
485.129500,0.055339
485.463680,0.048062
485.797820,0.059098
486.131920,0.051262
486.465980,0.050965
486.800000,0.055725
487.133980,0.049094
487.467920,0.052028
487.801820,0.055683
488.135680,0.053829
488.469500,0.049924
488.803280,0.057207
489.137020,0.052747
489.470720,0.051187
489.804380,0.051967
490.138000,0.050445
490.471580,0.054532
490.805120,0.052180
491.138620,0.052594
491.472080,0.051590
491.805500,0.053696
492.138880,0.050035
492.472220,0.056747
492.805520,0.049581
493.138780,0.053067
493.472000,0.054181
493.805180,0.053888
494.138320,0.053369
494.471420,0.056641
494.804480,0.053040
495.137500,0.053915
495.470480,0.061185
495.803420,0.056675
496.136320,0.055764
496.469180,0.049110
496.802000,0.052567
497.134780,0.051546
497.467520,0.059327
497.800220,0.054835
498.132880,0.057025
498.465500,0.055620
498.798080,0.051370
499.130620,0.055587
499.463120,0.058394
499.795580,0.055556
500.128000,0.055586
500.460380,0.055974
500.792720,0.052492
501.125020,0.051498
501.457280,0.052742
501.789500,0.051653
502.121680,0.054432
502.453820,0.055584
502.785920,0.051026
503.117980,0.054465
503.450000,0.052235
503.781980,0.053313
504.113920,0.051209
504.445820,0.048614
504.777680,0.050353
505.109500,0.052885
505.441280,0.055449
505.773020,0.054016
506.104720,0.051342
506.436380,0.051112
506.768000,0.051918
507.099580,0.052632
507.431120,0.053864
507.762620,0.054041
508.094080,0.051048
508.425500,0.054622
508.756880,0.050297
509.088220,0.053358
509.419520,0.057263
509.750780,0.052015
510.082000,0.054104
510.413180,0.051129
510.744320,0.053843
511.075420,0.052246
511.406480,0.051246
511.737500,0.053241
512.068480,0.057331
512.399420,0.054930
512.730320,0.052656
513.061180,0.052331
513.392000,0.053005
513.722780,0.050913
514.053520,0.053186
514.384220,0.052331
514.714880,0.056486
515.045500,0.052203
515.376080,0.052300
515.706620,0.053580
516.037120,0.052451
516.367580,0.050764
516.698000,0.054902
517.028380,0.053625
517.358720,0.054321
517.689020,0.055391
518.019280,0.051681
518.349500,0.054232
518.679680,0.054518
519.009820,0.051619
519.339920,0.056112
519.669980,0.054746
520.000000,0.052471
520.329980,0.054432
520.659920,0.055215
520.989820,0.057276
521.319680,0.053498
521.649500,0.052442
521.979280,0.057411
522.309020,0.052905
522.638720,0.050691
522.968380,0.056360
523.298000,0.057411
523.627580,0.055872
523.957120,0.054545
524.286620,0.056279
524.616080,0.056877
524.945500,0.057364
525.274880,0.061570
525.604220,0.052795
525.933520,0.053459
526.262780,0.053725
526.592000,0.055302
526.921180,0.057897
527.250320,0.052765
527.579420,0.056594
527.908480,0.057115
528.237500,0.059086
528.566480,0.055888
528.895420,0.059142
529.224320,0.055473
529.553180,0.056867
529.882000,0.055474
530.210780,0.056467
530.539520,0.051774
530.868220,0.056486
531.196880,0.053034
531.525500,0.054237
531.854080,0.053471
532.182620,0.057917
532.511120,0.055684
532.839580,0.056715
533.168000,0.058341
533.496380,0.056164
533.824720,0.057425
534.153020,0.053500
534.481280,0.055066
534.809500,0.052331
535.137680,0.053819
535.465820,0.056701
535.793920,0.057530
536.121980,0.057491
536.450000,0.057505
536.777980,0.059908
537.105920,0.055625
537.433820,0.055237
537.761680,0.057959
538.089500,0.055038
538.417280,0.057302
538.745020,0.057845
539.072720,0.055057
539.400380,0.054779
539.728000,0.059273
540.055580,0.056554
540.383120,0.060313
540.710620,0.056176
541.038080,0.058650
541.365500,0.054044
541.692880,0.054869
542.020220,0.057935
542.347520,0.059943
542.674780,0.054340
543.002000,0.054934
543.329180,0.058927
543.656320,0.056259
543.983420,0.053675
544.310480,0.054366
544.637500,0.056295
544.964480,0.058210
545.291420,0.056830
545.618320,0.057437
545.945180,0.057350
546.272000,0.053408
546.598780,0.055064
546.925520,0.055720
547.252220,0.055794
547.578880,0.056044
547.905500,0.055882
548.232080,0.055556
548.558620,0.058900
548.885120,0.057246
549.211580,0.056573
549.538000,0.054799
549.864380,0.056913
550.190720,0.054246
550.517020,0.057040
550.843280,0.058632
551.169500,0.056298
551.495680,0.056505
551.821820,0.057805
552.147920,0.057254
552.473980,0.058281
552.800000,0.054611
553.125980,0.059267
553.451920,0.059390
553.777820,0.058294
554.103680,0.057297
554.429500,0.052561
554.755280,0.056075
555.081020,0.058489
555.406720,0.055537
555.732380,0.053541
556.058000,0.054650
556.383580,0.058199
556.709120,0.057891
557.034620,0.056149
557.360080,0.057340
557.685500,0.060512
558.010880,0.056499
558.336220,0.053427
558.661520,0.058490
558.986780,0.055634
559.312000,0.057336
559.637180,0.054937
559.962320,0.061232
560.287420,0.058533
560.612480,0.057051
560.937500,0.058370
561.262480,0.056452
561.587420,0.057309
561.912320,0.058954
562.237180,0.056625
562.562000,0.059110
562.886780,0.057228
563.211520,0.059985
563.536220,0.061596
563.860880,0.056582
564.185500,0.057411
564.510080,0.058315
564.834620,0.054708
565.159120,0.058271
565.483580,0.056252
565.808000,0.057132
566.132380,0.059306
566.456720,0.057823
566.781020,0.057389
567.105280,0.058979
567.429500,0.060698
567.753680,0.059455
568.077820,0.059528
568.401920,0.058442
568.725980,0.057685
569.050000,0.057034
569.373980,0.058241
569.697920,0.059158
570.021820,0.058427
570.345680,0.057405
570.669500,0.059901
570.993280,0.056848
571.317020,0.059554
571.640720,0.057429
571.964380,0.059020
572.288000,0.059347
572.611580,0.059528
572.935120,0.058736
573.258620,0.056096
573.582080,0.060358
573.905500,0.059568
574.228880,0.059762
574.552220,0.058263
574.875520,0.057334
575.198780,0.061077
575.522000,0.058651
575.845180,0.056948
576.168320,0.057133
576.491420,0.057049
576.814480,0.060036
577.137500,0.059885
577.460480,0.060167
577.783420,0.057521
578.106320,0.058761
578.429180,0.058678
578.752000,0.060090
579.074780,0.060013
579.397520,0.060362
579.720220,0.061133
580.042880,0.061117
580.365500,0.056585
580.688080,0.059701
581.010620,0.060074
581.333120,0.060454
581.655580,0.060939
581.978000,0.059528
582.300380,0.060045
582.622720,0.059987
582.945020,0.063069
583.267280,0.062846
583.589500,0.060674
583.911680,0.059701
584.233820,0.056972
584.555920,0.060511
584.877980,0.058417
585.200000,0.059853
585.521980,0.058696
585.843920,0.061013
586.165820,0.057892
586.487680,0.059886
586.809500,0.059706
587.131280,0.057379
587.453020,0.057143
587.774720,0.060024
588.096380,0.057468
588.418000,0.059701
588.739580,0.059500
589.061120,0.058942
589.382620,0.057593
589.704080,0.058345
590.025500,0.061073
590.346880,0.060708
590.668220,0.059087
590.989520,0.058236
591.310780,0.060481
591.632000,0.060929
591.953180,0.059784
592.274320,0.059787
592.595420,0.058728
592.916480,0.057865
593.237500,0.062247
593.558480,0.059995
593.879420,0.060426
594.200320,0.059202
594.521180,0.059761
594.842000,0.058302
595.162780,0.061165
595.483520,0.058761
595.804220,0.057734
596.124880,0.059419
596.445500,0.058685
596.766080,0.061038
597.086620,0.061837
597.407120,0.056872
597.727580,0.060461
598.048000,0.058186
598.368380,0.057864
598.688720,0.060288
599.009020,0.060510
599.329280,0.060404
599.649500,0.059958
599.969680,0.056891
600.289820,0.061432
600.609920,0.059044
600.929980,0.056387
601.250000,0.058649
601.569980,0.059681
601.889920,0.061214
602.209820,0.058712
602.529680,0.060148
602.849500,0.058101
603.169280,0.060347
603.489020,0.058400
603.808720,0.059243
604.128380,0.060155
604.448000,0.059945
604.767580,0.058380
605.087120,0.058726
605.406620,0.061573
605.726080,0.062161
606.045500,0.056840
606.364880,0.059541
606.684220,0.062250
607.003520,0.058200
607.322780,0.061399
607.642000,0.060023
607.961180,0.057820
608.280320,0.059165
608.599420,0.059965
608.918480,0.059531
609.237500,0.060446
609.556480,0.058005
609.875420,0.059362
610.194320,0.058754
610.513180,0.057413
610.832000,0.060453
611.150780,0.058877
611.469520,0.059729
611.788220,0.062273
612.106880,0.058806
612.425500,0.059683
612.744080,0.059711
613.062620,0.057798
613.381120,0.058196
613.699580,0.060086
614.018000,0.058354
614.336380,0.059223
614.654720,0.061085
614.973020,0.058007
615.291280,0.060118
615.609500,0.059271
615.927680,0.061187
616.245820,0.060297
616.563920,0.059994
616.881980,0.062364
617.200000,0.060653
617.517980,0.057250
617.835920,0.057471
618.153820,0.060305
618.471680,0.061705
618.789500,0.060730
619.107280,0.060407
619.425020,0.060577
619.742720,0.056497
620.060380,0.058289
620.378000,0.063562
620.695580,0.059387
621.013120,0.057953
621.330620,0.060872
621.648080,0.059306
621.965500,0.060540
622.282880,0.059899
622.600220,0.057802
622.917520,0.057656
623.234780,0.061074
623.552000,0.060153
623.869180,0.058304
624.186320,0.060809
624.503420,0.060188
624.820480,0.059378
625.137500,0.061572
625.454480,0.060331
625.771420,0.061160
626.088320,0.057377
626.405180,0.060672
626.722000,0.062735
627.038780,0.062657
627.355520,0.062500
627.672220,0.060031
627.988880,0.057543
628.305500,0.060455
628.622080,0.062577
628.938620,0.060550
629.255120,0.061605
629.571580,0.058535
629.888000,0.061062
630.204380,0.061062
630.520720,0.058501
630.837020,0.058279
631.153280,0.060851
631.469500,0.060036
631.785680,0.059373
632.101820,0.060012
632.417920,0.059016
632.733980,0.057323
633.050000,0.060643
633.365980,0.060462
633.681920,0.059368
633.997820,0.058279
634.313680,0.062518
634.629500,0.058095
634.945280,0.058944
635.261020,0.060170
635.576720,0.059307
635.892380,0.060412
636.208000,0.062754
636.523580,0.063432
636.839120,0.061378
637.154620,0.063768
637.470080,0.061119
637.785500,0.062134
638.100880,0.061106
638.416220,0.063848
638.731520,0.060745
639.046780,0.062627
639.362000,0.060206
639.677180,0.060822
639.992320,0.061742
640.307420,0.064063
640.622480,0.061047
640.937500,0.061026
641.252480,0.061156
641.567420,0.059392
641.882320,0.059298
642.197180,0.062605
642.512000,0.058774
642.826780,0.058530
643.141520,0.061406
643.456220,0.059491
643.770880,0.060254
644.085500,0.061487
644.400080,0.061517
644.714620,0.060758
645.029120,0.061056
645.343580,0.061163
645.658000,0.061893
645.972380,0.061661
646.286720,0.060507
646.601020,0.061998
646.915280,0.063066
647.229500,0.058516
647.543680,0.062690
647.857820,0.060281
648.171920,0.062398
648.485980,0.060565
648.800000,0.060898
649.113980,0.060698
649.427920,0.064078
649.741820,0.059082
650.055680,0.060340
650.369500,0.062220
650.683280,0.060211
650.997020,0.059681
651.310720,0.063291
651.624380,0.061264
651.938000,0.061496
652.251580,0.063178
652.565120,0.060648
652.878620,0.062218
653.192080,0.060955
653.505500,0.060028
653.818880,0.059141
654.132220,0.061521
654.445520,0.058990
654.758780,0.060340
655.072000,0.062464
655.385180,0.060770
655.698320,0.060589
656.011420,0.058469
656.324480,0.060624
656.637500,0.061414
656.950480,0.058133
657.263420,0.062666
657.576320,0.059294
657.889180,0.061634
658.202000,0.059179
658.514780,0.060435
658.827520,0.059124
659.140220,0.061732
659.452880,0.059801
659.765500,0.059904
660.078080,0.058983
660.390620,0.057134
660.703120,0.061412
661.015580,0.061350
661.328000,0.063917
661.640380,0.059646
661.952720,0.059794
662.265020,0.059861
662.577280,0.059796
662.889500,0.064333
663.201680,0.058392
663.513820,0.059826
663.825920,0.059558
664.137980,0.062056
664.450000,0.060742
664.761980,0.061866
665.073920,0.060045
665.385820,0.062500
665.697680,0.058182
666.009500,0.061856
666.321280,0.060968
666.633020,0.063165
666.944720,0.057971
667.256380,0.058546
667.568000,0.061141
667.879580,0.061905
668.191120,0.064904
668.502620,0.060938
668.814080,0.058947
669.125500,0.061581
669.436880,0.062932
669.748220,0.061613
670.059520,0.059524
670.370780,0.061587
670.682000,0.061239
670.993180,0.061311
671.304320,0.061885
671.615420,0.061790
671.926480,0.063520
672.237500,0.060379
672.548480,0.058907
672.859420,0.061115
673.170320,0.061661
673.481180,0.060101
673.792000,0.056617
674.102780,0.060682
674.413520,0.059424
674.724220,0.058439
675.034880,0.061606
675.345500,0.059081
675.656080,0.060617
675.966620,0.064023
676.277120,0.064811
676.587580,0.061487
676.898000,0.061963
677.208380,0.060628
677.518720,0.060540
677.829020,0.060976
678.139280,0.058562
678.449500,0.061641
678.759680,0.061821
679.069820,0.062082
679.379920,0.061109
679.689980,0.062013
680.000000,0.060187
680.309980,0.061247
680.619920,0.058690
680.929820,0.063083
681.239680,0.059823
681.549500,0.060741
681.859280,0.060866
682.169020,0.060052
682.478720,0.061331
682.788380,0.062016
683.098000,0.061331
683.407580,0.062289
683.717120,0.061186
684.026620,0.062500
684.336080,0.061008
684.645500,0.057987
684.954880,0.061579
685.264220,0.062665
685.573520,0.064713
685.882780,0.060606
686.192000,0.062829
686.501180,0.060537
686.810320,0.060723
687.119420,0.060813
687.428480,0.061907
687.737500,0.062932
688.046480,0.060966
688.355420,0.063372
688.664320,0.061591
688.973180,0.061639
689.282000,0.059414
689.590780,0.062500
689.899520,0.059628
690.208220,0.059633
690.516880,0.062619
690.825500,0.064528
691.134080,0.058087
691.442620,0.059832
691.751120,0.062192
692.059580,0.062667
692.368000,0.061719
692.676380,0.064504
692.984720,0.061069
693.293020,0.059650
693.601280,0.059138
693.909500,0.058267
694.217680,0.062072
694.525820,0.059787
694.833920,0.059519
695.141980,0.062476
695.450000,0.059542
695.757980,0.060733
696.065920,0.062136
696.373820,0.062356
696.681680,0.062908
696.989500,0.062524
697.297280,0.063399
697.605020,0.061111
697.912720,0.059954
698.220380,0.059425
698.528000,0.065665
698.835580,0.060846
699.143120,0.060795
699.450620,0.062053
699.758080,0.064314
700.065500,0.062650
700.372880,0.056800
700.680220,0.061827
700.987520,0.063492
701.294780,0.061638
701.602000,0.057052
701.909180,0.060413
702.216320,0.061009
702.523420,0.061168
702.830480,0.062178
703.137500,0.062354
703.444480,0.064300
703.751420,0.060355
704.058320,0.061733
704.365180,0.061120
704.672000,0.060198
704.978780,0.063988
705.285520,0.061033
705.592220,0.059608
705.898880,0.063436
706.205500,0.060642
706.512080,0.064376
706.818620,0.061920
707.125120,0.061923
707.431580,0.060571
707.738000,0.061719
708.044380,0.059822
708.350720,0.060757
708.657020,0.062134
708.963280,0.061335
709.269500,0.061448
709.575680,0.064047
709.881820,0.062107
710.187920,0.060311
710.493980,0.061676
710.800000,0.060641
711.105980,0.057229
711.411920,0.059913
711.717820,0.060819
712.023680,0.059852
712.329500,0.060726
712.635280,0.062791
712.941020,0.066486
713.246720,0.058498
713.552380,0.060047
713.858000,0.061096
714.163580,0.063536
714.469120,0.058617
714.774620,0.061587
715.080080,0.062034
715.385500,0.059552
715.690880,0.060750
715.996220,0.061014
716.301520,0.063241
716.606780,0.061321
716.912000,0.060985
717.217180,0.058659
717.522320,0.058052
717.827420,0.059398
718.132480,0.063027
718.437500,0.060334
718.742480,0.062097
719.047420,0.061489
719.352320,0.065172
719.657180,0.063778
719.962000,0.062862
720.266780,0.060656
720.571520,0.061723
720.876220,0.061784
721.180880,0.061455
721.485500,0.058922
721.790080,0.061146
722.094620,0.066467
722.399120,0.061181
722.703580,0.062152
723.008000,0.059940
723.312380,0.061128
723.616720,0.060348
723.921020,0.057601
724.225280,0.061082
724.529500,0.059982
724.833680,0.064057
725.137820,0.062555
725.441920,0.061079
725.745980,0.060850
726.050000,0.064051
726.353980,0.058134
726.657920,0.060729
726.961820,0.061644
727.265680,0.061026
727.569500,0.058044
727.873280,0.062356
728.177020,0.062644
728.480720,0.062037
728.784380,0.061531
729.088000,0.061234
729.391580,0.062056
729.695120,0.059021
729.998620,0.059273
730.302080,0.064392
730.605500,0.057739
730.908880,0.063204
731.212220,0.060725
731.515520,0.062409
731.818780,0.058738
732.122000,0.062008
732.425180,0.065057
732.728320,0.059494
733.031420,0.060652
733.334480,0.057653
733.637500,0.059980
733.940480,0.059877
734.243420,0.060143
734.546320,0.063797
734.849180,0.062500
735.152000,0.058610
735.454780,0.059917
735.757520,0.060063
736.060220,0.062138
736.362880,0.060399
736.665500,0.057963
736.968080,0.065556
737.270620,0.064235
737.573120,0.062773
737.875580,0.063222
738.178000,0.061513
738.480380,0.058919
738.782720,0.060523
739.085020,0.057819
739.387280,0.063747
739.689500,0.059456
739.991680,0.060640
740.293820,0.062465
740.595920,0.062326
740.897980,0.063806
741.200000,0.064498
741.501980,0.064183
741.803920,0.060248
742.105820,0.059786
742.407680,0.065230
742.709500,0.064773
743.011280,0.063306
743.313020,0.059130
743.614720,0.059779
743.916380,0.060465
744.218000,0.065632
744.519580,0.059179
744.821120,0.066467
745.122620,0.062912
745.424080,0.058293
745.725500,0.061557
746.026880,0.059113
746.328220,0.065351
746.629520,0.065623
746.930780,0.065564
747.232000,0.059473
747.533180,0.061013
747.834320,0.060864
748.135420,0.062150
748.436480,0.065502
748.737500,0.059296
749.038480,0.065974
749.339420,0.062228
749.640320,0.061596
749.941180,0.062461
750.242000,0.060930
750.542780,0.062655
750.843520,0.060858
751.144220,0.061538
751.444880,0.062777
751.745500,0.059091
752.046080,0.060295
752.346620,0.058634
752.647120,0.059438
752.947580,0.067270
753.248000,0.060606
753.548380,0.061809
753.848720,0.064392
754.149020,0.059317
754.449280,0.066973
754.749500,0.061712
755.049680,0.062000
755.349820,0.064043
755.649920,0.062128
755.949980,0.063039
756.250000,0.071006
756.549980,0.065347
756.849920,0.063222
757.149820,0.060546
757.449680,0.064686
757.749500,0.060668
758.049280,0.061433
758.349020,0.060501
758.648720,0.060041
758.948380,0.058419
759.248000,0.061321
759.547580,0.058507
759.847120,0.063405
760.146620,0.063599
760.446080,0.066532
760.745500,0.060140
761.044880,0.060369
761.344220,0.064148
761.643520,0.064266
761.942780,0.061582
762.242000,0.063649
762.541180,0.059859
762.840320,0.058287
763.139420,0.060478
763.438480,0.060150
763.737500,0.062026
764.036480,0.059399
764.335420,0.060692
764.634320,0.060291
764.933180,0.061644
765.232000,0.062457
765.530780,0.064561
765.829520,0.060140
766.128220,0.063326
766.426880,0.063255
766.725500,0.063742
767.024080,0.059671
767.322620,0.059474
767.621120,0.060298
767.919580,0.055290
768.218000,0.060192
768.516380,0.062204
768.814720,0.059671
769.113020,0.063405
769.411280,0.064917
769.709500,0.059540
770.007680,0.058623
770.305820,0.058147
770.603920,0.061995
770.901980,0.066940
771.200000,0.056386
771.497980,0.058311
771.795920,0.062207
772.093820,0.063503
772.391680,0.058668
772.689500,0.054730
772.987280,0.059933
773.285020,0.057416
773.582720,0.058784
773.880380,0.057653
774.178000,0.057941
774.475580,0.066309
774.773120,0.060241
775.070620,0.064909
775.368080,0.062124
775.665500,0.061786
775.962880,0.062708
776.260220,0.062584
776.557520,0.062041
776.854780,0.064909
777.152000,0.060345
777.449180,0.063385
777.746320,0.059812
778.043420,0.062074
778.340480,0.063599
778.637500,0.061528
778.934480,0.059180
779.231420,0.061737
779.528320,0.060788
779.825180,0.066535
780.122000,0.059761
780.418780,0.058824
780.715520,0.064386
781.012220,0.067808
781.308880,0.063556
781.605500,0.062329
781.902080,0.059548
782.198620,0.058783
782.495120,0.060357
782.791580,0.064649
783.088000,0.063492
783.384380,0.068088
783.680720,0.062244
783.977020,0.061253
784.273280,0.060140
784.569500,0.064990
784.865680,0.064673
785.161820,0.060417
785.457920,0.058905
785.753980,0.064201
786.050000,0.061464
786.345980,0.061806
786.641920,0.067314
786.937820,0.066952
787.233680,0.061239
787.529500,0.066574
787.825280,0.059490
788.121020,0.059490
788.416720,0.064926
788.712380,0.062059
789.008000,0.059490
789.303580,0.059364
789.599120,0.058909
789.894620,0.064982
790.190080,0.058013
790.485500,0.060475
790.780880,0.060215
791.076220,0.059163
791.371520,0.058097
791.666780,0.066182
791.962000,0.058046
792.257180,0.062225
792.552320,0.060914
792.847420,0.058224
793.142480,0.068864
793.437500,0.060781
793.732480,0.059254
794.027420,0.057122
794.322320,0.060403
794.617180,0.063893
794.912000,0.054978
795.206780,0.058166
795.501520,0.063878
795.796220,0.060741
796.090880,0.067069
796.385500,0.060720
796.680080,0.061331
796.974620,0.067365
797.269120,0.060560
797.563580,0.060305
797.858000,0.065300
798.152380,0.060325
798.446720,0.061538
798.741020,0.063945
799.035280,0.062112
799.329500,0.065435
799.623680,0.062016
