399.985280,0.040541
400.329500,0.013514
400.673680,0.012658
401.017820,-0.058824
401.361920,-0.030303
401.705980,-0.012195
402.050000,0.038961
402.393980,0.035294
402.737920,0.033708
403.081820,0.072165
403.425680,0.104651
403.769500,0.041667
404.113280,0.000000
404.457020,0.044944
404.800720,-0.010870
405.144380,0.060606
405.488000,-0.010753
405.831580,0.113402
406.175120,0.053191
406.518620,0.020000
406.862080,0.061856
407.205500,0.041667
407.548880,0.051020
407.892220,0.019608
408.235520,0.021277
408.578780,0.085714
408.922000,0.038462
409.265180,0.070707
409.608320,0.030303
409.951420,0.030928
410.294480,0.088235
410.637500,0.010870
410.980480,0.058824
411.323420,0.000000
411.666320,0.073394
412.009180,0.100000
412.352000,0.019802
412.694780,0.045872
413.037520,0.036697
413.380220,0.072072
413.722880,0.035714
414.065500,0.045045
414.408080,0.017699
414.750620,0.044248
415.093120,0.057851
415.435580,0.050420
415.778000,0.083333
416.120380,0.025210
416.462720,0.023810
416.805020,0.067669
417.147280,0.044776
417.489500,0.092857
417.831680,0.047945
418.173820,0.078014
418.515920,0.048951
418.857980,0.050633
419.200000,0.019231
419.541980,0.065089
419.883920,0.044944
420.225820,0.046243
420.567680,0.072626
420.909500,0.071038
421.251280,0.031250
421.593020,0.066327
421.934720,0.040404
422.276380,0.035897
422.618000,0.049020
422.959580,0.063725
423.301120,0.031963
423.642620,0.021739
423.984080,0.032558
424.325500,0.049327
424.666880,0.047414
425.008220,0.042017
425.349520,0.042373
425.690780,0.034615
426.032000,0.035294
426.373180,0.045643
426.714320,0.050781
427.055420,0.050193
427.396480,0.056180
427.737500,0.043478
428.078480,0.031621
428.419420,0.032129
428.760320,0.026820
429.101180,0.066929
429.442000,0.061303
429.782780,0.034615
430.123520,0.035294
430.464220,0.040590
430.804880,0.057471
431.145500,0.050909
431.486080,0.052434
431.826620,0.046512
432.167120,0.044118
432.507580,0.054348
432.848000,0.050360
433.188380,0.046931
433.528720,0.033962
433.869020,0.067857
434.209280,0.038596
434.549500,0.066202
434.889680,0.057239
435.229820,0.027304
435.569920,0.044983
435.909980,0.045307
436.250000,0.057627
436.589980,0.030960
436.929920,0.044444
437.269820,0.043887
437.609680,0.050296
437.949500,0.054217
438.289280,0.053824
438.629020,0.072674
438.968720,0.066860
439.308380,0.054201
439.648000,0.038356
439.987580,0.050265
440.327120,0.048000
440.666620,0.049351
441.006080,0.038363
441.345500,0.046683
441.684880,0.045455
442.024220,0.032258
442.363520,0.033333
442.702780,0.045455
443.042000,0.044053
443.381180,0.058190
443.720320,0.049676
444.059420,0.029412
444.398480,0.041841
444.737500,0.049180
445.076480,0.037698
445.415420,0.045908
445.754320,0.031185
446.093180,0.051376
446.432000,0.039474
446.770780,0.056926
447.109520,0.055147
447.448220,0.053667
447.786880,0.046512
448.125500,0.058621
448.464080,0.044643
448.802620,0.044326
449.141120,0.044983
449.479580,0.045455
449.818000,0.056799
450.156380,0.053512
450.494720,0.044628
450.833020,0.055944
451.171280,0.049658
451.509500,0.047038
451.847680,0.047218
452.185820,0.049914
452.523920,0.054983
452.861980,0.048904
453.200000,0.053156
453.537980,0.052101
453.875920,0.055462
454.213820,0.041096
454.551680,0.051325
454.889500,0.045531
455.227280,0.048043
455.565020,0.053601
455.902720,0.056572
456.240380,0.048253
456.578000,0.047038
456.915580,0.051813
457.253120,0.049342
457.590620,0.054187
457.928080,0.058923
458.265500,0.055743
458.602880,0.056818
458.940220,0.040609
459.277520,0.043200
459.614780,0.058920
459.952000,0.043478
460.289180,0.056962
460.626320,0.050394
460.963420,0.042003
461.300480,0.048930
461.637500,0.047766
461.974480,0.061162
462.311420,0.044709
462.648320,0.046852
462.985180,0.045911
463.322000,0.047619
463.658780,0.048343
463.995520,0.045392
464.332220,0.049861
464.668880,0.051075
465.005500,0.037534
465.342080,0.044814
465.678620,0.046740
466.015120,0.045278
466.351580,0.053097
466.688000,0.058465
467.024380,0.044957
467.360720,0.047727
467.697020,0.047836
468.033280,0.052222
468.369500,0.050773
468.705680,0.047351
469.041820,0.053125
469.377920,0.047722
469.713980,0.047374
470.050000,0.057005
470.385980,0.046967
470.721920,0.051910
471.057820,0.054581
471.393680,0.055192
471.729500,0.046339
472.065280,0.054562
472.401020,0.050532
472.736720,0.053229
473.072380,0.050269
473.408000,0.053090
473.743580,0.047578
474.079120,0.055125
474.414620,0.045802
474.750080,0.051261
475.085500,0.054276
475.420880,0.051624
475.756220,0.048242
476.091520,0.047741
476.426780,0.047735
476.762000,0.045052
477.097180,0.053600
477.432320,0.055735
477.767420,0.053105
478.102480,0.055118
478.437500,0.050082
478.772480,0.048069
479.107420,0.048820
479.442320,0.047962
479.777180,0.053302
480.112000,0.046995
480.446780,0.045207
480.781520,0.053140
481.116220,0.046079
481.450880,0.050742
481.785500,0.056962
482.120080,0.048589
482.454620,0.054390
482.789120,0.046975
483.123580,0.049065
483.458000,0.041930
483.792380,0.043930
484.126720,0.050193
484.461020,0.052303
484.795280,0.049345
485.129500,0.055339
485.463680,0.050388
485.797820,0.052877
486.131920,0.051262
486.465980,0.050965
486.800000,0.053435
487.133980,0.048338
487.467920,0.050497
487.801820,0.052632
488.135680,0.050796
488.469500,0.049168
488.803280,0.049034
489.137020,0.049084
489.470720,0.053412
489.804380,0.053452
490.138000,0.052671
490.471580,0.056743
490.805120,0.053610
491.138620,0.050462
491.472080,0.055830
491.805500,0.051604
492.138880,0.054899
492.472220,0.048443
492.805520,0.052374
493.138780,0.055134
493.472000,0.054181
493.805180,0.057299
494.138320,0.052702
494.471420,0.053385
494.804480,0.054334
495.137500,0.053273
495.470480,0.054175
495.803420,0.047859
496.136320,0.053258
496.469180,0.054021
496.802000,0.050733
497.134780,0.055791
497.467520,0.058716
497.800220,0.053656
498.132880,0.054086
498.465500,0.053882
498.798080,0.053082
499.130620,0.057271
499.463120,0.053902
499.795580,0.056106
500.128000,0.050136
500.460380,0.053283
500.792720,0.051432
501.125020,0.052023
501.457280,0.051175
501.789500,0.050620
502.121680,0.055469
502.453820,0.051504
502.785920,0.052026
503.117980,0.055447
503.450000,0.057258
503.781980,0.057299
504.113920,0.050735
504.445820,0.053962
504.777680,0.052706
505.109500,0.050962
505.441280,0.052103
505.773020,0.054486
506.104720,0.052285
506.436380,0.054898
506.768000,0.055192
507.099580,0.053089
507.431120,0.057611
507.762620,0.053102
508.094080,0.055150
508.425500,0.051354
508.756880,0.052583
509.088220,0.053818
509.419520,0.056331
509.750780,0.054827
510.082000,0.054571
510.413180,0.056195
510.744320,0.053843
511.075420,0.052704
511.406480,0.053597
511.737500,0.051852
512.068480,0.053102
512.399420,0.049765
512.730320,0.051270
513.061180,0.050428
513.392000,0.052532
513.722780,0.053794
514.053520,0.055582
514.384220,0.054234
514.714880,0.056486
515.045500,0.050766
515.376080,0.053269
515.706620,0.053093
516.037120,0.051471
516.367580,0.051750
516.698000,0.052451
517.028380,0.056107
517.358720,0.053333
517.689020,0.054402
518.019280,0.054691
518.349500,0.052205
518.679680,0.052499
519.009820,0.053138
519.339920,0.056613
519.669980,0.051231
520.000000,0.056037
520.329980,0.053914
520.659920,0.054703
520.989820,0.057276
521.319680,0.054527
521.649500,0.055013
521.979280,0.053758
522.309020,0.048755
522.638720,0.051715
522.968380,0.056360
523.298000,0.054802
523.627580,0.054320
523.957120,0.055584
524.286620,0.058364
524.616080,0.054809
524.945500,0.055297
525.274880,0.056439
525.604220,0.055901
525.933520,0.054507
526.262780,0.055753
526.592000,0.054287
526.921180,0.059929
527.250320,0.054795
527.579420,0.055078
527.908480,0.055145
528.237500,0.054121
528.566480,0.056387
528.895420,0.053721
529.224320,0.055968
529.553180,0.053976
529.882000,0.059854
530.210780,0.054054
530.539520,0.056088
530.868220,0.055529
531.196880,0.054945
531.525500,0.055206
531.854080,0.053002
532.182620,0.057450
532.511120,0.051972
532.839580,0.055808
533.168000,0.058341
533.496380,0.057991
533.824720,0.056976
534.153020,0.054391
534.481280,0.054185
534.809500,0.053650
535.137680,0.059896
535.465820,0.056271
535.793920,0.056684
536.121980,0.060008
536.450000,0.056660
536.777980,0.056137
537.105920,0.055625
537.433820,0.056874
537.761680,0.059184
538.089500,0.057467
538.417280,0.056506
538.745020,0.055468
539.072720,0.056228
539.400380,0.055944
539.728000,0.059273
540.055580,0.055805
540.383120,0.058824
540.710620,0.059896
541.038080,0.056806
541.365500,0.054412
541.692880,0.057049
542.020220,0.056495
542.347520,0.059584
542.674780,0.057163
543.002000,0.057033
543.329180,0.058576
543.656320,0.058368
543.983420,0.053333
544.310480,0.057764
544.637500,0.060048
544.964480,0.056528
545.291420,0.056497
545.618320,0.056109
545.945180,0.054713
546.272000,0.056029
546.598780,0.057686
546.925520,0.057369
547.252220,0.056124
547.578880,0.059629
547.905500,0.058170
548.232080,0.054256
548.558620,0.055971
548.885120,0.058554
549.211580,0.058181
549.538000,0.054799
549.864380,0.054019
550.190720,0.055861
550.517020,0.058670
550.843280,0.056352
551.169500,0.055980
551.495680,0.056505
551.821820,0.058785
552.147920,0.054001
552.473980,0.053013
552.800000,0.057554
553.125980,0.059267
553.451920,0.059058
553.777820,0.057961
554.103680,0.058645
554.429500,0.052896
554.755280,0.059413
555.081020,0.057152
555.406720,0.056553
555.732380,0.055236
556.058000,0.055329
556.383580,0.055460
556.709120,0.058580
557.034620,0.055804
557.360080,0.054922
557.685500,0.059129
558.010880,0.054073
558.336220,0.055536
558.661520,0.058135
558.986780,0.056343
559.312000,0.058048
559.637180,0.056732
559.962320,0.057316
560.287420,0.058181
560.612480,0.057051
560.937500,0.059104
561.262480,0.056818
561.587420,0.058760
561.912320,0.057848
562.237180,0.055514
562.562000,0.057987
562.886780,0.054998
563.211520,0.057377
563.536220,0.055288
563.860880,0.056205
564.185500,0.056285
564.510080,0.059819
564.834620,0.058802
565.159120,0.056767
565.483580,0.055492
565.808000,0.056754
566.132380,0.056695
566.456720,0.060469
566.781020,0.060390
567.105280,0.059735
567.429500,0.058801
567.753680,0.055619
568.077820,0.055663
568.401920,0.057678
568.725980,0.059583
569.050000,0.058555
569.373980,0.059003
569.697920,0.055745
570.021820,0.058801
570.345680,0.055874
570.669500,0.057230
570.993280,0.061646
571.317020,0.057362
571.640720,0.057799
571.964380,0.058278
572.288000,0.056751
572.611580,0.059154
572.935120,0.058361
573.258620,0.059088
573.582080,0.055887
573.905500,0.056590
574.228880,0.060505
574.552220,0.057530
574.875520,0.059196
575.198780,0.058909
575.522000,0.059018
575.845180,0.059097
576.168320,0.059289
576.491420,0.061410
576.814480,0.060398
577.137500,0.058081
577.460480,0.059442
577.783420,0.061451
578.106320,0.059117
578.429180,0.060092
578.752000,0.058354
579.074780,0.057653
579.397520,0.057134
579.720220,0.059846
580.042880,0.061447
580.365500,0.057578
580.688080,0.060719
581.010620,0.060412
581.333120,0.062792
581.655580,0.060273
581.978000,0.057532
582.300380,0.058747
582.622720,0.060646
582.945020,0.058192
583.267280,0.057962
583.589500,0.056822
583.911680,0.060019
584.233820,0.057602
584.555920,0.059250
584.877980,0.058731
585.200000,0.058625
585.521980,0.058387
585.843920,0.060708
586.165820,0.059415
586.487680,0.060488
586.809500,0.058506
587.131280,0.059450
587.453020,0.062202
587.774720,0.056475
588.096380,0.058635
588.418000,0.057653
588.739580,0.061512
589.061120,0.058942
589.382620,0.059599
589.704080,0.060870
590.025500,0.059932
590.346880,0.057898
590.668220,0.061607
590.989520,0.057127
591.310780,0.057443
591.632000,0.060929
591.953180,0.060614
592.274320,0.055965
592.595420,0.058728
592.916480,0.057593
593.237500,0.059822
593.558480,0.058111
593.879420,0.057729
594.200320,0.060273
594.521180,0.061089
594.842000,0.059108
595.162780,0.060630
595.483520,0.060622
595.804220,0.057465
596.124880,0.059419
596.445500,0.059209
596.766080,0.061307
597.086620,0.058652
597.407120,0.058189
597.727580,0.058605
598.048000,0.058715
598.368380,0.060757
598.688720,0.057929
599.009020,0.059448
599.329280,0.058276
599.649500,0.058637
599.969680,0.059829
600.289820,0.061432
600.609920,0.057708
600.929980,0.058792
601.250000,0.058649
601.569980,0.060221
601.889920,0.059342
602.209820,0.059524
602.529680,0.057676
602.849500,0.058374
603.169280,0.059796
603.489020,0.062275
603.808720,0.059243
604.128380,0.060430
604.448000,0.058564
604.767580,0.059497
605.087120,0.057618
605.406620,0.058494
605.726080,0.061306
606.045500,0.058791
606.364880,0.060675
606.684220,0.060537
607.003520,0.059920
607.322780,0.062536
607.642000,0.059449
607.961180,0.058109
608.280320,0.059165
608.599420,0.057648
608.918480,0.060411
609.237500,0.060153
609.556480,0.058005
609.875420,0.057885
610.194320,0.061411
610.513180,0.059189
610.832000,0.060453
611.150780,0.060378
611.469520,0.058220
611.788220,0.058343
612.106880,0.061218
612.425500,0.059074
612.744080,0.058787
613.062620,0.060550
613.381120,0.060024
613.699580,0.059779
614.018000,0.059889
614.336380,0.057989
614.654720,0.061085
614.973020,0.058624
615.291280,0.059188
615.609500,0.058320
615.927680,0.060878
616.245820,0.062461
616.563920,0.058750
616.881980,0.060804
617.200000,0.061897
617.517980,0.060050
617.835920,0.057471
618.153820,0.061237
618.471680,0.057674
618.789500,0.058213
619.107280,0.058216
619.425020,0.060577
619.742720,0.057125
620.060380,0.059229
620.378000,0.058527
620.695580,0.061303
621.013120,0.057638
621.330620,0.059931
621.648080,0.060883
621.965500,0.061794
622.282880,0.059584
622.600220,0.060644
622.917520,0.059546
623.234780,0.062359
623.552000,0.058880
623.869180,0.059565
624.186320,0.063037
624.503420,0.060502
624.820480,0.060006
625.137500,0.060309
625.454480,0.061269
625.771420,0.060530
626.088320,0.058323
626.405180,0.060983
626.722000,0.060540
627.038780,0.061404
627.355520,0.060937
627.672220,0.058787
627.988880,0.057854
628.305500,0.061078
628.622080,0.061648
628.938620,0.062691
629.255120,0.062228
629.571580,0.061600
629.888000,0.060141
630.204380,0.058607
630.520720,0.060024
630.837020,0.058896
631.153280,0.058753
631.469500,0.058520
631.785680,0.060579
632.101820,0.062123
632.417920,0.059016
632.733980,0.058523
633.050000,0.063675
633.365980,0.061648
633.681920,0.059666
633.997820,0.058577
634.313680,0.061339
634.629500,0.060454
634.945280,0.060997
635.261020,0.064866
635.576720,0.062243
635.892380,0.061574
636.208000,0.062464
636.523580,0.060509
636.839120,0.061089
637.154620,0.061159
637.470080,0.061406
637.785500,0.060082
638.100880,0.060237
638.416220,0.062698
638.731520,0.061032
639.046780,0.061462
639.362000,0.061927
639.677180,0.061965
639.992320,0.058641
640.307420,0.062096
640.622480,0.059647
640.937500,0.062968
641.252480,0.063390
641.567420,0.061097
641.882320,0.060690
642.197180,0.062325
642.512000,0.059054
642.826780,0.059362
643.141520,0.060850
643.456220,0.062811
643.770880,0.060531
644.085500,0.057854
644.400080,0.061236
644.714620,0.062152
645.029120,0.058581
645.343580,0.059243
645.658000,0.059395
645.972380,0.062483
646.286720,0.059962
646.601020,0.060061
646.915280,0.062791
647.229500,0.060440
647.543680,0.061033
647.857820,0.059455
648.171920,0.063483
648.485980,0.061661
648.800000,0.057867
649.113980,0.060421
649.427920,0.060749
649.741820,0.057983
650.055680,0.060614
650.369500,0.061099
650.683280,0.060211
650.997020,0.060781
651.310720,0.061365
651.624380,0.058791
651.938000,0.061496
652.251580,0.060952
652.565120,0.060089
652.878620,0.060248
653.192080,0.059270
653.505500,0.061992
653.818880,0.059426
654.132220,0.061521
654.445520,0.059274
654.758780,0.060340
655.072000,0.061032
655.385180,0.058773
655.698320,0.059446
656.011420,0.061909
656.324480,0.062081
656.637500,0.060834
656.950480,0.060188
657.263420,0.060893
657.576320,0.065224
657.889180,0.063403
658.202000,0.058273
658.514780,0.060435
658.827520,0.059724
659.140220,0.060533
659.452880,0.057686
659.765500,0.059904
660.078080,0.060187
660.390620,0.062634
660.703120,0.061717
661.015580,0.061963
661.328000,0.062657
661.640380,0.061510
661.952720,0.061352
662.265020,0.062697
662.577280,0.062977
662.889500,0.058657
663.201680,0.061902
663.513820,0.060148
663.825920,0.057957
664.137980,0.059470
664.450000,0.059463
664.761980,0.060556
665.073920,0.059396
665.385820,0.061191
665.697680,0.059835
666.009500,0.062521
666.321280,0.062956
666.633020,0.062500
666.944720,0.059656
667.256380,0.055518
667.568000,0.060802
667.879580,0.059184
668.191120,0.058723
668.502620,0.061623
668.814080,0.060702
669.125500,0.062949
669.436880,0.062586
669.748220,0.059882
670.059520,0.063025
670.370780,0.062978
670.682000,0.063363
670.993180,0.059901
671.304320,0.062236
671.615420,0.058949
671.926480,0.060326
672.237500,0.059664
672.548480,0.058907
672.859420,0.059328
673.170320,0.058397
673.481180,0.063360
673.792000,0.058781
674.102780,0.062478
674.413520,0.060518
674.724220,0.059891
675.034880,0.064173
675.345500,0.057987
675.656080,0.063521
675.966620,0.063296
676.277120,0.057854
676.587580,0.060015
676.898000,0.056738
677.208380,0.060259
677.518720,0.056528
677.829020,0.063562
678.139280,0.060415
678.449500,0.061270
678.759680,0.061072
679.069820,0.059851
679.379920,0.059977
679.689980,0.060156
680.000000,0.059065
680.309980,0.060505
680.619920,0.058690
680.929820,0.059724
681.239680,0.060192
681.549500,0.060370
681.859280,0.060119
682.169020,0.061171
682.478720,0.060957
682.788380,0.059801
683.098000,0.059835
683.407580,0.062289
683.717120,0.061937
684.026620,0.065889
684.336080,0.061387
684.645500,0.059858
684.954880,0.060824
685.264220,0.063798
685.573520,0.059764
685.882780,0.064058
686.192000,0.065839
686.501180,0.055997
686.810320,0.064181
687.119420,0.061193
687.428480,0.063046
687.737500,0.061781
688.046480,0.059433
688.355420,0.061109
688.664320,0.063122
688.973180,0.064319
689.282000,0.059028
689.590780,0.060199
689.899520,0.061907
690.208220,0.062309
690.516880,0.061474
690.825500,0.059245
691.134080,0.059605
691.442620,0.062881
691.751120,0.058020
692.059580,0.061521
692.368000,0.058690
692.676380,0.061069
692.984720,0.061069
693.293020,0.061930
693.601280,0.058375
693.909500,0.060159
694.217680,0.063214
694.525820,0.062833
694.833920,0.061808
695.141980,0.059776
695.450000,0.061450
695.757980,0.063789
696.065920,0.063301
696.373820,0.060046
696.681680,0.062908
696.989500,0.061752
697.297280,0.061455
697.605020,0.061508
697.912720,0.062260
698.220380,0.057851
698.528000,0.064478
698.835580,0.060450
699.143120,0.057677
699.450620,0.062053
699.758080,0.062353
700.065500,0.062251
700.372880,0.061600
700.680220,0.058636
700.987520,0.061508
701.294780,0.062855
701.602000,0.060222
701.909180,0.065580
702.216320,0.059445
702.523420,0.059195
702.830480,0.059802
703.137500,0.064692
703.444480,0.065878
703.751420,0.059961
704.058320,0.062525
704.365180,0.058754
704.672000,0.060198
704.978780,0.059696
705.285520,0.060250
705.592220,0.059216
705.898880,0.061072
706.205500,0.059468
706.512080,0.063981
706.818620,0.061146
707.125120,0.061538
707.431580,0.057835
707.738000,0.059375
708.044380,0.059437
708.350720,0.061139
708.657020,0.060180
708.963280,0.060171
709.269500,0.063014
709.575680,0.066405
709.881820,0.060142
710.187920,0.057977
710.493980,0.057797
710.800000,0.058352
711.105980,0.062123
711.411920,0.059519
711.717820,0.061598
712.023680,0.063739
712.329500,0.060726
712.635280,0.064341
712.941020,0.059528
713.246720,0.061660
713.552380,0.064757
713.858000,0.063067
714.163580,0.061957
714.469120,0.058226
714.774620,0.061192
715.080080,0.061641
715.385500,0.062750
715.690880,0.059961
715.996220,0.059033
716.301520,0.058498
716.606780,0.060928
716.912000,0.060985
717.217180,0.057063
717.522320,0.059245
717.827420,0.060618
718.132480,0.061020
718.437500,0.061557
718.742480,0.061694
719.047420,0.061893
719.352320,0.061021
719.657180,0.063778
719.962000,0.062035
720.266780,0.060241
720.571520,0.059652
720.876220,0.060966
721.180880,0.061037
721.485500,0.061429
721.790080,0.059448
722.094620,0.063465
722.399120,0.060319
722.703580,0.060866
723.008000,0.064683
723.312380,0.065863
723.616720,0.061198
723.921020,0.063231
724.225280,0.063264
724.529500,0.059107
724.833680,0.064502
725.137820,0.059471
725.441920,0.059741
725.745980,0.063087
726.050000,0.059991
726.353980,0.060388
726.657920,0.059379
726.961820,0.062100
727.265680,0.060102
727.569500,0.061243
727.873280,0.060046
728.177020,0.063105
728.480720,0.063426
728.784380,0.062001
729.088000,0.061705
729.391580,0.060635
729.695120,0.061900
729.998620,0.063576
730.302080,0.064873
730.605500,0.057254
730.908880,0.058795
731.212220,0.057297
731.515520,0.060946
731.818780,0.060194
732.122000,0.062500
732.425180,0.061114
732.728320,0.059990
733.031420,0.061654
733.334480,0.059694
733.637500,0.056956
733.940480,0.059365
734.243420,0.062691
734.546320,0.059129
734.849180,0.064566
735.152000,0.058610
735.454780,0.059401
735.757520,0.060590
736.060220,0.060558
736.362880,0.059874
736.665500,0.060052
736.968080,0.060183
737.270620,0.064235
737.573120,0.058406
737.875580,0.061572
738.178000,0.056614
738.480380,0.056216
738.782720,0.063250
739.085020,0.058370
739.387280,0.060421
739.689500,0.062288
739.991680,0.064570
740.293820,0.059149
740.595920,0.062326
740.897980,0.057030
741.200000,0.062255
741.501980,0.063037
741.803920,0.061374
742.105820,0.059222
742.407680,0.059988
742.709500,0.062500
743.011280,0.059203
743.313020,0.065507
743.614720,0.056878
743.916380,0.059302
744.218000,0.062649
744.519580,0.061594
744.821120,0.059880
745.122620,0.063511
745.424080,0.057692
745.725500,0.060954
746.026880,0.059729
746.328220,0.057953
746.629520,0.062011
746.930780,0.063725
747.232000,0.057633
747.533180,0.061013
747.834320,0.058430
748.135420,0.057800
748.436480,0.062383
748.737500,0.061149
749.038480,0.059255
749.339420,0.059739
749.640320,0.059711
749.941180,0.064959
750.242000,0.058417
750.542780,0.059553
750.843520,0.064061
751.144220,0.064744
751.444880,0.065948
751.745500,0.054545
752.046080,0.067351
752.346620,0.059923
752.647120,0.060745
752.947580,0.061449
753.248000,0.065119
753.548380,0.057905
753.848720,0.061816
754.149020,0.056738
754.449280,0.064347
754.749500,0.060385
755.049680,0.060667
755.349820,0.057372
755.649920,0.064772
755.949980,0.063703
756.250000,0.061801
756.549980,0.060066
756.849920,0.061863
757.149820,0.063207
757.449680,0.063366
757.749500,0.068166
758.049280,0.056655
758.349020,0.060501
758.648720,0.067633
758.948380,0.057045
759.248000,0.060647
759.547580,0.061870
759.847120,0.059959
760.146620,0.061570
760.446080,0.063844
760.745500,0.062937
761.044880,0.065341
761.344220,0.061297
761.643520,0.064972
761.942780,0.062981
762.242000,0.062235
762.541180,0.061972
762.840320,0.062500
763.139420,0.062588
763.438480,0.057416
763.737500,0.060648
764.036480,0.063592
764.335420,0.059986
764.634320,0.059598
764.933180,0.067808
765.232000,0.059681
765.530780,0.066667
765.829520,0.062937
766.128220,0.061935
766.426880,0.059701
766.725500,0.067855
767.024080,0.061043
767.322620,0.056708
767.621120,0.058943
767.919580,0.060068
768.218000,0.060876
768.516380,0.059500
768.814720,0.062414
769.113020,0.061337
769.411280,0.061464
769.709500,0.060217
770.007680,0.055896
770.305820,0.063556
770.603920,0.062668
770.901980,0.063525
771.200000,0.058424
771.497980,0.063673
771.795920,0.058863
772.093820,0.062834
772.391680,0.064601
772.689500,0.056757
772.987280,0.060606
773.285020,0.064252
773.582720,0.060135
773.880380,0.062457
774.178000,0.059305
774.475580,0.063630
774.773120,0.062918
775.070620,0.062880
775.368080,0.063460
775.665500,0.061786
775.962880,0.063376
776.260220,0.061911
776.557520,0.059373
776.854780,0.056119
777.152000,0.057692
777.449180,0.060013
777.746320,0.055780
778.043420,0.067531
778.340480,0.060217
778.637500,0.061528
778.934480,0.058507
779.231420,0.057666
779.528320,0.056780
779.825180,0.058630
780.122000,0.065737
780.418780,0.062244
780.715520,0.061704
781.012220,0.066438
781.308880,0.067613
781.605500,0.059589
781.902080,0.067762
782.198620,0.063568
782.495120,0.061728
782.791580,0.061898
783.088000,0.059351
783.384380,0.065337
783.680720,0.061560
783.977020,0.058500
784.273280,0.060140
784.569500,0.061495
784.865680,0.066759
785.161820,0.063889
785.457920,0.062370
785.753980,0.063503
786.050000,0.058702
786.345980,0.064583
786.641920,0.062457
786.937820,0.065527
787.233680,0.057759
787.529500,0.060333
787.825280,0.065864
788.121020,0.057365
788.416720,0.062103
788.712380,0.063470
789.008000,0.059490
789.303580,0.059364
789.599120,0.063273
789.894620,0.061372
790.190080,0.061639
790.485500,0.056875
790.780880,0.058781
791.076220,0.062771
791.371520,0.063907
791.666780,0.063273
791.962000,0.061719
792.257180,0.063690
792.552320,0.063814
792.847420,0.063319
793.142480,0.069597
793.437500,0.059334
793.732480,0.060717
794.027420,0.060831
794.322320,0.062640
794.617180,0.059435
794.912000,0.060178
795.206780,0.057420
795.501520,0.063878
795.796220,0.060000
796.090880,0.058779
796.385500,0.060720
796.680080,0.057592
796.974620,0.064371
797.269120,0.059046
797.563580,0.064885
797.858000,0.061503
798.152380,0.061098
798.446720,0.066154
798.741020,0.056240
799.035280,0.065217
799.329500,0.063895
799.623680,0.064341
