399.985280,0.040541
400.329500,0.094595
400.673680,0.037975
401.017820,-0.014706
401.361920,-0.075758
401.705980,0.060976
402.050000,0.000000
402.393980,0.070588
402.737920,0.033708
403.081820,0.061856
403.425680,0.011628
403.769500,0.000000
404.113280,-0.045977
404.457020,0.022472
404.800720,0.032609
405.144380,0.080808
405.488000,-0.021505
405.831580,0.072165
406.175120,0.063830
406.518620,0.070000
406.862080,0.092784
407.205500,0.010417
407.548880,0.020408
407.892220,0.039216
408.235520,0.063830
408.578780,0.057143
408.922000,0.057692
409.265180,0.090909
409.608320,0.050505
409.951420,0.061856
410.294480,0.088235
410.637500,-0.010870
410.980480,0.117647
411.323420,0.040816
411.666320,0.064220
412.009180,0.081818
412.352000,0.019802
412.694780,0.073394
413.037520,0.045872
413.380220,0.054054
413.722880,0.044643
414.065500,0.054054
414.408080,-0.026549
414.750620,0.000000
415.093120,0.024793
415.435580,0.033613
415.778000,0.053030
416.120380,0.033613
416.462720,0.047619
416.805020,0.052632
417.147280,0.037313
417.489500,0.064286
417.831680,0.027397
418.173820,0.007092
418.515920,0.055944
418.857980,0.050633
419.200000,0.025641
419.541980,0.094675
419.883920,0.039326
420.225820,0.028902
420.567680,0.061453
420.909500,0.076503
421.251280,0.067708
421.593020,0.045918
421.934720,0.015152
422.276380,0.020513
422.618000,0.039216
422.959580,0.068627
423.301120,0.054795
423.642620,0.021739
423.984080,0.013953
424.325500,0.017937
424.666880,0.060345
425.008220,0.025210
425.349520,0.038136
425.690780,0.046154
426.032000,0.039216
426.373180,0.045643
426.714320,0.046875
427.055420,0.030888
427.396480,0.056180
427.737500,0.031621
428.078480,0.035573
428.419420,0.040161
428.760320,0.045977
429.101180,0.066929
429.442000,0.042146
429.782780,0.050000
430.123520,0.054902
430.464220,0.044280
430.804880,0.053640
431.145500,0.040000
431.486080,0.052434
431.826620,0.046512
432.167120,0.055147
432.507580,0.050725
432.848000,0.046763
433.188380,0.039711
433.528720,0.045283
433.869020,0.046429
434.209280,0.010526
434.549500,0.055749
434.889680,0.047138
435.229820,0.047782
435.569920,0.034602
435.909980,0.042071
436.250000,0.074576
436.589980,0.030960
436.929920,0.057143
437.269820,0.028213
437.609680,0.059172
437.949500,0.042169
438.289280,0.048159
438.629020,0.090116
438.968720,0.043605
439.308380,0.046070
439.648000,0.046575
439.987580,0.063492
440.327120,0.056000
440.666620,0.059740
441.006080,0.043478
441.345500,0.036855
441.684880,0.052632
442.024220,0.039702
442.363520,0.033333
442.702780,0.027273
443.042000,0.039648
443.381180,0.056034
443.720320,0.060475
444.059420,0.035714
444.398480,0.031381
444.737500,0.045082
445.076480,0.055556
445.415420,0.049900
445.754320,0.045738
446.093180,0.049541
446.432000,0.046992
446.770780,0.055028
447.109520,0.047794
447.448220,0.057245
447.786880,0.050089
448.125500,0.055172
448.464080,0.048214
448.802620,0.058511
449.141120,0.055363
449.479580,0.052448
449.818000,0.049914
450.156380,0.045151
450.494720,0.042975
450.833020,0.047203
451.171280,0.047945
451.509500,0.050523
451.847680,0.045531
452.185820,0.060241
452.523920,0.065292
452.861980,0.050590
453.200000,0.053156
453.537980,0.058824
453.875920,0.058824
454.213820,0.047945
454.551680,0.057947
454.889500,0.059022
455.227280,0.040925
455.565020,0.058626
455.902720,0.058236
456.240380,0.043261
456.578000,0.040070
456.915580,0.050086
457.253120,0.042763
457.590620,0.062397
457.928080,0.045455
458.265500,0.052365
458.602880,0.048701
458.940220,0.042301
459.277520,0.051200
459.614780,0.054010
459.952000,0.043478
460.289180,0.055380
460.626320,0.048819
460.963420,0.046850
461.300480,0.053517
461.637500,0.038521
461.974480,0.053517
462.311420,0.055142
462.648320,0.049780
462.985180,0.048780
463.322000,0.047619
463.658780,0.037293
463.995520,0.049519
464.332220,0.045706
464.668880,0.055108
465.005500,0.048257
465.342080,0.042254
465.678620,0.043050
466.015120,0.055627
466.351580,0.054362
466.688000,0.057247
467.024380,0.046173
467.360720,0.045455
467.697020,0.051253
468.033280,0.056667
468.369500,0.051876
468.705680,0.048478
469.041820,0.051042
469.377920,0.049892
469.713980,0.052523
470.050000,0.056039
470.385980,0.049902
470.721920,0.047992
471.057820,0.053606
471.393680,0.053321
471.729500,0.050973
472.065280,0.055456
472.401020,0.053191
472.736720,0.050611
473.072380,0.053860
473.408000,0.049608
473.743580,0.044983
474.079120,0.052541
474.414620,0.046650
474.750080,0.048007
475.085500,0.053454
475.420880,0.052456
475.756220,0.052330
476.091520,0.045183
476.426780,0.051780
476.762000,0.046661
477.097180,0.052800
477.432320,0.050081
477.767420,0.050654
478.102480,0.055118
478.437500,0.050082
478.772480,0.046493
479.107420,0.050448
479.442320,0.048761
479.777180,0.050119
480.112000,0.053929
480.446780,0.049104
480.781520,0.054750
481.116220,0.050121
481.450880,0.056206
481.785500,0.053797
482.120080,0.057210
482.454620,0.052059
482.789120,0.050955
483.123580,0.055296
483.458000,0.047468
483.792380,0.045527
484.126720,0.054054
484.461020,0.055425
484.795280,0.056284
485.129500,0.057677
485.463680,0.050388
485.797820,0.055988
486.131920,0.048967
486.465980,0.048649
486.800000,0.053435
487.133980,0.049849
487.467920,0.052028
487.801820,0.054920
488.135680,0.051554
488.469500,0.051437
488.803280,0.050520
489.137020,0.052747
489.470720,0.054154
489.804380,0.050483
490.138000,0.052671
490.471580,0.049374
490.805120,0.052895
491.138620,0.053305
491.472080,0.057244
491.805500,0.052999
492.138880,0.054204
492.472220,0.051903
492.805520,0.055866
493.138780,0.057891
493.472000,0.056187
493.805180,0.054570
494.138320,0.052702
494.471420,0.055990
494.804480,0.053687
495.137500,0.055841
495.470480,0.059911
495.803420,0.055416
496.136320,0.052632
496.469180,0.053407
496.802000,0.047677
497.134780,0.053366
497.467520,0.055046
497.800220,0.052476
498.132880,0.052910
498.465500,0.053882
498.798080,0.051370
499.130620,0.056148
499.463120,0.053341
499.795580,0.054455
500.128000,0.054496
500.460380,0.055974
500.792720,0.055143
501.125020,0.051498
501.457280,0.048564
501.789500,0.054236
502.121680,0.054432
502.453820,0.053034
502.785920,0.056528
503.117980,0.056919
503.450000,0.056755
503.781980,0.053812
504.113920,0.051209
504.445820,0.052018
504.777680,0.051765
505.109500,0.052404
505.441280,0.051625
505.773020,0.051667
506.104720,0.050400
506.436380,0.050166
506.768000,0.057063
507.099580,0.053089
507.431120,0.053396
507.762620,0.054981
508.094080,0.055606
508.425500,0.054622
508.756880,0.053041
509.088220,0.055658
509.419520,0.053538
509.750780,0.054827
510.082000,0.054104
510.413180,0.053892
510.744320,0.053843
511.075420,0.054537
511.406480,0.054537
511.737500,0.053241
512.068480,0.054511
512.399420,0.054460
512.730320,0.052656
513.061180,0.051380
513.392000,0.052059
513.722780,0.055235
514.053520,0.056540
514.384220,0.051855
514.714880,0.055529
515.045500,0.052682
515.376080,0.052785
515.706620,0.052606
516.037120,0.055882
516.367580,0.054707
516.698000,0.051961
517.028380,0.058590
517.358720,0.052346
517.689020,0.053412
518.019280,0.052183
518.349500,0.054739
518.679680,0.055528
519.009820,0.055668
519.339920,0.056613
519.669980,0.054746
520.000000,0.057056
520.329980,0.053396
520.659920,0.055726
520.989820,0.053664
521.319680,0.055556
521.649500,0.051928
521.979280,0.058977
522.309020,0.054461
522.638720,0.048643
522.968380,0.055843
523.298000,0.050626
523.627580,0.054837
523.957120,0.055065
524.286620,0.055758
524.616080,0.057394
524.945500,0.059432
525.274880,0.056952
525.604220,0.053313
525.933520,0.054507
526.262780,0.053725
526.592000,0.056824
526.921180,0.060437
527.250320,0.053780
527.579420,0.059121
527.908480,0.053176
528.237500,0.059583
528.566480,0.055389
528.895420,0.060621
529.224320,0.053987
529.553180,0.054458
529.882000,0.059854
530.210780,0.054054
530.539520,0.051774
530.868220,0.055050
531.196880,0.055423
531.525500,0.059080
531.854080,0.055347
532.182620,0.058384
532.511120,0.056148
532.839580,0.054900
533.168000,0.058341
533.496380,0.061187
533.824720,0.057425
534.153020,0.057066
534.481280,0.054185
534.809500,0.056288
535.137680,0.053819
535.465820,0.058419
535.793920,0.055838
536.121980,0.057491
536.450000,0.057082
536.777980,0.056975
537.105920,0.056455
537.433820,0.056874
537.761680,0.056735
538.089500,0.056253
538.417280,0.053323
538.745020,0.057448
539.072720,0.055447
539.400380,0.058664
539.728000,0.056214
540.055580,0.053933
540.383120,0.056217
540.710620,0.056176
541.038080,0.058650
541.365500,0.054412
541.692880,0.056686
542.020220,0.057575
542.347520,0.061019
542.674780,0.054340
543.002000,0.055633
543.329180,0.055419
543.656320,0.058368
543.983420,0.055043
544.310480,0.056745
544.637500,0.055271
544.964480,0.058210
545.291420,0.058159
545.618320,0.058433
545.945180,0.057350
546.272000,0.055374
546.598780,0.054736
546.925520,0.057039
547.252220,0.056784
547.578880,0.059303
547.905500,0.054902
548.232080,0.057180
548.558620,0.055321
548.885120,0.055283
549.211580,0.055931
549.538000,0.059663
549.864380,0.057556
550.190720,0.054892
550.517020,0.056389
550.843280,0.057980
551.169500,0.054389
551.495680,0.056176
551.821820,0.056499
552.147920,0.057905
552.473980,0.056635
552.800000,0.054611
553.125980,0.055010
553.451920,0.059721
553.777820,0.056962
554.103680,0.057971
554.429500,0.054905
554.755280,0.055407
555.081020,0.057821
555.406720,0.056214
555.732380,0.055913
556.058000,0.055669
556.383580,0.056145
556.709120,0.059959
557.034620,0.058560
557.360080,0.055959
557.685500,0.059474
558.010880,0.055113
558.336220,0.056942
558.661520,0.060262
558.986780,0.057760
559.312000,0.056624
559.637180,0.057451
559.962320,0.058028
560.287420,0.059944
560.612480,0.055615
560.937500,0.058003
561.262480,0.055718
561.587420,0.054407
561.912320,0.059322
562.237180,0.057365
562.562000,0.057987
562.886780,0.060201
563.211520,0.058867
563.536220,0.057514
563.860880,0.056582
564.185500,0.060038
564.510080,0.057938
564.834620,0.052475
565.159120,0.054135
565.483580,0.058533
565.808000,0.057889
566.132380,0.057814
566.456720,0.055556
566.781020,0.061140
567.105280,0.057089
567.429500,0.056904
567.753680,0.057537
568.077820,0.056823
568.401920,0.058442
568.725980,0.057685
569.050000,0.057414
569.373980,0.058241
569.697920,0.058020
570.021820,0.057678
570.345680,0.058936
570.669500,0.057993
570.993280,0.056478
571.317020,0.057727
571.640720,0.055576
571.964380,0.058649
572.288000,0.062315
572.611580,0.060651
572.935120,0.061354
573.258620,0.058340
573.582080,0.058495
573.905500,0.057707
574.228880,0.060505
574.552220,0.057530
574.875520,0.057707
575.198780,0.059270
575.522000,0.058651
575.845180,0.059456
576.168320,0.058211
576.491420,0.061047
576.814480,0.058951
577.137500,0.063131
577.460480,0.060892
577.783420,0.059307
578.106320,0.059829
578.429180,0.062566
578.752000,0.059048
579.074780,0.057653
579.397520,0.057456
579.720220,0.058237
580.042880,0.058804
580.365500,0.058570
580.688080,0.059362
581.010620,0.058724
581.333120,0.060120
581.655580,0.061605
581.978000,0.060858
582.300380,0.059721
582.622720,0.061635
582.945020,0.060468
583.267280,0.058287
583.589500,0.059390
583.911680,0.057796
584.233820,0.056657
584.555920,0.060511
584.877980,0.056533
585.200000,0.057704
585.521980,0.058696
585.843920,0.061928
586.165820,0.058806
586.487680,0.056876
586.809500,0.058806
587.131280,0.058858
587.453020,0.061012
587.774720,0.057363
588.096380,0.059510
588.418000,0.060287
588.739580,0.060650
589.061120,0.058367
589.382620,0.058453
589.704080,0.059467
590.025500,0.058790
590.346880,0.057336
590.668220,0.061047
590.989520,0.060732
591.310780,0.059376
591.632000,0.059563
591.953180,0.061998
592.274320,0.058695
592.595420,0.059806
592.916480,0.059223
593.237500,0.060361
593.558480,0.058918
593.879420,0.057459
594.200320,0.061345
594.521180,0.060558
594.842000,0.060183
595.162780,0.059295
595.483520,0.059825
595.804220,0.056928
596.124880,0.061018
596.445500,0.059209
596.766080,0.060769
597.086620,0.059183
597.407120,0.060295
597.727580,0.059666
598.048000,0.060566
598.368380,0.059968
598.688720,0.057405
599.009020,0.061306
599.329280,0.060937
599.649500,0.058109
599.969680,0.060897
600.289820,0.059028
600.609920,0.059044
600.929980,0.058258
601.250000,0.057297
601.569980,0.060491
601.889920,0.061214
602.209820,0.057359
602.529680,0.060972
602.849500,0.060011
603.169280,0.058418
603.489020,0.062275
603.808720,0.059517
604.128380,0.058499
604.448000,0.059392
604.767580,0.058659
605.087120,0.059003
605.406620,0.057655
605.726080,0.061876
606.045500,0.060184
606.364880,0.060958
606.684220,0.059680
607.003520,0.059346
607.322780,0.059693
607.642000,0.058300
607.961180,0.055507
608.280320,0.059165
608.599420,0.059386
608.918480,0.058944
609.237500,0.054871
609.556480,0.060669
609.875420,0.059657
610.194320,0.058754
610.513180,0.062149
610.832000,0.058964
611.150780,0.057675
611.469520,0.060633
611.788220,0.059250
612.106880,0.062123
612.425500,0.059988
612.744080,0.060326
613.062620,0.058410
613.381120,0.058806
613.699580,0.060392
614.018000,0.060811
614.336380,0.058914
614.654720,0.061395
614.973020,0.061709
615.291280,0.061357
615.609500,0.061807
615.927680,0.061187
616.245820,0.059988
616.563920,0.060926
616.881980,0.060804
617.200000,0.060653
617.517980,0.057561
617.835920,0.058714
618.153820,0.058129
618.471680,0.058915
618.789500,0.059157
619.107280,0.059155
619.425020,0.061212
619.742720,0.059008
620.060380,0.061736
620.378000,0.061674
620.695580,0.060983
621.013120,0.057638
621.330620,0.062127
621.648080,0.061199
621.965500,0.058657
622.282880,0.059899
622.600220,0.058749
622.917520,0.059546
623.234780,0.059145
623.552000,0.057925
623.869180,0.058935
624.186320,0.062082
624.503420,0.057994
624.820480,0.061263
625.137500,0.060625
625.454480,0.058143
625.771420,0.060214
626.088320,0.058953
626.405180,0.060361
626.722000,0.061794
627.038780,0.060464
627.355520,0.059687
627.672220,0.059720
627.988880,0.062519
628.305500,0.060767
628.622080,0.061338
628.938620,0.061774
629.255120,0.062539
629.571580,0.060987
629.888000,0.059527
630.204380,0.058914
630.520720,0.062767
630.837020,0.061055
631.153280,0.061151
631.469500,0.060946
631.785680,0.061181
632.101820,0.061218
632.417920,0.061401
632.733980,0.061825
633.050000,0.063372
633.365980,0.058684
633.681920,0.057578
633.997820,0.058876
634.313680,0.063698
634.629500,0.060159
634.945280,0.059531
635.261020,0.063399
635.576720,0.059014
635.892380,0.059541
636.208000,0.061011
636.523580,0.061678
636.839120,0.059351
637.154620,0.060870
637.470080,0.059971
637.785500,0.063306
638.100880,0.062265
638.416220,0.060397
638.731520,0.059026
639.046780,0.060588
639.362000,0.061927
639.677180,0.063107
639.992320,0.062870
640.307420,0.061815
640.622480,0.061047
640.937500,0.060472
641.252480,0.060598
641.567420,0.059960
641.882320,0.058463
642.197180,0.059798
642.512000,0.062133
642.826780,0.061859
643.141520,0.060017
643.456220,0.061704
643.770880,0.062465
644.085500,0.062325
644.400080,0.059270
644.714620,0.058528
645.029120,0.062706
645.343580,0.058420
645.658000,0.059950
645.972380,0.062483
646.286720,0.060507
646.601020,0.062275
646.915280,0.061420
647.229500,0.061538
647.543680,0.063242
647.857820,0.060831
648.171920,0.059957
648.485980,0.060290
648.800000,0.061449
649.113980,0.059313
649.427920,0.061026
649.741820,0.060456
650.055680,0.061163
650.369500,0.059697
650.683280,0.061321
650.997020,0.061331
651.310720,0.059989
651.624380,0.061813
651.938000,0.062050
652.251580,0.060952
652.565120,0.059530
652.878620,0.061655
653.192080,0.058427
653.505500,0.059187
653.818880,0.063122
654.132220,0.060382
654.445520,0.059841
654.758780,0.059207
655.072000,0.062178
655.385180,0.059344
655.698320,0.060303
656.011420,0.057896
656.324480,0.059749
656.637500,0.061124
656.950480,0.058720
657.263420,0.060893
657.576320,0.056923
657.889180,0.059864
658.202000,0.059179
658.514780,0.059244
658.827520,0.061525
659.140220,0.061732
659.452880,0.060707
659.765500,0.060807
660.078080,0.058983
660.390620,0.059273
660.703120,0.062939
661.015580,0.061656
661.328000,0.063287
661.640380,0.059957
661.952720,0.061352
662.265020,0.064272
662.577280,0.062023
662.889500,0.063072
663.201680,0.062221
663.513820,0.059826
663.825920,0.060199
664.137980,0.061409
664.450000,0.061701
664.761980,0.061866
665.073920,0.060045
665.385820,0.060537
665.697680,0.060496
666.009500,0.060525
666.321280,0.062624
666.633020,0.062168
666.944720,0.059993
667.256380,0.060902
667.568000,0.060802
667.879580,0.062245
668.191120,0.059753
668.502620,0.062307
668.814080,0.060702
669.125500,0.056791
669.436880,0.062586
669.748220,0.061613
670.059520,0.060574
670.370780,0.061935
670.682000,0.060885
670.993180,0.062720
671.304320,0.058720
671.615420,0.058594
671.926480,0.060326
672.237500,0.060021
672.548480,0.061391
672.859420,0.061472
673.170320,0.062024
673.481180,0.059739
673.792000,0.061666
674.102780,0.061041
674.413520,0.058330
674.724220,0.057713
675.034880,0.060506
675.345500,0.060175
675.656080,0.062432
675.966620,0.062568
676.277120,0.062614
676.587580,0.061119
676.898000,0.061590
677.208380,0.061738
677.518720,0.058716
677.829020,0.061345
678.139280,0.060786
678.449500,0.063127
678.759680,0.061072
679.069820,0.060967
679.379920,0.064504
679.689980,0.059042
680.000000,0.057570
680.309980,0.059762
680.619920,0.062476
680.929820,0.059351
681.239680,0.062038
681.549500,0.063704
681.859280,0.062733
682.169020,0.063782
682.478720,0.064697
682.788380,0.059432
683.098000,0.059088
683.407580,0.059662
683.717120,0.062312
684.026620,0.062123
684.336080,0.059871
684.645500,0.059110
684.954880,0.060068
685.264220,0.062288
685.573520,0.065093
685.882780,0.062140
686.192000,0.062077
686.501180,0.058645
686.810320,0.061875
687.119420,0.063854
687.428480,0.061527
687.737500,0.064467
688.046480,0.060966
688.355420,0.062241
688.664320,0.061591
688.973180,0.063936
689.282000,0.058642
689.590780,0.057899
689.899520,0.059248
690.208220,0.065367
690.516880,0.061856
690.825500,0.060755
691.134080,0.063402
691.442620,0.060976
691.751120,0.058779
692.059580,0.061903
692.368000,0.060583
692.676380,0.059542
692.984720,0.059924
693.293020,0.061170
693.601280,0.058756
693.909500,0.060159
694.217680,0.061310
694.525820,0.065499
694.833920,0.062190
695.141980,0.060933
695.450000,0.061450
695.757980,0.061879
696.065920,0.062524
696.373820,0.061201
696.681680,0.060222
696.989500,0.060980
697.297280,0.059121
697.605020,0.062698
697.912720,0.064566
698.220380,0.061787
698.528000,0.062896
698.835580,0.059265
699.143120,0.063913
699.450620,0.063644
699.758080,0.060784
700.065500,0.062251
700.372880,0.060000
700.680220,0.057838
700.987520,0.059524
701.294780,0.060827
701.602000,0.061014
701.909180,0.062003
702.216320,0.059054
702.523420,0.062352
702.830480,0.061386
703.137500,0.063913
703.444480,0.065089
703.751420,0.062327
704.058320,0.059359
704.365180,0.062303
704.672000,0.059802
704.978780,0.063207
705.285520,0.061424
705.592220,0.061961
705.898880,0.063436
706.205500,0.065336
706.512080,0.061216
706.818620,0.061533
707.125120,0.060385
707.431580,0.060180
707.738000,0.060547
708.044380,0.060208
708.350720,0.062285
708.657020,0.059789
708.963280,0.060559
709.269500,0.060665
709.575680,0.062475
709.881820,0.058962
710.187920,0.060700
710.493980,0.061288
710.800000,0.060641
711.105980,0.059488
711.411920,0.059913
711.717820,0.061209
712.023680,0.062184
712.329500,0.058754
712.635280,0.062791
712.941020,0.057596
713.246720,0.059289
713.552380,0.063187
713.858000,0.061490
714.163580,0.062747
714.469120,0.059007
714.774620,0.061982
715.080080,0.062426
715.385500,0.060352
715.690880,0.059566
715.996220,0.059826
716.301520,0.060870
716.606780,0.060142
716.912000,0.060582
717.217180,0.060255
717.522320,0.058052
717.827420,0.061025
718.132480,0.060217
718.437500,0.058704
718.742480,0.060484
719.047420,0.060680
719.352320,0.058946
719.657180,0.061325
719.962000,0.061208
720.266780,0.060656
720.571520,0.061723
720.876220,0.060556
721.180880,0.060201
721.485500,0.063519
721.790080,0.061571
722.094620,0.063036
722.399120,0.060319
722.703580,0.060437
723.008000,0.064683
723.312380,0.059836
723.616720,0.060348
723.921020,0.061498
724.225280,0.062827
724.529500,0.060858
724.833680,0.061833
725.137820,0.058590
725.441920,0.061079
725.745980,0.061745
726.050000,0.061795
726.353980,0.057233
726.657920,0.059829
726.961820,0.062100
727.265680,0.058715
727.569500,0.058958
727.873280,0.059584
728.177020,0.063565
728.480720,0.060185
728.784380,0.061062
729.088000,0.058879
729.391580,0.060635
729.695120,0.060940
729.998620,0.058317
730.302080,0.062470
730.605500,0.054828
730.908880,0.061244
731.212220,0.061214
731.515520,0.064846
731.818780,0.062136
732.122000,0.063484
732.425180,0.059142
732.728320,0.068418
733.031420,0.060652
733.334480,0.059694
733.637500,0.058468
733.940480,0.058342
734.243420,0.062181
734.546320,0.058091
734.849180,0.059917
735.152000,0.061203
735.454780,0.056818
735.757520,0.062171
736.060220,0.060558
736.362880,0.061975
736.665500,0.062663
736.968080,0.064481
737.270620,0.060969
737.573120,0.062773
737.875580,0.062122
738.178000,0.057703
738.480380,0.060541
738.782720,0.063795
739.085020,0.063877
739.387280,0.062084
739.689500,0.065685
739.991680,0.067378
740.293820,0.065782
740.595920,0.064552
740.897980,0.057030
741.200000,0.064498
741.501980,0.064183
741.803920,0.065315
742.105820,0.063734
742.407680,0.062318
742.709500,0.057955
743.011280,0.061547
743.313020,0.063768
743.614720,0.057458
743.916380,0.056395
744.218000,0.065632
744.519580,0.062198
744.821120,0.063473
745.122620,0.059317
745.424080,0.061899
745.725500,0.066385
746.026880,0.057882
746.328220,0.062885
746.629520,0.060807
746.930780,0.063725
747.232000,0.060699
747.533180,0.057352
747.834320,0.065733
748.135420,0.062772
748.436480,0.063631
748.737500,0.066708
749.038480,0.062920
749.339420,0.061605
749.640320,0.059711
749.941180,0.060587
750.242000,0.057161
750.542780,0.060794
750.843520,0.064702
751.144220,0.061538
751.444880,0.066582
751.745500,0.057792
752.046080,0.060936
752.346620,0.060567
752.647120,0.060091
752.947580,0.060155
753.248000,0.062540
753.548380,0.061158
753.848720,0.059884
754.149020,0.056093
754.449280,0.061064
754.749500,0.055740
755.049680,0.060667
755.349820,0.060707
755.649920,0.058163
755.949980,0.061712
756.250000,0.061801
756.549980,0.063366
756.849920,0.063222
757.149820,0.059215
757.449680,0.064686
757.749500,0.059986
758.049280,0.063481
758.349020,0.060501
758.648720,0.064872
758.948380,0.059107
759.248000,0.061995
759.547580,0.059852
759.847120,0.059959
760.146620,0.062923
760.446080,0.058468
760.745500,0.058042
761.044880,0.055398
761.344220,0.062723
761.643520,0.066384
761.942780,0.063681
762.242000,0.064356
762.541180,0.058451
762.840320,0.061096
763.139420,0.061885
763.438480,0.058100
763.737500,0.061337
764.036480,0.062893
764.335420,0.062103
764.634320,0.056133
764.933180,0.064384
765.232000,0.062457
765.530780,0.063158
765.829520,0.062937
766.128220,0.063326
766.426880,0.061123
766.725500,0.063057
767.024080,0.058299
767.322620,0.062932
767.621120,0.064363
767.919580,0.058020
768.218000,0.060876
768.516380,0.059500
768.814720,0.060357
769.113020,0.062715
769.411280,0.064227
769.709500,0.061570
770.007680,0.055896
770.305820,0.060852
770.603920,0.062668
770.901980,0.064208
771.200000,0.065897
771.497980,0.061662
771.795920,0.062876
772.093820,0.061497
772.391680,0.065920
772.689500,0.061486
772.987280,0.058586
773.285020,0.060834
773.582720,0.058784
773.880380,0.059025
774.178000,0.060668
774.475580,0.065640
774.773120,0.057564
775.070620,0.065585
775.368080,0.062124
775.665500,0.061786
775.962880,0.065377
776.260220,0.063930
776.557520,0.064043
776.854780,0.065585
777.152000,0.058355
777.449180,0.062711
777.746320,0.056452
778.043420,0.061392
778.340480,0.060217
778.637500,0.066937
778.934480,0.058507
779.231420,0.061058
779.528320,0.060788
779.825180,0.060606
780.122000,0.063745
780.418780,0.069083
780.715520,0.059691
781.012220,0.067808
781.308880,0.062880
781.605500,0.060959
781.902080,0.060917
782.198620,0.059467
782.495120,0.062414
782.791580,0.060523
783.088000,0.060041
783.384380,0.066025
783.680720,0.064295
783.977020,0.064006
784.273280,0.062238
784.569500,0.056604
784.865680,0.061196
785.161820,0.063194
785.457920,0.060291
785.753980,0.059316
786.050000,0.062845
786.345980,0.064583
786.641920,0.061069
786.937820,0.064815
787.233680,0.066806
787.529500,0.063800
787.825280,0.063739
788.121020,0.060198
788.416720,0.062103
788.712380,0.063470
789.008000,0.062323
789.303580,0.060777
789.599120,0.063273
789.894620,0.064260
790.190080,0.060189
790.485500,0.061195
790.780880,0.060932
791.076220,0.060606
791.371520,0.066812
791.666780,0.069091
791.962000,0.058780
792.257180,0.058565
792.552320,0.064540
792.847420,0.061863
793.142480,0.065201
793.437500,0.055716
793.732480,0.062180
794.027420,0.058605
794.322320,0.058911
794.617180,0.061664
794.912000,0.059435
795.206780,0.061894
795.501520,0.061597
795.796220,0.058519
796.090880,0.062547
796.385500,0.056222
796.680080,0.060583
796.974620,0.059880
797.269120,0.063588
797.563580,0.064885
797.858000,0.067578
798.152380,0.062645
798.446720,0.066154
798.741020,0.057781
799.035280,0.064441
799.329500,0.062356
799.623680,0.062791
