399.985280,0.067568
400.329500,0.027027
400.673680,0.037975
401.017820,0.044118
401.361920,0.000000
401.705980,-0.024390
402.050000,0.000000
402.393980,0.058824
402.737920,0.033708
403.081820,0.061856
403.425680,0.046512
403.769500,0.010417
404.113280,-0.011494
404.457020,0.033708
404.800720,0.010870
405.144380,0.050505
405.488000,0.043011
405.831580,0.082474
406.175120,0.021277
406.518620,0.050000
406.862080,0.072165
407.205500,0.041667
407.548880,0.020408
407.892220,0.029412
408.235520,0.031915
408.578780,0.047619
408.922000,-0.009615
409.265180,0.050505
409.608320,0.030303
409.951420,0.072165
410.294480,0.098039
410.637500,-0.010870
410.980480,0.078431
411.323420,0.071429
411.666320,0.064220
412.009180,0.054545
412.352000,-0.019802
412.694780,0.064220
413.037520,0.000000
413.380220,0.081081
413.722880,0.089286
414.065500,0.054054
414.408080,0.035398
414.750620,0.044248
415.093120,-0.008264
415.435580,0.067227
415.778000,0.075758
416.120380,0.000000
416.462720,0.007937
416.805020,0.037594
417.147280,0.059701
417.489500,0.035714
417.831680,0.041096
418.173820,0.049645
418.515920,0.041958
418.857980,0.025316
419.200000,0.032051
419.541980,0.071006
419.883920,0.056180
420.225820,0.052023
420.567680,0.072626
420.909500,0.027322
421.251280,0.067708
421.593020,0.051020
421.934720,0.050505
422.276380,0.015385
422.618000,0.053922
422.959580,0.053922
423.301120,0.068493
423.642620,0.039130
423.984080,0.037209
424.325500,0.040359
424.666880,0.043103
425.008220,0.025210
425.349520,0.016949
425.690780,0.042308
426.032000,0.031373
426.373180,0.045643
426.714320,0.039062
427.055420,0.046332
427.396480,0.052434
427.737500,0.023715
428.078480,0.035573
428.419420,0.032129
428.760320,0.061303
429.101180,0.059055
429.442000,0.049808
429.782780,0.053846
430.123520,0.023529
430.464220,0.025830
430.804880,0.065134
431.145500,0.047273
431.486080,0.063670
431.826620,0.027132
432.167120,0.047794
432.507580,0.047101
432.848000,0.061151
433.188380,0.046931
433.528720,0.037736
433.869020,0.050000
434.209280,0.045614
434.549500,0.052265
434.889680,0.047138
435.229820,0.034130
435.569920,0.038062
435.909980,0.048544
436.250000,0.047458
436.589980,0.034056
436.929920,0.079365
437.269820,0.056426
437.609680,0.062130
437.949500,0.051205
438.289280,0.042493
438.629020,0.058140
438.968720,0.061047
439.308380,0.043360
439.648000,0.049315
439.987580,0.058201
440.327120,0.053333
440.666620,0.049351
441.006080,0.046036
441.345500,0.041769
441.684880,0.045455
442.024220,0.044665
442.363520,0.035714
442.702780,0.040909
443.042000,0.055066
443.381180,0.053879
443.720320,0.056156
444.059420,0.050420
444.398480,0.041841
444.737500,0.055328
445.076480,0.045635
445.415420,0.047904
445.754320,0.043659
446.093180,0.056881
446.432000,0.056391
446.770780,0.045541
447.109520,0.056985
447.448220,0.053667
447.786880,0.053667
448.125500,0.048276
448.464080,0.051786
448.802620,0.049645
449.141120,0.050173
449.479580,0.036713
449.818000,0.061962
450.156380,0.050167
450.494720,0.047934
450.833020,0.059441
451.171280,0.046233
451.509500,0.048780
451.847680,0.045531
452.185820,0.044750
452.523920,0.061856
452.861980,0.037099
453.200000,0.046512
453.537980,0.057143
453.875920,0.053782
454.213820,0.042808
454.551680,0.041391
454.889500,0.045531
455.227280,0.037367
455.565020,0.058626
455.902720,0.058236
456.240380,0.043261
456.578000,0.048780
456.915580,0.044905
457.253120,0.054276
457.590620,0.050903
457.928080,0.045455
458.265500,0.054054
458.602880,0.050325
458.940220,0.047377
459.277520,0.056000
459.614780,0.057283
459.952000,0.051242
460.289180,0.060127
460.626320,0.048819
460.963420,0.048465
461.300480,0.042813
461.637500,0.040062
461.974480,0.058104
462.311420,0.047690
462.648320,0.048316
462.985180,0.050215
463.322000,0.040179
463.658780,0.048343
463.995520,0.053645
464.332220,0.041551
464.668880,0.059140
465.005500,0.056300
465.342080,0.051216
465.678620,0.045510
466.015120,0.051746
466.351580,0.060683
466.688000,0.059683
467.024380,0.048603
467.360720,0.048864
467.697020,0.050114
468.033280,0.052222
468.369500,0.049669
468.705680,0.051860
469.041820,0.050000
469.377920,0.047722
469.713980,0.048404
470.050000,0.056039
470.385980,0.050881
470.721920,0.051910
471.057820,0.051657
471.393680,0.055192
471.729500,0.043559
472.065280,0.052773
472.401020,0.049645
472.736720,0.048866
473.072380,0.053860
473.408000,0.048738
473.743580,0.049308
474.079120,0.055986
474.414620,0.045802
474.750080,0.050448
475.085500,0.048520
475.420880,0.049126
475.756220,0.055601
476.091520,0.053708
476.426780,0.052589
476.762000,0.045052
477.097180,0.052800
477.432320,0.050889
477.767420,0.049020
478.102480,0.050394
478.437500,0.045156
478.772480,0.048857
479.107420,0.048820
479.442320,0.055955
479.777180,0.052506
480.112000,0.052388
480.446780,0.051442
480.781520,0.051530
481.116220,0.048504
481.450880,0.052303
481.785500,0.053006
482.120080,0.058777
482.454620,0.052836
482.789120,0.056529
483.123580,0.049065
483.458000,0.050633
483.792380,0.049521
484.126720,0.050193
484.461020,0.046838
484.795280,0.053200
485.129500,0.056118
485.463680,0.055039
485.797820,0.053655
486.131920,0.050497
486.465980,0.053282
486.800000,0.054198
487.133980,0.054381
487.467920,0.051262
487.801820,0.051869
488.135680,0.055345
488.469500,0.046899
488.803280,0.053492
489.137020,0.051282
489.470720,0.051929
489.804380,0.054937
490.138000,0.053412
490.471580,0.056006
490.805120,0.052895
491.138620,0.050462
491.472080,0.055124
491.805500,0.052999
492.138880,0.057679
492.472220,0.050519
492.805520,0.053771
493.138780,0.053756
493.472000,0.058194
493.805180,0.053888
494.138320,0.056037
494.471420,0.057292
494.804480,0.053687
495.137500,0.054557
495.470480,0.056087
495.803420,0.052267
496.136320,0.053885
496.469180,0.051565
496.802000,0.053790
497.134780,0.051546
497.467520,0.056269
497.800220,0.051297
498.132880,0.052910
498.465500,0.057358
498.798080,0.054224
499.130620,0.060640
499.463120,0.054464
499.795580,0.052805
500.128000,0.053406
500.460380,0.052745
500.792720,0.050371
501.125020,0.054125
501.457280,0.055352
501.789500,0.054752
502.121680,0.059098
502.453820,0.054054
502.785920,0.053527
503.117980,0.054956
503.450000,0.056253
503.781980,0.053812
504.113920,0.051683
504.445820,0.053476
504.777680,0.052706
505.109500,0.053365
505.441280,0.055927
505.773020,0.053077
506.104720,0.048987
506.436380,0.053952
506.768000,0.055659
507.099580,0.052174
507.431120,0.056206
507.762620,0.053102
508.094080,0.053327
508.425500,0.056956
508.756880,0.051212
509.088220,0.056578
509.419520,0.054469
509.750780,0.050609
510.082000,0.053172
510.413180,0.054813
510.744320,0.053382
511.075420,0.052704
511.406480,0.054067
511.737500,0.052315
512.068480,0.052632
512.399420,0.052113
512.730320,0.052194
513.061180,0.051380
513.392000,0.050639
513.722780,0.053794
514.053520,0.054145
514.384220,0.054234
514.714880,0.056008
515.045500,0.051245
515.376080,0.054237
515.706620,0.055528
516.037120,0.054902
516.367580,0.051257
516.698000,0.049020
517.028380,0.052632
517.358720,0.053827
517.689020,0.054402
518.019280,0.051681
518.349500,0.052205
518.679680,0.053508
519.009820,0.050607
519.339920,0.058617
519.669980,0.053742
520.000000,0.053490
520.329980,0.050285
520.659920,0.056237
520.989820,0.056244
521.319680,0.057613
521.649500,0.053470
521.979280,0.057411
522.309020,0.053423
522.638720,0.051203
522.968380,0.054292
523.298000,0.056367
523.627580,0.052768
523.957120,0.054026
524.286620,0.053153
524.616080,0.055326
524.945500,0.055297
525.274880,0.057465
525.604220,0.055383
525.933520,0.054507
526.262780,0.055753
526.592000,0.056317
526.921180,0.055866
527.250320,0.053272
527.579420,0.055078
527.908480,0.060069
528.237500,0.056107
528.566480,0.055389
528.895420,0.053228
529.224320,0.059435
529.553180,0.055904
529.882000,0.058881
530.210780,0.052606
530.539520,0.056568
530.868220,0.059837
531.196880,0.055901
531.525500,0.059080
531.854080,0.054878
532.182620,0.056516
532.511120,0.049652
532.839580,0.056715
533.168000,0.056518
533.496380,0.057078
533.824720,0.056079
534.153020,0.058850
534.481280,0.055507
534.809500,0.054969
535.137680,0.054253
535.465820,0.057131
535.793920,0.055415
536.121980,0.054973
536.450000,0.054968
536.777980,0.060746
537.105920,0.058946
537.433820,0.056056
537.761680,0.055102
538.089500,0.056253
538.417280,0.053323
538.745020,0.058241
539.072720,0.055447
539.400380,0.056333
539.728000,0.057361
540.055580,0.057303
540.383120,0.057334
540.710620,0.056548
541.038080,0.056068
541.365500,0.055515
541.692880,0.055596
542.020220,0.055056
542.347520,0.059584
542.674780,0.055399
543.002000,0.053884
543.329180,0.057173
543.656320,0.057314
543.983420,0.057436
544.310480,0.059803
544.637500,0.057318
544.964480,0.054509
545.291420,0.058159
545.618320,0.057769
545.945180,0.054384
546.272000,0.055046
546.598780,0.055392
546.925520,0.055061
547.252220,0.054804
547.578880,0.057022
547.905500,0.057516
548.232080,0.056205
548.558620,0.056622
548.885120,0.058554
549.211580,0.056895
549.538000,0.057069
549.864380,0.056270
550.190720,0.058767
550.517020,0.055411
550.843280,0.059935
551.169500,0.055025
551.495680,0.057819
551.821820,0.054866
552.147920,0.056929
552.473980,0.058940
552.800000,0.056573
553.125980,0.056974
553.451920,0.056735
553.777820,0.055630
554.103680,0.055949
554.429500,0.056913
554.755280,0.057076
555.081020,0.057821
555.406720,0.057569
555.732380,0.054219
556.058000,0.057366
556.383580,0.057172
556.709120,0.056168
557.034620,0.056149
557.360080,0.054922
557.685500,0.059820
558.010880,0.055113
558.336220,0.056591
558.661520,0.055654
558.986780,0.057406
559.312000,0.057336
559.637180,0.056373
559.962320,0.058740
560.287420,0.057475
560.612480,0.055257
560.937500,0.057269
561.262480,0.054985
561.587420,0.057671
561.912320,0.057111
562.237180,0.057735
562.562000,0.058736
562.886780,0.057971
563.211520,0.056259
563.536220,0.057514
563.860880,0.055828
564.185500,0.059662
564.510080,0.056057
564.834620,0.060662
565.159120,0.057519
565.483580,0.056252
565.808000,0.059402
566.132380,0.057068
566.456720,0.060469
566.781020,0.059265
567.105280,0.052930
567.429500,0.061077
567.753680,0.056770
568.077820,0.057596
568.401920,0.058442
568.725980,0.059583
569.050000,0.061217
569.373980,0.057480
569.697920,0.056504
570.021820,0.058427
570.345680,0.058171
570.669500,0.057612
570.993280,0.060170
571.317020,0.057727
571.640720,0.057058
571.964380,0.057164
572.288000,0.057493
572.611580,0.058405
572.935120,0.059858
573.258620,0.059461
573.582080,0.057750
573.905500,0.056217
574.228880,0.061990
574.552220,0.060828
574.875520,0.059940
575.198780,0.058547
575.522000,0.057918
575.845180,0.058739
576.168320,0.061085
576.491420,0.059956
576.814480,0.058951
577.137500,0.061688
577.460480,0.059442
577.783420,0.059307
578.106320,0.059117
578.429180,0.058324
578.752000,0.055922
579.074780,0.057653
579.397520,0.057779
579.720220,0.057915
580.042880,0.060126
580.365500,0.059894
580.688080,0.059701
581.010620,0.062774
581.333120,0.060788
581.655580,0.059607
581.978000,0.058863
582.300380,0.060370
582.622720,0.059987
582.945020,0.058843
583.267280,0.056985
583.589500,0.057143
583.911680,0.056843
584.233820,0.057287
584.555920,0.061141
584.877980,0.057161
585.200000,0.060160
585.521980,0.058387
585.843920,0.059182
586.165820,0.056673
586.487680,0.061089
586.809500,0.059106
587.131280,0.058267
587.453020,0.059524
587.774720,0.057067
588.096380,0.059218
588.418000,0.058531
588.739580,0.061799
589.061120,0.060667
589.382620,0.061891
589.704080,0.060309
590.025500,0.059361
590.346880,0.057055
590.668220,0.059927
590.989520,0.057959
591.310780,0.057995
591.632000,0.059836
591.953180,0.061722
592.274320,0.057603
592.595420,0.060075
592.916480,0.059223
593.237500,0.058744
593.558480,0.059726
593.879420,0.060156
594.200320,0.061077
594.521180,0.061089
594.842000,0.060720
595.162780,0.059562
595.483520,0.059293
595.804220,0.056928
596.124880,0.060218
596.445500,0.059995
596.766080,0.062920
597.086620,0.057856
597.407120,0.059768
597.727580,0.061522
598.048000,0.061095
598.368380,0.059968
598.688720,0.058716
599.009020,0.058386
599.329280,0.059872
599.649500,0.061278
599.969680,0.062500
600.289820,0.058226
600.609920,0.058242
600.929980,0.059861
601.250000,0.060270
601.569980,0.058871
601.889920,0.060144
602.209820,0.059524
602.529680,0.060423
602.849500,0.060556
603.169280,0.059521
603.489020,0.057847
603.808720,0.058969
604.128380,0.058775
604.448000,0.058011
604.767580,0.059218
605.087120,0.057064
605.406620,0.058214
605.726080,0.062161
606.045500,0.059627
606.364880,0.060958
606.684220,0.059680
607.003520,0.059060
607.322780,0.059693
607.642000,0.058300
607.961180,0.056953
608.280320,0.058875
608.599420,0.057937
608.918480,0.059824
609.237500,0.058979
609.556480,0.059189
609.875420,0.058771
610.194320,0.060821
610.513180,0.061853
610.832000,0.057475
611.150780,0.059778
611.469520,0.058824
611.788220,0.058948
612.106880,0.061821
612.425500,0.057856
612.744080,0.056941
613.062620,0.059327
613.381120,0.060938
613.699580,0.059473
614.018000,0.060197
614.336380,0.059531
614.654720,0.060465
614.973020,0.059858
615.291280,0.061047
615.609500,0.058637
615.927680,0.062423
616.245820,0.058751
616.563920,0.059061
616.881980,0.060493
617.200000,0.059720
617.517980,0.058494
617.835920,0.059025
618.153820,0.058750
618.471680,0.061395
618.789500,0.061989
619.107280,0.056338
619.425020,0.061529
619.742720,0.060264
620.060380,0.059542
620.378000,0.057583
620.695580,0.060026
621.013120,0.058898
621.330620,0.059931
621.648080,0.060883
621.965500,0.061481
622.282880,0.059899
622.600220,0.057486
622.917520,0.055766
623.234780,0.059466
623.552000,0.059198
623.869180,0.060511
624.186320,0.060172
624.503420,0.058934
624.820480,0.061891
625.137500,0.060625
625.454480,0.061582
625.771420,0.059899
626.088320,0.059269
626.405180,0.060983
626.722000,0.059285
627.038780,0.059524
627.355520,0.060000
627.672220,0.060342
627.988880,0.058787
628.305500,0.064194
628.622080,0.061958
628.938620,0.060245
629.255120,0.061294
629.571580,0.060067
629.888000,0.060755
630.204380,0.061062
630.520720,0.060024
630.837020,0.058896
631.153280,0.060252
631.469500,0.059733
631.785680,0.059976
632.101820,0.061520
632.417920,0.059911
632.733980,0.057923
633.050000,0.060643
633.365980,0.060166
633.681920,0.061456
633.997820,0.058876
634.313680,0.063403
634.629500,0.061929
634.945280,0.059238
635.261020,0.062812
635.576720,0.062830
635.892380,0.061284
636.208000,0.062464
636.523580,0.063724
636.839120,0.061089
637.154620,0.058841
637.470080,0.057963
637.785500,0.060961
638.100880,0.061396
638.416220,0.064711
638.731520,0.059026
639.046780,0.061462
639.362000,0.059346
639.677180,0.063392
639.992320,0.058359
640.307420,0.061253
640.622480,0.063008
640.937500,0.061581
641.252480,0.061715
641.567420,0.061665
641.882320,0.058463
642.197180,0.061202
642.512000,0.059894
642.826780,0.064078
643.141520,0.061684
643.456220,0.061981
643.770880,0.060807
644.085500,0.062325
644.400080,0.062360
644.714620,0.061873
645.029120,0.059956
645.343580,0.058969
645.658000,0.057452
645.972380,0.060290
646.286720,0.061052
646.601020,0.061998
646.915280,0.059227
647.229500,0.059890
647.543680,0.060481
647.857820,0.058904
648.171920,0.061313
648.485980,0.058372
648.800000,0.058969
649.113980,0.061530
649.427920,0.060194
649.741820,0.056884
650.055680,0.059243
650.369500,0.061659
650.683280,0.061043
650.997020,0.059956
651.310720,0.061090
651.624380,0.062637
651.938000,0.061219
652.251580,0.062065
652.565120,0.060089
652.878620,0.061655
653.192080,0.059270
653.505500,0.057784
653.818880,0.060563
654.132220,0.060097
654.445520,0.061826
654.758780,0.057224
655.072000,0.061032
655.385180,0.059058
655.698320,0.060875
656.011420,0.059616
656.324480,0.060915
656.637500,0.060545
656.950480,0.059307
657.263420,0.062371
657.576320,0.061073
657.889180,0.065173
658.202000,0.060688
658.514780,0.062816
658.827520,0.057323
659.140220,0.057836
659.452880,0.061915
659.765500,0.059302
660.078080,0.060488
660.390620,0.059273
660.703120,0.061106
661.015580,0.059816
661.328000,0.059824
661.640380,0.058093
661.952720,0.057926
662.265020,0.060807
662.577280,0.059160
662.889500,0.058972
663.201680,0.059349
663.513820,0.061113
663.825920,0.060199
664.137980,0.062702
664.450000,0.060102
664.761980,0.061538
665.073920,0.059396
665.385820,0.062173
665.697680,0.059174
666.009500,0.061856
666.321280,0.060636
666.633020,0.063830
666.944720,0.059319
667.256380,0.062248
667.568000,0.061821
667.879580,0.063946
668.191120,0.059066
668.502620,0.058542
668.814080,0.062105
669.125500,0.060554
669.436880,0.061203
669.748220,0.060228
670.059520,0.064776
670.370780,0.061935
670.682000,0.063363
670.993180,0.060606
671.304320,0.061885
671.615420,0.057884
671.926480,0.062456
672.237500,0.057521
672.548480,0.059617
672.859420,0.060043
673.170320,0.059848
673.481180,0.062274
673.792000,0.059863
674.102780,0.059246
674.413520,0.059424
674.724220,0.057350
675.034880,0.064173
675.345500,0.060540
675.656080,0.060617
675.966620,0.061477
676.277120,0.062614
676.587580,0.058174
676.898000,0.060844
677.208380,0.057301
677.518720,0.059081
677.829020,0.061345
678.139280,0.060415
678.449500,0.062384
678.759680,0.060697
679.069820,0.058736
679.379920,0.061486
679.689980,0.060899
680.000000,0.061308
680.309980,0.062732
680.619920,0.059069
680.929820,0.057857
681.239680,0.062038
681.549500,0.060000
681.859280,0.060119
682.169020,0.059306
682.478720,0.062827
682.788380,0.062754
683.098000,0.064323
683.407580,0.060788
683.717120,0.059685
684.026620,0.060241
684.336080,0.060250
684.645500,0.060606
684.954880,0.062335
685.264220,0.061533
685.573520,0.062429
685.882780,0.059839
686.192000,0.061701
686.501180,0.060537
686.810320,0.062644
687.119420,0.058913
687.428480,0.060008
687.737500,0.058327
688.046480,0.060966
688.355420,0.062241
688.664320,0.060061
688.973180,0.062787
689.282000,0.061343
689.590780,0.061350
689.899520,0.058109
690.208220,0.060780
690.516880,0.065292
690.825500,0.063774
691.134080,0.059226
691.442620,0.063262
691.751120,0.061813
692.059580,0.061521
692.368000,0.061340
692.676380,0.061069
692.984720,0.059924
693.293020,0.059271
693.601280,0.059901
693.909500,0.060537
694.217680,0.060929
694.525820,0.063976
694.833920,0.060282
695.141980,0.061705
695.450000,0.062214
695.757980,0.059206
696.065920,0.062524
696.373820,0.061586
696.681680,0.061757
696.989500,0.062524
697.297280,0.060288
697.605020,0.063095
697.912720,0.062260
698.220380,0.060606
698.528000,0.064082
698.835580,0.060450
699.143120,0.060016
699.450620,0.061257
699.758080,0.060392
700.065500,0.063847
700.372880,0.062400
700.680220,0.059832
700.987520,0.060317
701.294780,0.062044
701.602000,0.058241
701.909180,0.063990
702.216320,0.061400
702.523420,0.063141
702.830480,0.060198
703.137500,0.060405
703.444480,0.066667
703.751420,0.059566
704.058320,0.062920
704.365180,0.061909
704.672000,0.062574
704.978780,0.058525
705.285520,0.056338
705.592220,0.060784
705.898880,0.063042
706.205500,0.065336
706.512080,0.060032
706.818620,0.060759
707.125120,0.063462
707.431580,0.059789
707.738000,0.063281
708.044380,0.060208
708.350720,0.061139
708.657020,0.061352
708.963280,0.061724
709.269500,0.061840
709.575680,0.063261
709.881820,0.059748
710.187920,0.061089
710.493980,0.064391
710.800000,0.060259
711.105980,0.062500
711.411920,0.057942
711.717820,0.058480
712.023680,0.059075
712.329500,0.057177
712.635280,0.065504
712.941020,0.059528
713.246720,0.065217
713.552380,0.060440
713.858000,0.061884
714.163580,0.062352
714.469120,0.059007
714.774620,0.064351
715.080080,0.062426
715.385500,0.060352
715.690880,0.061144
715.996220,0.065372
716.301520,0.059289
716.606780,0.061321
716.912000,0.064216
717.217180,0.061053
717.522320,0.060040
717.827420,0.063059
718.132480,0.059012
718.437500,0.059927
718.742480,0.059274
719.047420,0.059061
719.352320,0.062267
719.657180,0.064186
719.962000,0.062862
720.266780,0.063565
720.571520,0.060481
720.876220,0.062602
721.180880,0.061037
721.485500,0.058504
721.790080,0.062845
722.094620,0.059605
722.399120,0.062904
722.703580,0.060009
723.008000,0.062096
723.312380,0.065002
723.616720,0.059074
723.921020,0.059333
724.225280,0.058901
724.529500,0.060858
724.833680,0.063167
725.137820,0.056828
725.441920,0.060633
725.745980,0.064430
726.050000,0.061795
726.353980,0.059937
726.657920,0.063878
726.961820,0.063014
727.265680,0.064263
727.569500,0.060786
727.873280,0.060508
728.177020,0.066329
728.480720,0.061111
728.784380,0.062471
729.088000,0.059350
729.391580,0.061108
729.695120,0.062860
729.998620,0.059273
730.302080,0.063912
730.605500,0.061135
730.908880,0.059285
731.212220,0.065132
731.515520,0.062409
731.818780,0.057767
732.122000,0.062500
732.425180,0.064071
732.728320,0.057511
733.031420,0.062155
733.334480,0.058673
733.637500,0.057460
733.940480,0.058854
734.243420,0.063201
734.546320,0.062759
734.849180,0.062500
735.152000,0.061203
735.454780,0.058884
735.757520,0.061117
736.060220,0.063191
736.362880,0.061975
736.665500,0.058486
736.968080,0.062869
737.270620,0.063691
737.573120,0.060590
737.875580,0.061572
738.178000,0.062058
738.480380,0.061622
738.782720,0.061069
739.085020,0.056167
739.387280,0.062084
739.689500,0.060023
739.991680,0.065132
740.293820,0.059149
740.595920,0.063996
740.897980,0.060418
741.200000,0.062255
741.501980,0.065903
741.803920,0.063626
742.105820,0.059222
742.407680,0.059988
742.709500,0.058523
743.011280,0.062720
743.313020,0.061449
743.614720,0.059779
743.916380,0.062791
744.218000,0.068616
744.519580,0.063406
744.821120,0.065868
745.122620,0.063511
745.424080,0.055889
745.725500,0.063368
746.026880,0.061576
746.328220,0.059803
746.629520,0.060205
746.930780,0.063725
747.232000,0.058860
747.533180,0.059793
747.834320,0.060256
748.135420,0.061529
748.436480,0.063007
748.737500,0.063620
749.038480,0.066585
749.339420,0.064717
749.640320,0.060339
749.941180,0.061836
750.242000,0.057789
750.542780,0.060174
750.843520,0.069186
751.144220,0.064744
751.444880,0.063412
751.745500,0.059740
752.046080,0.061578
752.346620,0.056701
752.647120,0.059438
752.947580,0.063389
753.248000,0.066409
753.548380,0.063110
753.848720,0.063748
754.149020,0.056738
754.449280,0.063690
754.749500,0.062376
755.049680,0.063333
755.349820,0.062708
755.649920,0.064111
755.949980,0.059058
756.250000,0.063774
756.549980,0.058086
756.849920,0.065942
757.149820,0.059215
757.449680,0.060726
757.749500,0.060668
758.049280,0.059386
758.349020,0.062587
758.648720,0.066943
758.948380,0.061856
759.248000,0.064690
759.547580,0.057835
759.847120,0.059269
760.146620,0.061570
760.446080,0.061156
760.745500,0.058741
761.044880,0.061790
761.344220,0.060584
761.643520,0.062147
761.942780,0.061582
762.242000,0.065064
762.541180,0.059155
762.840320,0.066011
763.139420,0.059775
763.438480,0.059467
763.737500,0.059959
764.036480,0.062194
764.335420,0.059986
764.634320,0.058905
764.933180,0.067123
765.232000,0.064539
765.530780,0.059649
765.829520,0.068531
766.128220,0.065414
766.426880,0.058991
766.725500,0.065113
767.024080,0.061043
767.322620,0.059474
767.621120,0.058943
767.919580,0.058020
768.218000,0.061560
768.516380,0.060852
768.814720,0.056927
769.113020,0.060648
769.411280,0.067680
769.709500,0.060217
770.007680,0.055215
770.305820,0.065585
770.603920,0.055256
770.901980,0.060792
771.200000,0.057745
771.497980,0.065684
771.795920,0.055518
772.093820,0.062834
772.391680,0.059987
772.689500,0.063514
772.987280,0.061279
773.285020,0.061517
773.582720,0.056757
773.880380,0.061771
774.178000,0.059986
774.475580,0.062960
774.773120,0.058902
775.070620,0.063556
775.368080,0.065464
775.665500,0.057757
775.962880,0.067378
776.260220,0.065276
776.557520,0.067378
776.854780,0.058824
777.152000,0.058355
777.449180,0.064059
777.746320,0.059812
778.043420,0.060027
778.340480,0.061570
778.637500,0.065585
778.934480,0.063215
779.231420,0.063094
779.528320,0.060788
779.825180,0.062582
780.122000,0.059761
780.418780,0.064295
780.715520,0.059691
781.012220,0.061644
781.308880,0.062204
781.605500,0.059589
781.902080,0.063655
782.198620,0.062201
782.495120,0.058985
782.791580,0.066025
783.088000,0.062802
783.384380,0.066713
783.680720,0.062927
783.977020,0.066070
784.273280,0.059441
784.569500,0.056604
784.865680,0.063978
785.161820,0.060417
785.457920,0.062370
785.753980,0.060712
786.050000,0.055939
786.345980,0.059722
786.641920,0.067314
786.937820,0.066239
787.233680,0.057063
787.529500,0.063800
787.825280,0.063031
788.121020,0.058782
788.416720,0.062809
788.712380,0.059944
789.008000,0.063031
789.303580,0.055830
789.599120,0.057455
789.894620,0.063538
790.190080,0.055112
790.485500,0.058315
790.780880,0.059498
791.076220,0.068543
791.371520,0.063181
791.666780,0.064727
791.962000,0.062454
792.257180,0.060761
792.552320,0.064540
792.847420,0.063319
793.142480,0.063736
793.437500,0.064399
793.732480,0.062911
794.027420,0.062315
794.322320,0.058911
794.617180,0.060921
794.912000,0.060178
795.206780,0.061148
795.501520,0.066920
795.796220,0.062963
796.090880,0.059533
796.385500,0.057721
796.680080,0.063575
796.974620,0.066617
797.269120,0.062074
797.563580,0.063359
797.858000,0.065300
798.152380,0.064192
798.446720,0.064615
798.741020,0.061633
799.035280,0.062112
799.329500,0.063895
799.623680,0.063566
