399.985280,0.081081
400.329500,0.027027
400.673680,0.012658
401.017820,0.000000
401.361920,-0.045455
401.705980,0.012195
402.050000,0.012987
402.393980,0.082353
402.737920,0.078652
403.081820,0.061856
403.425680,-0.046512
403.769500,-0.020833
404.113280,-0.045977
404.457020,0.067416
404.800720,0.010870
405.144380,0.090909
405.488000,0.032258
405.831580,0.082474
406.175120,0.021277
406.518620,0.050000
406.862080,0.092784
407.205500,0.020833
407.548880,0.030612
407.892220,0.019608
408.235520,0.085106
408.578780,0.057143
408.922000,0.019231
409.265180,0.040404
409.608320,0.020202
409.951420,0.092784
410.294480,0.039216
410.637500,0.043478
410.980480,0.039216
411.323420,0.040816
411.666320,0.045872
412.009180,0.054545
412.352000,-0.019802
412.694780,0.036697
413.037520,0.073394
413.380220,0.081081
413.722880,0.035714
414.065500,0.054054
414.408080,0.026549
414.750620,-0.026549
415.093120,0.008264
415.435580,0.033613
415.778000,0.068182
416.120380,0.025210
416.462720,0.023810
416.805020,0.097744
417.147280,0.052239
417.489500,0.057143
417.831680,0.020548
418.173820,0.021277
418.515920,0.027972
418.857980,0.037975
419.200000,0.057692
419.541980,0.053254
419.883920,0.028090
420.225820,0.040462
420.567680,0.039106
420.909500,0.065574
421.251280,0.057292
421.593020,0.056122
421.934720,0.050505
422.276380,0.030769
422.618000,0.058824
422.959580,0.053922
423.301120,0.068493
423.642620,0.034783
423.984080,0.041860
424.325500,0.031390
424.666880,0.056034
425.008220,0.050420
425.349520,0.042373
425.690780,0.042308
426.032000,0.043137
426.373180,0.033195
426.714320,0.050781
427.055420,0.054054
427.396480,0.071161
427.737500,0.039526
428.078480,0.051383
428.419420,0.052209
428.760320,0.049808
429.101180,0.078740
429.442000,0.049808
429.782780,0.038462
430.123520,0.035294
430.464220,0.040590
430.804880,0.065134
431.145500,0.047273
431.486080,0.044944
431.826620,0.046512
432.167120,0.055147
432.507580,0.050725
432.848000,0.039568
433.188380,0.050542
433.528720,0.041509
433.869020,0.050000
434.209280,0.031579
434.549500,0.062718
434.889680,0.050505
435.229820,0.034130
435.569920,0.027682
435.909980,0.045307
436.250000,0.047458
436.589980,0.024768
436.929920,0.063492
437.269820,0.034483
437.609680,0.059172
437.949500,0.060241
438.289280,0.033994
438.629020,0.052326
438.968720,0.055233
439.308380,0.043360
439.648000,0.046575
439.987580,0.039683
440.327120,0.058667
440.666620,0.046753
441.006080,0.040921
441.345500,0.036855
441.684880,0.047847
442.024220,0.034739
442.363520,0.047619
442.702780,0.045455
443.042000,0.046256
443.381180,0.051724
443.720320,0.056156
444.059420,0.044118
444.398480,0.037657
444.737500,0.051230
445.076480,0.041667
445.415420,0.051896
445.754320,0.056133
446.093180,0.056881
446.432000,0.043233
446.770780,0.053131
447.109520,0.058824
447.448220,0.057245
447.786880,0.053667
448.125500,0.044828
448.464080,0.048214
448.802620,0.046099
449.141120,0.048443
449.479580,0.050699
449.818000,0.053356
450.156380,0.051839
450.494720,0.056198
450.833020,0.055944
451.171280,0.049658
451.509500,0.052265
451.847680,0.048904
452.185820,0.053356
452.523920,0.042955
452.861980,0.052277
453.200000,0.051495
453.537980,0.047059
453.875920,0.055462
454.213820,0.044521
454.551680,0.049669
454.889500,0.053963
455.227280,0.037367
455.565020,0.060302
455.902720,0.058236
456.240380,0.046589
456.578000,0.055749
456.915580,0.050086
457.253120,0.050987
457.590620,0.054187
457.928080,0.042088
458.265500,0.042230
458.602880,0.055195
458.940220,0.040609
459.277520,0.054400
459.614780,0.054010
459.952000,0.051242
460.289180,0.060127
460.626320,0.045669
460.963420,0.053312
461.300480,0.045872
461.637500,0.041602
461.974480,0.053517
462.311420,0.049180
462.648320,0.052709
462.985180,0.045911
463.322000,0.041667
463.658780,0.045580
463.995520,0.041265
464.332220,0.047091
464.668880,0.047043
465.005500,0.049598
465.342080,0.048656
465.678620,0.051661
466.015120,0.050453
466.351580,0.055626
466.688000,0.057247
467.024380,0.051033
467.360720,0.046591
467.697020,0.053531
468.033280,0.056667
468.369500,0.049669
468.705680,0.049605
469.041820,0.048958
469.377920,0.057484
469.713980,0.055613
470.050000,0.060870
470.385980,0.054795
470.721920,0.053869
471.057820,0.051657
471.393680,0.057063
471.729500,0.046339
472.065280,0.050984
472.401020,0.047872
472.736720,0.055846
473.072380,0.048474
473.408000,0.046997
473.743580,0.045848
474.079120,0.060293
474.414620,0.046650
474.750080,0.052889
475.085500,0.055921
475.420880,0.053289
475.756220,0.049060
476.091520,0.049446
476.426780,0.051780
476.762000,0.045052
477.097180,0.051200
477.432320,0.051696
477.767420,0.048203
478.102480,0.049606
478.437500,0.048440
478.772480,0.048857
479.107420,0.050448
479.442320,0.051958
479.777180,0.054097
480.112000,0.052388
480.446780,0.049883
480.781520,0.047504
481.116220,0.047696
481.450880,0.056206
481.785500,0.050633
482.120080,0.055643
482.454620,0.052059
482.789120,0.055732
483.123580,0.053738
483.458000,0.051424
483.792380,0.048722
484.126720,0.056371
484.461020,0.054645
484.795280,0.055513
485.129500,0.050663
485.463680,0.049612
485.797820,0.052877
486.131920,0.052793
486.465980,0.050193
486.800000,0.054962
487.133980,0.049094
487.467920,0.052793
487.801820,0.052632
488.135680,0.053829
488.469500,0.046142
488.803280,0.050520
489.137020,0.052747
489.470720,0.052671
489.804380,0.056422
490.138000,0.053412
490.471580,0.059690
490.805120,0.050751
491.138620,0.050462
491.472080,0.057244
491.805500,0.049512
492.138880,0.052814
492.472220,0.053287
492.805520,0.049581
493.138780,0.059959
493.472000,0.056856
493.805180,0.053206
494.138320,0.052702
494.471420,0.056641
494.804480,0.053687
495.137500,0.053915
495.470480,0.057999
495.803420,0.055416
496.136320,0.055764
496.469180,0.050952
496.802000,0.051345
497.134780,0.054579
497.467520,0.058104
497.800220,0.053656
498.132880,0.049971
498.465500,0.050985
498.798080,0.053082
499.130620,0.055025
499.463120,0.057833
499.795580,0.055006
500.128000,0.048501
500.460380,0.054898
500.792720,0.048780
501.125020,0.053074
501.457280,0.055875
501.789500,0.053202
502.121680,0.056506
502.453820,0.054564
502.785920,0.053527
503.117980,0.053974
503.450000,0.056755
503.781980,0.056303
504.113920,0.051683
504.445820,0.052018
504.777680,0.053176
505.109500,0.053846
505.441280,0.052103
505.773020,0.049789
506.104720,0.051813
506.436380,0.055845
506.768000,0.053321
507.099580,0.050801
507.431120,0.057143
507.762620,0.053102
508.094080,0.051048
508.425500,0.054622
508.756880,0.052583
509.088220,0.054278
509.419520,0.054469
509.750780,0.051546
510.082000,0.054104
510.413180,0.053432
510.744320,0.055223
511.075420,0.054995
511.406480,0.051716
511.737500,0.050000
512.068480,0.052162
512.399420,0.051174
512.730320,0.052656
513.061180,0.049477
513.392000,0.053005
513.722780,0.055716
514.053520,0.051270
514.384220,0.050904
514.714880,0.057444
515.045500,0.047893
515.376080,0.054237
515.706620,0.053093
516.037120,0.051471
516.367580,0.049778
516.698000,0.053922
517.028380,0.055611
517.358720,0.053827
517.689020,0.056874
518.019280,0.051179
518.349500,0.054739
518.679680,0.052499
519.009820,0.049595
519.339920,0.064629
519.669980,0.054746
520.000000,0.056546
520.329980,0.054432
520.659920,0.055726
520.989820,0.060372
521.319680,0.060185
521.649500,0.050900
521.979280,0.055324
522.309020,0.052386
522.638720,0.047107
522.968380,0.055843
523.298000,0.053758
523.627580,0.049146
523.957120,0.052987
524.286620,0.055237
524.616080,0.055326
524.945500,0.055814
525.274880,0.056952
525.604220,0.054348
525.933520,0.051887
526.262780,0.051698
526.592000,0.054795
526.921180,0.058405
527.250320,0.051750
527.579420,0.054068
527.908480,0.058099
528.237500,0.057100
528.566480,0.058882
528.895420,0.057171
529.224320,0.056959
529.553180,0.058313
529.882000,0.059854
530.210780,0.053571
530.539520,0.052733
530.868220,0.056486
531.196880,0.053989
531.525500,0.060533
531.854080,0.054878
532.182620,0.056516
532.511120,0.055220
532.839580,0.059891
533.168000,0.060164
533.496380,0.057534
533.824720,0.054284
534.153020,0.056175
534.481280,0.057709
534.809500,0.059807
535.137680,0.058594
535.465820,0.056701
535.793920,0.055415
536.121980,0.057910
536.450000,0.052008
536.777980,0.061165
537.105920,0.057700
537.433820,0.055237
537.761680,0.056735
538.089500,0.051801
538.417280,0.055710
538.745020,0.057845
539.072720,0.056228
539.400380,0.055944
539.728000,0.056214
540.055580,0.057678
540.383120,0.054728
540.710620,0.058408
541.038080,0.056437
541.365500,0.051838
541.692880,0.053416
542.020220,0.056135
542.347520,0.055994
542.674780,0.058222
543.002000,0.056683
543.329180,0.060680
543.656320,0.058017
543.983420,0.057094
544.310480,0.054706
544.637500,0.056295
544.964480,0.055518
545.291420,0.057827
545.618320,0.055777
545.945180,0.054054
546.272000,0.053408
546.598780,0.058997
546.925520,0.055061
547.252220,0.054804
547.578880,0.056044
547.905500,0.056536
548.232080,0.055556
548.558620,0.057273
548.885120,0.057246
549.211580,0.057859
549.538000,0.056744
549.864380,0.055949
550.190720,0.055861
550.517020,0.057692
550.843280,0.058958
551.169500,0.056934
551.495680,0.056505
551.821820,0.058785
552.147920,0.056929
552.473980,0.056306
552.800000,0.057227
553.125980,0.055665
553.451920,0.057399
553.777820,0.060626
554.103680,0.057971
554.429500,0.053565
554.755280,0.058411
555.081020,0.057487
555.406720,0.057569
555.732380,0.055236
556.058000,0.055329
556.383580,0.057857
556.709120,0.057547
557.034620,0.057182
557.360080,0.055613
557.685500,0.057054
558.010880,0.058232
558.336220,0.056239
558.661520,0.058844
558.986780,0.055634
559.312000,0.055556
559.637180,0.058528
559.962320,0.059452
560.287420,0.058533
560.612480,0.057051
560.937500,0.058370
561.262480,0.057551
561.587420,0.056946
561.912320,0.060796
562.237180,0.057365
562.562000,0.057987
562.886780,0.058714
563.211520,0.058867
563.536220,0.058256
563.860880,0.055451
564.185500,0.056660
564.510080,0.057938
564.834620,0.056941
565.159120,0.054511
565.483580,0.057393
565.808000,0.055619
566.132380,0.059679
566.456720,0.060091
566.781020,0.058890
567.105280,0.057467
567.429500,0.058422
567.753680,0.056387
568.077820,0.057982
568.401920,0.059969
568.725980,0.061480
569.050000,0.059696
569.373980,0.060145
569.697920,0.057641
570.021820,0.056554
570.345680,0.057023
570.669500,0.057230
570.993280,0.062385
571.317020,0.057362
571.640720,0.058170
571.964380,0.058649
572.288000,0.060460
572.611580,0.057656
572.935120,0.056865
573.258620,0.058340
573.582080,0.060730
573.905500,0.058824
574.228880,0.058649
574.552220,0.057164
574.875520,0.059196
575.198780,0.059270
575.522000,0.057918
575.845180,0.057665
576.168320,0.057492
576.491420,0.059956
576.814480,0.056781
577.137500,0.056277
577.460480,0.055817
577.783420,0.055734
578.106320,0.058048
578.429180,0.059385
578.752000,0.058701
579.074780,0.061362
579.397520,0.059393
579.720220,0.061133
580.042880,0.058804
580.365500,0.060887
580.688080,0.060041
581.010620,0.058049
581.333120,0.061122
581.655580,0.057609
581.978000,0.060858
582.300380,0.059396
582.622720,0.059328
582.945020,0.062744
583.267280,0.059590
583.589500,0.060353
583.911680,0.057796
584.233820,0.056657
584.555920,0.061141
584.877980,0.058103
585.200000,0.058318
585.521980,0.058696
585.843920,0.059793
586.165820,0.055759
586.487680,0.058983
586.809500,0.060606
587.131280,0.057971
587.453020,0.061012
587.774720,0.059137
588.096380,0.058343
588.418000,0.058824
588.739580,0.060937
589.061120,0.059517
589.382620,0.057307
589.704080,0.058345
590.025500,0.058505
590.346880,0.057898
590.668220,0.059367
590.989520,0.058236
591.310780,0.055233
591.632000,0.059836
591.953180,0.061722
592.274320,0.058695
592.595420,0.059806
592.916480,0.058136
593.237500,0.061708
593.558480,0.059188
593.879420,0.059347
594.200320,0.057862
594.521180,0.060027
594.842000,0.059645
595.162780,0.057158
595.483520,0.057432
595.804220,0.058002
596.124880,0.059686
596.445500,0.059733
596.766080,0.061576
597.086620,0.059979
597.407120,0.059242
597.727580,0.059136
598.048000,0.063475
598.368380,0.059968
598.688720,0.059502
599.009020,0.060510
599.329280,0.060671
599.649500,0.059694
599.969680,0.058494
600.289820,0.058226
600.609920,0.056906
600.929980,0.059327
601.250000,0.059730
601.569980,0.058331
601.889920,0.060144
602.209820,0.057089
602.529680,0.060423
602.849500,0.058920
603.169280,0.060623
603.489020,0.057016
603.808720,0.058969
604.128380,0.058775
604.448000,0.057459
604.767580,0.058380
605.087120,0.061219
605.406620,0.059894
605.726080,0.062161
606.045500,0.058233
606.364880,0.060675
606.684220,0.059966
607.003520,0.060493
607.322780,0.060546
607.642000,0.058874
607.961180,0.056086
608.280320,0.059165
608.599420,0.059096
608.918480,0.060117
609.237500,0.058392
609.556480,0.058597
609.875420,0.060248
610.194320,0.059345
610.513180,0.062149
610.832000,0.061048
611.150780,0.060078
611.469520,0.060332
611.788220,0.058041
612.106880,0.061520
612.425500,0.057552
612.744080,0.060326
613.062620,0.058410
613.381120,0.059415
613.699580,0.058553
614.018000,0.060811
614.336380,0.056447
614.654720,0.058605
614.973020,0.060167
615.291280,0.058878
615.609500,0.061173
615.927680,0.060878
616.245820,0.061224
616.563920,0.060305
616.881980,0.062052
617.200000,0.060964
617.517980,0.057561
617.835920,0.059025
618.153820,0.059372
618.471680,0.058915
618.789500,0.060415
619.107280,0.060720
619.425020,0.060260
619.742720,0.059008
620.060380,0.060483
620.378000,0.057269
620.695580,0.059706
621.013120,0.060787
621.330620,0.057421
621.648080,0.056467
621.965500,0.059598
622.282880,0.060530
622.600220,0.060644
622.917520,0.061752
623.234780,0.058181
623.552000,0.060153
623.869180,0.059250
624.186320,0.062719
624.503420,0.058934
624.820480,0.062520
625.137500,0.060941
625.454480,0.061894
625.771420,0.058008
626.088320,0.059269
626.405180,0.057250
626.722000,0.060853
627.038780,0.062030
627.355520,0.061250
627.672220,0.059409
627.988880,0.061897
628.305500,0.062013
628.622080,0.060719
628.938620,0.061468
629.255120,0.061294
629.571580,0.059148
629.888000,0.060448
630.204380,0.058607
630.520720,0.061548
630.837020,0.056429
631.153280,0.060851
631.469500,0.061856
631.785680,0.059373
632.101820,0.060917
632.417920,0.059314
632.733980,0.059424
633.050000,0.063372
633.365980,0.059277
633.681920,0.060561
633.997820,0.061267
634.313680,0.060454
634.629500,0.058980
634.945280,0.058944
635.261020,0.063105
635.576720,0.061950
635.892380,0.061284
636.208000,0.062173
636.523580,0.061093
636.839120,0.060220
637.154620,0.061739
637.470080,0.060545
637.785500,0.062720
638.100880,0.062554
638.416220,0.063273
638.731520,0.059599
639.046780,0.062045
639.362000,0.058773
639.677180,0.063107
639.992320,0.060333
640.307420,0.060972
640.622480,0.063008
640.937500,0.058252
641.252480,0.060039
641.567420,0.058824
641.882320,0.062082
642.197180,0.062605
642.512000,0.055695
642.826780,0.057420
643.141520,0.061128
643.456220,0.058937
643.770880,0.059149
644.085500,0.058971
644.400080,0.061517
644.714620,0.064660
645.029120,0.059956
645.343580,0.061711
645.658000,0.063836
645.972380,0.061113
646.286720,0.061870
646.601020,0.062829
646.915280,0.060598
647.229500,0.060165
647.543680,0.062690
647.857820,0.060556
648.171920,0.062398
648.485980,0.060016
648.800000,0.060072
649.113980,0.061253
649.427920,0.059917
649.741820,0.060181
650.055680,0.061163
650.369500,0.061099
650.683280,0.061321
650.997020,0.062156
651.310720,0.059439
651.624380,0.061538
651.938000,0.061496
652.251580,0.059004
652.565120,0.058413
652.878620,0.061374
653.192080,0.060674
653.505500,0.058065
653.818880,0.061985
654.132220,0.061806
654.445520,0.059558
654.758780,0.058924
655.072000,0.061032
655.385180,0.057632
655.698320,0.060875
656.011420,0.059903
656.324480,0.060332
656.637500,0.060834
656.950480,0.061656
657.263420,0.060302
657.576320,0.057812
657.889180,0.062813
658.202000,0.060386
658.514780,0.061328
658.827520,0.060324
659.140220,0.061432
659.452880,0.058895
659.765500,0.058700
660.078080,0.059886
660.390620,0.056829
660.703120,0.062634
661.015580,0.061963
661.328000,0.060453
661.640380,0.060888
661.952720,0.062286
662.265020,0.063327
662.577280,0.061069
662.889500,0.059603
663.201680,0.061583
663.513820,0.059826
663.825920,0.059238
664.137980,0.061409
664.450000,0.058184
664.761980,0.060556
665.073920,0.060045
665.385820,0.061518
665.697680,0.059504
666.009500,0.062521
666.321280,0.063287
666.633020,0.062832
666.944720,0.057297
667.256380,0.060565
667.568000,0.062160
667.879580,0.061565
668.191120,0.059066
668.502620,0.061280
668.814080,0.061754
669.125500,0.060212
669.436880,0.062241
669.748220,0.060228
670.059520,0.063375
670.370780,0.059499
670.682000,0.060177
670.993180,0.059549
671.304320,0.061533
671.615420,0.059659
671.926480,0.061391
672.237500,0.057521
672.548480,0.060681
672.859420,0.062545
673.170320,0.061299
673.481180,0.060825
673.792000,0.060224
674.102780,0.056014
674.413520,0.057601
674.724220,0.062069
675.034880,0.061973
675.345500,0.060175
675.656080,0.060617
675.966620,0.064751
676.277120,0.061882
676.587580,0.060015
676.898000,0.054125
677.208380,0.059150
677.518720,0.056893
677.829020,0.060606
678.139280,0.057821
678.449500,0.063498
678.759680,0.058449
679.069820,0.062454
679.379920,0.064881
679.689980,0.062013
680.000000,0.059813
680.309980,0.058649
680.619920,0.060962
680.929820,0.060470
681.239680,0.061300
681.549500,0.060741
681.859280,0.061613
682.169020,0.061171
682.478720,0.065071
682.788380,0.061646
683.098000,0.063575
683.407580,0.061538
683.717120,0.059685
684.026620,0.061747
684.336080,0.061766
684.645500,0.057239
684.954880,0.059690
685.264220,0.061910
685.573520,0.062429
685.882780,0.062908
686.192000,0.060196
686.501180,0.058267
686.810320,0.062260
687.119420,0.060433
687.428480,0.059628
687.737500,0.062548
688.046480,0.062117
688.355420,0.065258
688.664320,0.062739
688.973180,0.064701
689.282000,0.057870
689.590780,0.059433
689.899520,0.060767
690.208220,0.061927
690.516880,0.063001
690.825500,0.060377
691.134080,0.061503
691.442620,0.057165
691.751120,0.058779
692.059580,0.061903
692.368000,0.060204
692.676380,0.064885
692.984720,0.064122
693.293020,0.060410
693.601280,0.061427
693.909500,0.060537
694.217680,0.060168
694.525820,0.063595
694.833920,0.060282
695.141980,0.059776
695.450000,0.059542
695.757980,0.064935
696.065920,0.062913
696.373820,0.061586
696.681680,0.058688
696.989500,0.062910
697.297280,0.058343
697.605020,0.062698
697.912720,0.064566
698.220380,0.062180
698.528000,0.064082
698.835580,0.060450
699.143120,0.061574
699.450620,0.058870
699.758080,0.063137
700.065500,0.061053
700.372880,0.058800
700.680220,0.060630
700.987520,0.061508
701.294780,0.061638
701.602000,0.062599
701.909180,0.063593
702.216320,0.061009
702.523420,0.061563
702.830480,0.064554
703.137500,0.062744
703.444480,0.064300
703.751420,0.058383
704.058320,0.059359
704.365180,0.062697
704.672000,0.062970
704.978780,0.060866
705.285520,0.057121
705.592220,0.059608
705.898880,0.063436
706.205500,0.067684
706.512080,0.063191
706.818620,0.061533
707.125120,0.063077
707.431580,0.058226
707.738000,0.060156
708.044380,0.059822
708.350720,0.059228
708.657020,0.059007
708.963280,0.063665
709.269500,0.064188
709.575680,0.060904
709.881820,0.061321
710.187920,0.060311
710.493980,0.062064
710.800000,0.064073
711.105980,0.059864
711.411920,0.057942
711.717820,0.060819
712.023680,0.061407
712.329500,0.059148
712.635280,0.063953
712.941020,0.062621
713.246720,0.060870
713.552380,0.062402
713.858000,0.059913
714.163580,0.062352
714.469120,0.060571
714.774620,0.061982
715.080080,0.061249
715.385500,0.061551
715.690880,0.058777
715.996220,0.062599
716.301520,0.062846
716.606780,0.060928
716.912000,0.063005
717.217180,0.058260
717.522320,0.061630
717.827420,0.061025
718.132480,0.060618
718.437500,0.062373
718.742480,0.062097
719.047420,0.060275
719.352320,0.061436
719.657180,0.060916
719.962000,0.060794
720.266780,0.062734
720.571520,0.057167
720.876220,0.058920
721.180880,0.059783
721.485500,0.058922
721.790080,0.062845
722.094620,0.063036
722.399120,0.060319
722.703580,0.057008
723.008000,0.061233
723.312380,0.062850
723.616720,0.058649
723.921020,0.058467
724.225280,0.058464
724.529500,0.062609
724.833680,0.065836
725.137820,0.060793
725.441920,0.059741
725.745980,0.064877
726.050000,0.063148
726.353980,0.058585
726.657920,0.060729
726.961820,0.062100
727.265680,0.061951
727.569500,0.061700
727.873280,0.055427
728.177020,0.064026
728.480720,0.062037
728.784380,0.067168
729.088000,0.059821
729.391580,0.059214
729.695120,0.062860
729.998620,0.059751
730.302080,0.065353
730.605500,0.058709
730.908880,0.065654
731.212220,0.060725
731.515520,0.063384
731.818780,0.060680
732.122000,0.058563
732.425180,0.061114
732.728320,0.064452
733.031420,0.059649
733.334480,0.054592
733.637500,0.058972
733.940480,0.061412
734.243420,0.062691
734.546320,0.062759
734.849180,0.061467
735.152000,0.059647
735.454780,0.058884
735.757520,0.057956
736.060220,0.062138
736.362880,0.063025
736.665500,0.057441
736.968080,0.063407
737.270620,0.064235
737.573120,0.058952
737.875580,0.064871
738.178000,0.060969
738.480380,0.063243
738.782720,0.061614
739.085020,0.057819
739.387280,0.059313
739.689500,0.058890
739.991680,0.060079
740.293820,0.065229
740.595920,0.061213
740.897980,0.063241
741.200000,0.064498
741.501980,0.065330
741.803920,0.060248
742.105820,0.062606
742.407680,0.066395
742.709500,0.061364
743.011280,0.057444
743.313020,0.059710
743.614720,0.058619
743.916380,0.061628
744.218000,0.063842
744.519580,0.061594
744.821120,0.060479
745.122620,0.059916
745.424080,0.061298
745.725500,0.059143
746.026880,0.058498
746.328220,0.059803
746.629520,0.061409
746.930780,0.060662
747.232000,0.061312
747.533180,0.062843
747.834320,0.064516
748.135420,0.056557
748.436480,0.064878
748.737500,0.064237
749.038480,0.064753
749.339420,0.060983
749.640320,0.056568
749.941180,0.059963
750.242000,0.057789
750.542780,0.061414
750.843520,0.064061
751.144220,0.062821
751.444880,0.064680
751.745500,0.058442
752.046080,0.061578
752.346620,0.060567
752.647120,0.062051
752.947580,0.064036
753.248000,0.067698
753.548380,0.060507
753.848720,0.067611
754.149020,0.059961
754.449280,0.062377
754.749500,0.057731
755.049680,0.060000
755.349820,0.060707
755.649920,0.060806
755.949980,0.062376
756.250000,0.063116
756.549980,0.059406
756.849920,0.061183
757.149820,0.057884
757.449680,0.065347
757.749500,0.063395
758.049280,0.058020
758.349020,0.058414
758.648720,0.062112
758.948380,0.064605
759.248000,0.059973
759.547580,0.057162
759.847120,0.063405
760.146620,0.060893
760.446080,0.062500
760.745500,0.056643
761.044880,0.061790
761.344220,0.062010
761.643520,0.063559
761.942780,0.059482
762.242000,0.068600
762.541180,0.061972
762.840320,0.061096
763.139420,0.059775
763.438480,0.056049
763.737500,0.065472
764.036480,0.062893
764.335420,0.061397
764.634320,0.058905
764.933180,0.067808
765.232000,0.061763
765.530780,0.061053
765.829520,0.060140
766.128220,0.065414
766.426880,0.058991
766.725500,0.064428
767.024080,0.063100
767.322620,0.061549
767.621120,0.062331
767.919580,0.059386
768.218000,0.060192
768.516380,0.064909
768.814720,0.061043
769.113020,0.061337
769.411280,0.068370
769.709500,0.058187
770.007680,0.058623
770.305820,0.062204
770.603920,0.062668
770.901980,0.059426
771.200000,0.061821
771.497980,0.062332
771.795920,0.058863
772.093820,0.062166
772.391680,0.063283
772.689500,0.060135
772.987280,0.058586
773.285020,0.063568
773.582720,0.058108
773.880380,0.060398
774.178000,0.058623
774.475580,0.064970
774.773120,0.060241
775.070620,0.063556
775.368080,0.063460
775.665500,0.059772
775.962880,0.062708
776.260220,0.067295
776.557520,0.063376
776.854780,0.059500
777.152000,0.059682
777.449180,0.061362
777.746320,0.058468
778.043420,0.065484
778.340480,0.062923
778.637500,0.060176
778.934480,0.065232
779.231420,0.056988
779.528320,0.058784
779.825180,0.063900
780.122000,0.061753
780.418780,0.068399
780.715520,0.064386
781.012220,0.060274
781.308880,0.061528
781.605500,0.060274
781.902080,0.058179
782.198620,0.060150
782.495120,0.062414
782.791580,0.059835
783.088000,0.061422
783.384380,0.066025
783.680720,0.066347
783.977020,0.061941
784.273280,0.062937
784.569500,0.064990
784.865680,0.066064
785.161820,0.063889
785.457920,0.065142
785.753980,0.061410
786.050000,0.055939
786.345980,0.063889
786.641920,0.061763
786.937820,0.064815
787.233680,0.060543
787.529500,0.064494
787.825280,0.063031
788.121020,0.059490
788.416720,0.062103
788.712380,0.058533
789.008000,0.058782
789.303580,0.063604
789.599120,0.066182
789.894620,0.057040
790.190080,0.058738
790.485500,0.056156
790.780880,0.056631
791.076220,0.066378
791.371520,0.063907
791.666780,0.069091
791.962000,0.058046
792.257180,0.060029
792.552320,0.063089
792.847420,0.064774
793.142480,0.063736
793.437500,0.062952
793.732480,0.063643
794.027420,0.057864
794.322320,0.061894
794.617180,0.060178
794.912000,0.061664
795.206780,0.058911
795.501520,0.060076
795.796220,0.057037
796.090880,0.061040
796.385500,0.059220
796.680080,0.061331
796.974620,0.070359
797.269120,0.058289
797.563580,0.062595
797.858000,0.063781
798.152380,0.060325
798.446720,0.063846
798.741020,0.061633
799.035280,0.066770
799.329500,0.066205
799.623680,0.064341
