400,1.0000
401,0.3374
402,1.0000
403,1.0000
404,0.0000
405,1.0000
406,0.8201
407,0.0000
408,0.0000
409,1.0000
410,0.8134
411,0.7088
412,0.9371
413,0.7435
414,0.8606
415,0.7362
416,0.9379
417,0.7431
418,0.9061
419,0.8513
420,0.8423
421,0.8021
422,0.7740
423,0.7281
424,0.7060
425,0.7242
426,0.7649
427,0.6869
428,0.6725
429,0.5599
430,0.6312
431,0.5375
432,0.5227
433,0.4839
434,0.5206
435,0.5059
436,0.4738
437,0.4608
438,0.4389
439,0.4241
440,0.4582
441,0.3845
442,0.3864
443,0.3700
444,0.3468
445,0.3847
446,0.3117
447,0.2753
448,0.2760
449,0.2418
450,0.2133
451,0.2055
452,0.1877
453,0.1564
454,0.1419
455,0.1428
456,0.1245
457,0.1256
458,0.1204
459,0.1166
460,0.1126
461,0.1045
462,0.1041
463,0.0970
464,0.1072
465,0.0959
466,0.1039
467,0.0995
468,0.0968
469,0.0931
470,0.0897
471,0.0894
472,0.0833
473,0.0827
474,0.0791
475,0.0800
476,0.0754
477,0.0708
478,0.0700
479,0.0739
480,0.0778
481,0.0713
482,0.0747
483,0.0742
484,0.0791
485,0.0784
486,0.0788
487,0.0830
488,0.0843
489,0.0833
490,0.0872
491,0.0859
492,0.0866
493,0.0895
494,0.0864
495,0.0913
496,0.0827
497,0.0881
498,0.0879
499,0.0895
500,0.0854
501,0.0851
502,0.0874
503,0.0860
504,0.0875
505,0.0891
506,0.0922
507,0.0903
508,0.0925
509,0.0909
510,0.0935
511,0.0956
512,0.0970
513,0.0967
514,0.0958
515,0.0959
516,0.0967
517,0.0908
518,0.0918
519,0.0952
520,0.0948
521,0.0984
522,0.0975
523,0.0982
524,0.0997
525,0.0992
526,0.1001
527,0.0979
528,0.0994
529,0.1028
530,0.1031
531,0.1025
532,0.1045
533,0.1059
534,0.1067
535,0.1089
536,0.1099
537,0.1117
538,0.1114
539,0.1148
540,0.1139
541,0.1165
542,0.1144
543,0.1158
544,0.1209
545,0.1199
546,0.1205
547,0.1211
548,0.1232
549,0.1215
550,0.1208
551,0.1221
552,0.1217
553,0.1220
554,0.1203
555,0.1197
556,0.1182
557,0.1184
558,0.1165
559,0.1134
560,0.1141
561,0.1090
562,0.1095
563,0.1062
564,0.1033
565,0.1017
566,0.0968
567,0.0974
568,0.0932
569,0.0931
570,0.0907
571,0.0859
572,0.0849
573,0.0828
574,0.0791
575,0.0792
576,0.0774
577,0.0759
578,0.0753
579,0.0725
580,0.0698
581,0.0674
582,0.0685
583,0.0667
584,0.0660
585,0.0624
586,0.0629
587,0.0583
588,0.0588
589,0.0580
590,0.0563
591,0.0567
592,0.0539
593,0.0532
594,0.0526
595,0.0526
596,0.0500
597,0.0504
598,0.0503
599,0.0492
600,0.0484
601,0.0463
602,0.0463
603,0.0461
604,0.0454
605,0.0440
606,0.0427
607,0.0418
608,0.0407
609,0.0396
610,0.0397
611,0.0384
612,0.0376
613,0.0371
614,0.0361
615,0.0362
616,0.0342
617,0.0353
618,0.0349
619,0.0334
620,0.0331
621,0.0343
622,0.0334
623,0.0333
624,0.0329
625,0.0336
626,0.0339
627,0.0342
628,0.0341
629,0.0352
630,0.0352
631,0.0369
632,0.0375
633,0.0379
634,0.0391
635,0.0384
636,0.0412
637,0.0416
638,0.0421
639,0.0439
640,0.0449
641,0.0466
642,0.0473
643,0.0486
644,0.0512
645,0.0513
646,0.0528
647,0.0558
648,0.0557
649,0.0583
650,0.0598
651,0.0627
652,0.0645
653,0.0641
654,0.0677
655,0.0695
656,0.0690
657,0.0743
658,0.0749
659,0.0789
660,0.0800
661,0.0807
662,0.0822
663,0.0834
664,0.0855
665,0.0878
666,0.0894
667,0.0923
668,0.0926
669,0.0949
670,0.0966
671,0.0973
672,0.0991
673,0.1015
674,0.1038
675,0.1063
676,0.1056
677,0.1079
678,0.1098
679,0.1112
680,0.1111
681,0.1133
682,0.1144
683,0.1147
684,0.1159
685,0.1188
686,0.1194
687,0.1205
688,0.1243
689,0.1232
690,0.1225
691,0.1264
692,0.1282
693,0.1288
694,0.1307
695,0.1317
696,0.1330
697,0.1335
698,0.1371
699,0.1345
700,0.1398
701,0.1409
702,0.1412
703,0.1425
704,0.1435
705,0.1459
706,0.1449
707,0.1470
708,0.1486
709,0.1502
710,0.1518
711,0.1512
712,0.1535
713,0.1562
714,0.1545
715,0.1547
716,0.1568
717,0.1561
718,0.1568
719,0.1552
720,0.1567
721,0.1556
722,0.1539
723,0.1560
724,0.1563
725,0.1559
726,0.1566
727,0.1568
728,0.1572
729,0.1601
730,0.1597
731,0.1609
732,0.1590
733,0.1605
734,0.1623
735,0.1596
736,0.1640
737,0.1616
738,0.1604
739,0.1630
740,0.1596
741,0.1576
742,0.1598
743,0.1588
744,0.1548
745,0.1546
746,0.1551
747,0.1523
748,0.1528
749,0.1519
750,0.1496
751,0.1491
752,0.1467
753,0.1444
754,0.1462
755,0.1454
756,0.1418
757,0.1399
758,0.1389
759,0.1363
760,0.1363
761,0.1342
762,0.1336
763,0.1334
764,0.1316
765,0.1304
766,0.1287
767,0.1277
768,0.1279
769,0.1257
770,0.1236
771,0.1235
772,0.1215
773,0.1201
774,0.1185
775,0.1164
776,0.1178
777,0.1146
778,0.1124
779,0.1119
780,0.1099
781,0.1067
782,0.1074
783,0.1057
784,0.1052
785,0.1049
786,0.1022
787,0.1005
788,0.0997
789,0.1000
790,0.1003
791,0.0974
792,0.0987
793,0.0959
794,0.0968
795,0.0969
796,0.0970
797,0.0954
798,0.0975
799,0.0932
800,0.0953
801,0.0934
802,0.0934
803,0.0931
804,0.0913
805,0.0902
806,0.0907
807,0.0883
808,0.0881
809,0.0867
810,0.0865
811,0.0833
812,0.0807
813,0.0813
814,0.0792
815,0.0797
816,0.0772
817,0.0744
818,0.0731
819,0.0701
820,0.0728
821,0.0710
822,0.0670
823,0.0663
824,0.0655
825,0.0622
826,0.0622
827,0.0605
828,0.0590
829,0.0607
830,0.0587
831,0.0562
832,0.0566
833,0.0529
834,0.0516
835,0.0512
836,0.0496
837,0.0487
838,0.0468
839,0.0472
840,0.0451
841,0.0431
842,0.0434
843,0.0421
844,0.0416
845,0.0408
846,0.0386
847,0.0376
848,0.0349
849,0.0338
850,0.0342
851,0.0336
852,0.0326
853,0.0323
854,0.0317
855,0.0290
856,0.0300
857,0.0277
858,0.0268
859,0.0258
860,0.0254
861,0.0251
862,0.0252
863,0.0233
864,0.0220
865,0.0219
866,0.0205
867,0.0207
868,0.0194
869,0.0179
870,0.0180
871,0.0165
872,0.0161
873,0.0161
874,0.0149
875,0.0154
876,0.0136
877,0.0139
878,0.0121
879,0.0122
880,0.0131
881,0.0132
882,0.0125
883,0.0129
884,0.0116
885,0.0110
886,0.0119
887,0.0113
888,0.0107
889,0.0111
890,0.0107
891,0.0107
892,0.0108
893,0.0094
894,0.0103
895,0.0092
896,0.0088
897,0.0089
898,0.0080
899,0.0078
900,0.0077
901,0.0073
902,0.0075
903,0.0070
904,0.0070
905,0.0066
906,0.0073
907,0.0065
908,0.0066
909,0.0059
910,0.0054
911,0.0056
912,0.0044
913,0.0041
914,0.0042
915,0.0043
916,0.0043
917,0.0041
918,0.0037
919,0.0031
920,0.0032
921,0.0030
922,0.0026
923,0.0024
924,0.0029
925,0.0024
926,0.0019
927,0.0028
928,0.0024
929,0.0011
930,0.0024
931,0.0019
932,0.0010
933,0.0017
934,0.0017
935,0.0017
936,0.0003
937,0.0007
938,0.0006
939,0.0000
940,0.0005
941,0.0001
942,0.0000
