382,NaN
383,1.0000
384,0.1320
385,1.0000
386,0.0000
387,0.0990
388,0.2156
389,0.0000
390,0.0000
391,0.0785
392,0.0421
393,0.0000
394,0.0000
395,0.0000
396,0.1813
397,0.0000
398,0.0034
399,0.0629
400,0.0000
401,0.3067
402,0.0000
403,0.0477
404,0.0355
405,0.0000
406,0.0000
407,0.0759
408,0.0000
409,0.0000
410,0.0000
411,0.0818
412,0.0272
413,0.0000
414,0.0000
415,0.0392
416,0.0000
417,0.0351
418,0.0000
419,0.0341
420,0.0000
421,0.0163
422,0.0000
423,0.0000
424,0.0000
425,0.0000
426,0.0517
427,0.0000
428,0.0037
429,0.0000
430,0.0375
431,0.0290
432,0.0226
433,0.0000
434,0.0000
435,0.0000
436,0.0182
437,0.0280
438,0.0144
439,0.0000
440,0.0135
441,0.0433
442,0.0147
443,0.0274
444,0.0041
445,0.0177
446,0.0000
447,0.0220
448,0.0000
449,0.0213
450,0.0231
451,0.0030
452,0.0077
453,0.0117
454,0.0110
455,0.0256
456,0.0125
457,0.0207
458,0.0023
459,0.0104
460,0.0000
461,0.0355
462,0.0000
463,0.0207
464,0.0137
465,0.0000
466,0.0145
467,0.0174
468,0.0211
469,0.0193
470,0.0152
471,0.0092
472,0.0143
473,0.0112
474,0.0063
475,0.0212
476,0.0243
477,0.0218
478,0.0178
479,0.0187
480,0.0191
481,0.0152
482,0.0145
483,0.0140
484,0.0101
485,0.0221
486,0.0086
487,0.0214
488,0.0087
489,0.0159
490,0.0279
491,0.0143
492,0.0118
493,0.0225
494,0.0144
495,0.0227
496,0.0189
497,0.0206
498,0.0202
499,0.0202
500,0.0219
501,0.0154
502,0.0158
503,0.0184
504,0.0169
505,0.0113
506,0.0225
507,0.0185
508,0.0160
509,0.0138
510,0.0188
511,0.0102
512,0.0114
513,0.0136
514,0.0155
515,0.0116
516,0.0115
517,0.0143
518,0.0104
519,0.0127
520,0.0145
521,0.0108
522,0.0102
523,0.0111
524,0.0128
525,0.0101
526,0.0121
527,0.0117
528,0.0106
529,0.0118
530,0.0106
531,0.0108
532,0.0120
533,0.0106
534,0.0116
535,0.0104
536,0.0110
537,0.0105
538,0.0124
539,0.0103
540,0.0125
541,0.0120
542,0.0110
543,0.0116
544,0.0109
545,0.0095
546,0.0120
547,0.0113
548,0.0111
549,0.0102
550,0.0117
551,0.0108
552,0.0114
553,0.0114
554,0.0107
555,0.0095
556,0.0121
557,0.0108
558,0.0113
559,0.0103
560,0.0101
561,0.0123
562,0.0114
563,0.0109
564,0.0113
565,0.0119
566,0.0100
567,0.0119
568,0.0109
569,0.0128
570,0.0117
571,0.0118
572,0.0128
573,0.0117
574,0.0116
575,0.0104
576,0.0122
577,0.0115
578,0.0097
579,0.0116
580,0.0119
581,0.0107
582,0.0119
583,0.0106
584,0.0106
585,0.0106
586,0.0107
587,0.0105
588,0.0115
589,0.0108
590,0.0103
591,0.0108
592,0.0110
593,0.0108
594,0.0105
595,0.0110
596,0.0109
597,0.0106
598,0.0110
599,0.0110
600,0.0111
601,0.0108
602,0.0116
603,0.0099
604,0.0107
605,0.0107
606,0.0091
607,0.0109
608,0.0109
609,0.0106
610,0.0104
611,0.0102
612,0.0109
613,0.0105
614,0.0103
615,0.0107
616,0.0106
617,0.0090
618,0.0103
619,0.0110
620,0.0101
621,0.0100
622,0.0113
623,0.0106
624,0.0109
625,0.0098
626,0.0103
627,0.0116
628,0.0108
629,0.0111
630,0.0106
631,0.0108
632,0.0105
633,0.0102
634,0.0101
635,0.0104
636,0.0099
637,0.0111
638,0.0100
639,0.0094
640,0.0107
641,0.0112
642,0.0107
643,0.0103
644,0.0107
645,0.0102
646,0.0108
647,0.0106
648,0.0105
649,0.0102
650,0.0094
651,0.0099
652,0.0103
653,0.0106
654,0.0096
655,0.0107
656,0.0096
657,0.0097
658,0.0095
659,0.0091
660,0.0094
661,0.0093
662,0.0096
663,0.0103
664,0.0095
665,0.0097
666,0.0092
667,0.0099
668,0.0091
669,0.0095
670,0.0095
671,0.0102
672,0.0092
673,0.0096
674,0.0091
675,0.0101
676,0.0094
677,0.0094
678,0.0098
679,0.0090
680,0.0093
681,0.0097
682,0.0088
683,0.0095
684,0.0094
685,0.0089
686,0.0099
687,0.0093
688,0.0092
689,0.0091
690,0.0093
691,0.0097
692,0.0102
693,0.0089
694,0.0098
695,0.0094
696,0.0097
697,0.0093
698,0.0092
699,0.0101
700,0.0098
701,0.0091
702,0.0093
703,0.0091
704,0.0089
705,0.0090
706,0.0090
707,0.0095
708,0.0098
709,0.0093
710,0.0086
711,0.0101
712,0.0084
713,0.0091
714,0.0090
715,0.0095
716,0.0091
717,0.0090
718,0.0091
719,0.0095
720,0.0093
721,0.0084
722,0.0078
723,0.0078
724,0.0077
725,0.0083
726,0.0081
727,0.0083
728,0.0077
729,0.0086
730,0.0079
731,0.0082
732,0.0087
733,0.0078
734,0.0082
735,0.0084
736,0.0082
737,0.0081
738,0.0081
739,0.0075
740,0.0081
741,0.0080
742,0.0078
743,0.0076
744,0.0089
745,0.0081
746,0.0084
747,0.0082
748,0.0088
749,0.0071
750,0.0073
751,0.0085
752,0.0077
753,0.0080
754,0.0074
755,0.0089
756,0.0078
757,0.0082
758,0.0068
759,0.0078
760,0.0078
761,0.0082
762,0.0075
763,0.0086
764,0.0075
765,0.0086
766,0.0084
767,0.0079
768,0.0078
769,0.0079
770,0.0074
771,0.0082
772,0.0075
773,0.0079
774,0.0082
775,0.0083
776,0.0075
777,0.0079
778,0.0076
779,0.0086
780,0.0078
781,0.0081
782,0.0074
783,0.0084
784,0.0073
785,0.0078
786,0.0080
787,0.0084
788,0.0078
789,0.0084
790,0.0074
791,0.0062
792,0.0071
793,0.0068
794,0.0082
795,0.0083
796,0.0073
797,0.0079
798,0.0074
799,0.0074
800,0.0083
801,0.0074
802,0.0074
803,0.0083
804,0.0087
805,0.0077
806,0.0069
807,0.0094
808,0.0085
809,0.0067
810,0.0080
811,0.0092
812,0.0075
813,0.0079
814,0.0077
815,0.0082
816,0.0085
817,0.0081
818,0.0090
819,0.0091
820,0.0088
821,0.0085
822,0.0078
823,0.0087
824,0.0076
825,0.0088
826,0.0078
827,0.0078
828,0.0071
829,0.0078
830,0.0082
831,0.0077
832,0.0075
833,0.0070
834,0.0081
835,0.0082
836,0.0076
837,0.0089
838,0.0070
839,0.0074
840,0.0067
841,0.0072
842,0.0083
843,0.0067
844,0.0073
845,0.0077
846,0.0059
847,0.0074
848,0.0072
849,0.0067
850,0.0074
851,0.0069
852,0.0067
853,0.0071
854,0.0077
855,0.0076
856,0.0063
857,0.0072
858,0.0075
859,0.0066
860,0.0060
861,0.0068
862,0.0068
863,0.0074
864,0.0068
865,0.0052
866,0.0070
867,0.0060
868,0.0056
869,0.0070
870,0.0072
871,0.0070
872,0.0066
873,0.0072
874,0.0063
875,0.0068
876,0.0055
877,0.0053
878,0.0068
879,0.0062
880,0.0058
881,0.0065
882,0.0072
883,0.0069
884,0.0057
885,0.0089
886,0.0074
887,0.0064
888,0.0055
889,0.0082
890,0.0082
891,0.0058
892,0.0063
893,0.0092
894,0.0086
895,0.0066
896,0.0074
897,0.0090
898,0.0088
899,0.0077
900,0.0095
901,0.0085
902,0.0068
903,0.0067
904,0.0088
905,0.0075
906,0.0085
907,0.0099
908,0.0084
909,0.0099
910,0.0087
911,0.0058
912,0.0096
913,0.0056
914,0.0090
915,0.0070
916,0.0067
917,0.0067
918,0.0071
919,0.0084
920,0.0087
921,0.0041
922,0.0075
923,0.0046
924,0.0059
925,0.0062
926,0.0063
927,0.0060
928,0.0063
929,0.0052
930,0.0044
931,0.0055
932,0.0041
933,0.0029
934,0.0060
935,0.0034
936,0.0017
937,0.0015
938,0.0040
939,0.0025
940,0.0006
941,0.0023
942,0.0012
943,0.0019
944,0.0017
945,0.0032
946,0.0024
947,0.0021
