382,NaN
383,0.9518
384,0.9790
385,1.0000
386,0.6254
387,0.0297
388,0.0393
389,0.1749
390,0.1353
391,0.0000
392,0.0465
393,0.2050
394,0.0000
395,0.0000
396,0.1600
397,0.0000
398,0.0997
399,0.0000
400,0.0000
401,0.1423
402,0.0000
403,0.0534
404,0.0049
405,0.0430
406,0.0521
407,0.1141
408,0.0000
409,0.0000
410,0.0000
411,0.0982
412,0.1079
413,0.0366
414,0.0000
415,0.0199
416,0.0000
417,0.0439
418,0.0183
419,0.0000
420,0.0447
421,0.0162
422,0.0000
423,0.0000
424,0.0000
425,0.0000
426,0.0158
427,0.0000
428,0.0123
429,0.0000
430,0.0349
431,0.0468
432,0.0148
433,0.0200
434,0.0242
435,0.0200
436,0.0266
437,0.0224
438,0.0248
439,0.0081
440,0.0234
441,0.0290
442,0.0186
443,0.0485
444,0.0154
445,0.0000
446,0.0129
447,0.0212
448,0.0044
449,0.0024
450,0.0078
451,0.0012
452,0.0033
453,0.0339
454,0.0228
455,0.0135
456,0.0114
457,0.0110
458,0.0282
459,0.0120
460,0.0080
461,0.0328
462,0.0110
463,0.0256
464,0.0149
465,0.0008
466,0.0082
467,0.0000
468,0.0196
469,0.0298
470,0.0158
471,0.0158
472,0.0339
473,0.0213
474,0.0139
475,0.0224
476,0.0250
477,0.0401
478,0.0203
479,0.0335
480,0.0364
481,0.0252
482,0.0202
483,0.0262
484,0.0201
485,0.0289
486,0.0199
487,0.0328
488,0.0234
489,0.0214
490,0.0296
491,0.0233
492,0.0202
493,0.0308
494,0.0270
495,0.0213
496,0.0251
497,0.0256
498,0.0220
499,0.0295
500,0.0249
501,0.0218
502,0.0236
503,0.0209
504,0.0240
505,0.0200
506,0.0235
507,0.0247
508,0.0229
509,0.0229
510,0.0247
511,0.0187
512,0.0205
513,0.0215
514,0.0202
515,0.0197
516,0.0181
517,0.0212
518,0.0169
519,0.0202
520,0.0176
521,0.0137
522,0.0161
523,0.0148
524,0.0167
525,0.0153
526,0.0169
527,0.0176
528,0.0178
529,0.0176
530,0.0149
531,0.0156
532,0.0166
533,0.0155
534,0.0161
535,0.0151
536,0.0165
537,0.0165
538,0.0148
539,0.0172
540,0.0160
541,0.0149
542,0.0149
543,0.0157
544,0.0156
545,0.0152
546,0.0165
547,0.0155
548,0.0155
549,0.0155
550,0.0158
551,0.0155
552,0.0162
553,0.0165
554,0.0165
555,0.0161
556,0.0160
557,0.0158
558,0.0150
559,0.0167
560,0.0159
561,0.0159
562,0.0163
563,0.0156
564,0.0158
565,0.0155
566,0.0158
567,0.0163
568,0.0163
569,0.0172
570,0.0173
571,0.0162
572,0.0161
573,0.0170
574,0.0168
575,0.0148
576,0.0175
577,0.0168
578,0.0151
579,0.0171
580,0.0179
581,0.0158
582,0.0164
583,0.0166
584,0.0157
585,0.0169
586,0.0159
587,0.0160
588,0.0156
589,0.0159
590,0.0157
591,0.0153
592,0.0157
593,0.0163
594,0.0164
595,0.0152
596,0.0153
597,0.0155
598,0.0152
599,0.0154
600,0.0152
601,0.0155
602,0.0158
603,0.0150
604,0.0153
605,0.0152
606,0.0153
607,0.0159
608,0.0155
609,0.0154
610,0.0154
611,0.0150
612,0.0151
613,0.0156
614,0.0154
615,0.0162
616,0.0149
617,0.0146
618,0.0154
619,0.0162
620,0.0152
621,0.0156
622,0.0155
623,0.0161
624,0.0157
625,0.0147
626,0.0151
627,0.0157
628,0.0155
629,0.0159
630,0.0158
631,0.0154
632,0.0157
633,0.0150
634,0.0147
635,0.0160
636,0.0152
637,0.0157
638,0.0150
639,0.0158
640,0.0157
641,0.0158
642,0.0156
643,0.0152
644,0.0154
645,0.0150
646,0.0156
647,0.0152
648,0.0155
649,0.0145
650,0.0152
651,0.0143
652,0.0154
653,0.0152
654,0.0139
655,0.0143
656,0.0139
657,0.0133
658,0.0140
659,0.0139
660,0.0135
661,0.0137
662,0.0143
663,0.0148
664,0.0145
665,0.0138
666,0.0137
667,0.0137
668,0.0137
669,0.0141
670,0.0138
671,0.0140
672,0.0142
673,0.0142
674,0.0135
675,0.0141
676,0.0139
677,0.0139
678,0.0137
679,0.0134
680,0.0134
681,0.0134
682,0.0135
683,0.0144
684,0.0134
685,0.0132
686,0.0133
687,0.0132
688,0.0134
689,0.0144
690,0.0140
691,0.0136
692,0.0145
693,0.0140
694,0.0141
695,0.0134
696,0.0138
697,0.0137
698,0.0136
699,0.0141
700,0.0141
701,0.0137
702,0.0138
703,0.0143
704,0.0132
705,0.0134
706,0.0133
707,0.0138
708,0.0144
709,0.0135
710,0.0129
711,0.0142
712,0.0136
713,0.0139
714,0.0134
715,0.0135
716,0.0137
717,0.0142
718,0.0135
719,0.0132
720,0.0134
721,0.0126
722,0.0121
723,0.0120
724,0.0124
725,0.0120
726,0.0125
727,0.0125
728,0.0114
729,0.0118
730,0.0117
731,0.0122
732,0.0116
733,0.0111
734,0.0122
735,0.0117
736,0.0125
737,0.0118
738,0.0121
739,0.0117
740,0.0121
741,0.0119
742,0.0119
743,0.0121
744,0.0113
745,0.0115
746,0.0119
747,0.0118
748,0.0125
749,0.0120
750,0.0103
751,0.0120
752,0.0117
753,0.0127
754,0.0123
755,0.0116
756,0.0119
757,0.0124
758,0.0130
759,0.0127
760,0.0129
761,0.0125
762,0.0121
763,0.0124
764,0.0130
765,0.0120
766,0.0122
767,0.0120
768,0.0116
769,0.0120
770,0.0110
771,0.0131
772,0.0118
773,0.0112
774,0.0116
775,0.0115
776,0.0110
777,0.0114
778,0.0103
779,0.0120
780,0.0117
781,0.0112
782,0.0119
783,0.0118
784,0.0104
785,0.0114
786,0.0118
787,0.0116
788,0.0115
789,0.0117
790,0.0113
791,0.0102
792,0.0112
793,0.0109
794,0.0110
795,0.0111
796,0.0111
797,0.0115
798,0.0113
799,0.0109
800,0.0121
801,0.0116
802,0.0115
803,0.0118
804,0.0117
805,0.0108
806,0.0117
807,0.0122
808,0.0120
809,0.0116
810,0.0130
811,0.0118
812,0.0123
813,0.0129
814,0.0124
815,0.0118
816,0.0111
817,0.0128
818,0.0120
819,0.0138
820,0.0139
821,0.0132
822,0.0127
823,0.0119
824,0.0125
825,0.0127
826,0.0120
827,0.0111
828,0.0116
829,0.0119
830,0.0124
831,0.0120
832,0.0119
833,0.0116
834,0.0104
835,0.0129
836,0.0116
837,0.0117
838,0.0118
839,0.0103
840,0.0101
841,0.0113
842,0.0107
843,0.0094
844,0.0106
845,0.0110
846,0.0100
847,0.0096
848,0.0112
849,0.0098
850,0.0109
851,0.0101
852,0.0097
853,0.0100
854,0.0108
855,0.0100
856,0.0095
857,0.0110
858,0.0102
859,0.0096
860,0.0091
861,0.0101
862,0.0100
863,0.0118
864,0.0094
865,0.0092
866,0.0099
867,0.0115
868,0.0096
869,0.0093
870,0.0107
871,0.0090
872,0.0091
873,0.0086
874,0.0096
875,0.0102
876,0.0109
877,0.0095
878,0.0090
879,0.0102
880,0.0084
881,0.0098
882,0.0113
883,0.0112
884,0.0100
885,0.0111
886,0.0105
887,0.0107
888,0.0101
889,0.0108
890,0.0106
891,0.0094
892,0.0111
893,0.0118
894,0.0126
895,0.0099
896,0.0104
897,0.0121
898,0.0132
899,0.0106
900,0.0117
901,0.0137
902,0.0100
903,0.0095
904,0.0136
905,0.0119
906,0.0124
907,0.0140
908,0.0131
909,0.0124
910,0.0118
911,0.0112
912,0.0120
913,0.0106
914,0.0110
915,0.0098
916,0.0140
917,0.0128
918,0.0093
919,0.0097
920,0.0114
921,0.0070
922,0.0107
923,0.0081
924,0.0084
925,0.0110
926,0.0065
927,0.0087
928,0.0073
929,0.0096
930,0.0096
931,0.0073
932,0.0065
933,0.0036
934,0.0067
935,0.0067
936,0.0055
937,0.0044
938,0.0075
939,0.0017
940,0.0021
941,0.0042
942,0.0030
943,0.0010
944,0.0015
945,0.0018
946,0.0017
947,0.0092
