382,NaN
383,0.6668
384,0.0000
385,1.0000
386,0.0000
387,0.2125
388,0.0589
389,0.0000
390,0.0000
391,0.1155
392,0.0000
393,0.0127
394,0.0194
395,0.0000
396,0.0749
397,0.0000
398,0.0000
399,0.0041
400,0.0918
401,0.1922
402,0.0000
403,0.0000
404,0.0000
405,0.0000
406,0.0013
407,0.1481
408,0.0000
409,0.0211
410,0.0000
411,0.0526
412,0.0836
413,0.0540
414,0.0000
415,0.0000
416,0.0098
417,0.0449
418,0.0389
419,0.0065
420,0.0241
421,0.0000
422,0.0000
423,0.0238
424,0.0000
425,0.0000
426,0.0136
427,0.0000
428,0.0136
429,0.0000
430,0.0365
431,0.0195
432,0.0502
433,0.0000
434,0.0080
435,0.0274
436,0.0407
437,0.0457
438,0.0154
439,0.0051
440,0.0160
441,0.0392
442,0.0110
443,0.0459
444,0.0214
445,0.0252
446,0.0211
447,0.0234
448,0.0000
449,0.0260
450,0.0269
451,0.0000
452,0.0157
453,0.0229
454,0.0200
455,0.0228
456,0.0094
457,0.0009
458,0.0145
459,0.0209
460,0.0140
461,0.0186
462,0.0183
463,0.0271
464,0.0069
465,0.0000
466,0.0145
467,0.0177
468,0.0244
469,0.0238
470,0.0180
471,0.0171
472,0.0195
473,0.0193
474,0.0116
475,0.0237
476,0.0247
477,0.0326
478,0.0314
479,0.0290
480,0.0273
481,0.0261
482,0.0192
483,0.0247
484,0.0241
485,0.0341
486,0.0182
487,0.0247
488,0.0208
489,0.0203
490,0.0210
491,0.0207
492,0.0266
493,0.0265
494,0.0327
495,0.0254
496,0.0248
497,0.0243
498,0.0273
499,0.0267
500,0.0245
501,0.0191
502,0.0248
503,0.0240
504,0.0248
505,0.0238
506,0.0253
507,0.0271
508,0.0250
509,0.0229
510,0.0248
511,0.0164
512,0.0218
513,0.0200
514,0.0175
515,0.0189
516,0.0170
517,0.0211
518,0.0146
519,0.0167
520,0.0188
521,0.0166
522,0.0177
523,0.0143
524,0.0180
525,0.0162
526,0.0155
527,0.0171
528,0.0171
529,0.0158
530,0.0152
531,0.0165
532,0.0165
533,0.0159
534,0.0167
535,0.0151
536,0.0157
537,0.0160
538,0.0159
539,0.0148
540,0.0165
541,0.0150
542,0.0157
543,0.0149
544,0.0146
545,0.0138
546,0.0169
547,0.0165
548,0.0161
549,0.0168
550,0.0158
551,0.0140
552,0.0169
553,0.0162
554,0.0170
555,0.0158
556,0.0155
557,0.0147
558,0.0161
559,0.0155
560,0.0146
561,0.0156
562,0.0158
563,0.0163
564,0.0170
565,0.0160
566,0.0157
567,0.0164
568,0.0158
569,0.0177
570,0.0177
571,0.0169
572,0.0168
573,0.0169
574,0.0169
575,0.0168
576,0.0164
577,0.0167
578,0.0160
579,0.0173
580,0.0168
581,0.0167
582,0.0161
583,0.0154
584,0.0160
585,0.0164
586,0.0159
587,0.0158
588,0.0153
589,0.0158
590,0.0156
591,0.0154
592,0.0157
593,0.0151
594,0.0162
595,0.0149
596,0.0151
597,0.0155
598,0.0151
599,0.0151
600,0.0159
601,0.0157
602,0.0159
603,0.0155
604,0.0153
605,0.0156
606,0.0142
607,0.0163
608,0.0153
609,0.0160
610,0.0147
611,0.0158
612,0.0158
613,0.0151
614,0.0159
615,0.0152
616,0.0147
617,0.0143
618,0.0150
619,0.0155
620,0.0151
621,0.0143
622,0.0153
623,0.0152
624,0.0154
625,0.0154
626,0.0152
627,0.0154
628,0.0159
629,0.0159
630,0.0165
631,0.0161
632,0.0152
633,0.0157
634,0.0152
635,0.0156
636,0.0160
637,0.0159
638,0.0161
639,0.0150
640,0.0157
641,0.0163
642,0.0160
643,0.0154
644,0.0154
645,0.0146
646,0.0154
647,0.0153
648,0.0157
649,0.0144
650,0.0144
651,0.0146
652,0.0144
653,0.0150
654,0.0140
655,0.0145
656,0.0143
657,0.0140
658,0.0136
659,0.0138
660,0.0143
661,0.0135
662,0.0139
663,0.0146
664,0.0138
665,0.0145
666,0.0140
667,0.0147
668,0.0138
669,0.0138
670,0.0139
671,0.0138
672,0.0145
673,0.0140
674,0.0134
675,0.0150
676,0.0148
677,0.0136
678,0.0142
679,0.0136
680,0.0142
681,0.0133
682,0.0142
683,0.0141
684,0.0143
685,0.0140
686,0.0142
687,0.0134
688,0.0140
689,0.0141
690,0.0144
691,0.0144
692,0.0143
693,0.0144
694,0.0143
695,0.0135
696,0.0139
697,0.0148
698,0.0144
699,0.0143
700,0.0146
701,0.0145
702,0.0147
703,0.0139
704,0.0135
705,0.0132
706,0.0140
707,0.0135
708,0.0138
709,0.0141
710,0.0134
711,0.0147
712,0.0130
713,0.0137
714,0.0135
715,0.0142
716,0.0139
717,0.0139
718,0.0140
719,0.0139
720,0.0128
721,0.0122
722,0.0120
723,0.0125
724,0.0120
725,0.0118
726,0.0117
727,0.0132
728,0.0116
729,0.0114
730,0.0113
731,0.0115
732,0.0127
733,0.0114
734,0.0121
735,0.0116
736,0.0125
737,0.0122
738,0.0113
739,0.0119
740,0.0112
741,0.0117
742,0.0120
743,0.0121
744,0.0127
745,0.0112
746,0.0117
747,0.0122
748,0.0124
749,0.0118
750,0.0106
751,0.0118
752,0.0114
753,0.0118
754,0.0120
755,0.0125
756,0.0120
757,0.0123
758,0.0123
759,0.0126
760,0.0121
761,0.0121
762,0.0125
763,0.0126
764,0.0133
765,0.0129
766,0.0116
767,0.0111
768,0.0118
769,0.0113
770,0.0113
771,0.0120
772,0.0108
773,0.0116
774,0.0120
775,0.0115
776,0.0116
777,0.0111
778,0.0117
779,0.0123
780,0.0110
781,0.0119
782,0.0117
783,0.0113
784,0.0101
785,0.0116
786,0.0115
787,0.0121
788,0.0116
789,0.0115
790,0.0112
791,0.0109
792,0.0113
793,0.0109
794,0.0117
795,0.0114
796,0.0110
797,0.0128
798,0.0116
799,0.0118
800,0.0118
801,0.0114
802,0.0114
803,0.0128
804,0.0122
805,0.0117
806,0.0112
807,0.0116
808,0.0119
809,0.0121
810,0.0130
811,0.0129
812,0.0124
813,0.0123
814,0.0117
815,0.0120
816,0.0136
817,0.0128
818,0.0124
819,0.0142
820,0.0136
821,0.0132
822,0.0125
823,0.0131
824,0.0122
825,0.0134
826,0.0129
827,0.0126
828,0.0121
829,0.0120
830,0.0113
831,0.0132
832,0.0117
833,0.0122
834,0.0107
835,0.0122
836,0.0116
837,0.0105
838,0.0107
839,0.0106
840,0.0105
841,0.0105
842,0.0123
843,0.0101
844,0.0116
845,0.0110
846,0.0101
847,0.0107
848,0.0107
849,0.0109
850,0.0096
851,0.0112
852,0.0111
853,0.0108
854,0.0119
855,0.0102
856,0.0113
857,0.0111
858,0.0099
859,0.0098
860,0.0092
861,0.0106
862,0.0108
863,0.0115
864,0.0109
865,0.0080
866,0.0100
867,0.0109
868,0.0098
869,0.0103
870,0.0093
871,0.0102
872,0.0114
873,0.0108
874,0.0094
875,0.0101
876,0.0102
877,0.0099
878,0.0084
879,0.0090
880,0.0087
881,0.0084
882,0.0101
883,0.0105
884,0.0110
885,0.0101
886,0.0099
887,0.0108
888,0.0106
889,0.0104
890,0.0115
891,0.0100
892,0.0114
893,0.0127
894,0.0105
895,0.0116
896,0.0114
897,0.0107
898,0.0096
899,0.0105
900,0.0121
901,0.0153
902,0.0107
903,0.0101
904,0.0134
905,0.0112
906,0.0117
907,0.0149
908,0.0136
909,0.0134
910,0.0135
911,0.0099
912,0.0122
913,0.0082
914,0.0095
915,0.0111
916,0.0115
917,0.0118
918,0.0107
919,0.0108
920,0.0127
921,0.0087
922,0.0104
923,0.0081
924,0.0095
925,0.0099
926,0.0086
927,0.0092
928,0.0093
929,0.0100
930,0.0095
931,0.0081
932,0.0054
933,0.0055
934,0.0073
935,0.0065
936,0.0040
937,0.0034
938,0.0044
939,0.0058
940,0.0006
941,0.0022
942,0.0040
943,0.0019
944,0.0029
945,0.0052
946,0.0009
947,0.0072
