382,NaN
383,1.0000
384,0.6613
385,1.0000
386,0.0000
387,0.1392
388,0.2785
389,0.0548
390,0.0000
391,0.0140
392,0.1252
393,0.1263
394,0.0000
395,0.0000
396,0.0759
397,0.0000
398,0.0000
399,0.0441
400,0.0297
401,0.1474
402,0.0000
403,0.0000
404,0.1006
405,0.0000
406,0.0000
407,0.0879
408,0.0568
409,0.0000
410,0.0787
411,0.0461
412,0.0053
413,0.0000
414,0.0000
415,0.0128
416,0.0000
417,0.0196
418,0.0000
419,0.0521
420,0.0000
421,0.0000
422,0.0000
423,0.0495
424,0.0000
425,0.0000
426,0.0148
427,0.0000
428,0.0000
429,0.0108
430,0.0596
431,0.0086
432,0.0000
433,0.0000
434,0.0100
435,0.0090
436,0.0000
437,0.0340
438,0.0161
439,0.0000
440,0.0233
441,0.0262
442,0.0099
443,0.0282
444,0.0000
445,0.0193
446,0.0213
447,0.0096
448,0.0103
449,0.0189
450,0.0167
451,0.0000
452,0.0037
453,0.0165
454,0.0168
455,0.0158
456,0.0178
457,0.0165
458,0.0213
459,0.0176
460,0.0133
461,0.0162
462,0.0079
463,0.0347
464,0.0180
465,0.0032
466,0.0148
467,0.0093
468,0.0211
469,0.0322
470,0.0119
471,0.0132
472,0.0261
473,0.0206
474,0.0252
475,0.0307
476,0.0247
477,0.0285
478,0.0211
479,0.0273
480,0.0266
481,0.0278
482,0.0200
483,0.0266
484,0.0181
485,0.0300
486,0.0236
487,0.0373
488,0.0229
489,0.0133
490,0.0249
491,0.0290
492,0.0281
493,0.0284
494,0.0253
495,0.0240
496,0.0268
497,0.0247
498,0.0306
499,0.0301
500,0.0279
501,0.0240
502,0.0302
503,0.0215
504,0.0253
505,0.0233
506,0.0290
507,0.0268
508,0.0247
509,0.0282
510,0.0234
511,0.0199
512,0.0191
513,0.0230
514,0.0196
515,0.0199
516,0.0185
517,0.0222
518,0.0178
519,0.0175
520,0.0180
521,0.0167
522,0.0160
523,0.0161
524,0.0170
525,0.0178
526,0.0170
527,0.0181
528,0.0174
529,0.0162
530,0.0165
531,0.0151
532,0.0170
533,0.0167
534,0.0170
535,0.0173
536,0.0173
537,0.0170
538,0.0159
539,0.0156
540,0.0167
541,0.0155
542,0.0157
543,0.0167
544,0.0166
545,0.0166
546,0.0178
547,0.0182
548,0.0162
549,0.0156
550,0.0172
551,0.0163
552,0.0172
553,0.0162
554,0.0168
555,0.0166
556,0.0173
557,0.0162
558,0.0172
559,0.0161
560,0.0167
561,0.0168
562,0.0172
563,0.0174
564,0.0176
565,0.0167
566,0.0164
567,0.0173
568,0.0172
569,0.0195
570,0.0181
571,0.0194
572,0.0170
573,0.0177
574,0.0183
575,0.0162
576,0.0173
577,0.0182
578,0.0168
579,0.0185
580,0.0176
581,0.0173
582,0.0167
583,0.0162
584,0.0164
585,0.0166
586,0.0172
587,0.0172
588,0.0176
589,0.0165
590,0.0169
591,0.0164
592,0.0172
593,0.0155
594,0.0169
595,0.0166
596,0.0165
597,0.0166
598,0.0175
599,0.0174
600,0.0160
601,0.0168
602,0.0171
603,0.0159
604,0.0170
605,0.0156
606,0.0167
607,0.0178
608,0.0166
609,0.0167
610,0.0166
611,0.0164
612,0.0165
613,0.0166
614,0.0158
615,0.0164
616,0.0157
617,0.0149
618,0.0165
619,0.0170
620,0.0165
621,0.0159
622,0.0172
623,0.0171
624,0.0171
625,0.0159
626,0.0167
627,0.0161
628,0.0167
629,0.0170
630,0.0164
631,0.0172
632,0.0163
633,0.0164
634,0.0165
635,0.0172
636,0.0169
637,0.0165
638,0.0164
639,0.0160
640,0.0173
641,0.0172
642,0.0168
643,0.0161
644,0.0156
645,0.0159
646,0.0160
647,0.0160
648,0.0170
649,0.0160
650,0.0156
651,0.0164
652,0.0156
653,0.0156
654,0.0156
655,0.0161
656,0.0151
657,0.0157
658,0.0149
659,0.0152
660,0.0150
661,0.0148
662,0.0152
663,0.0158
664,0.0155
665,0.0147
666,0.0143
667,0.0155
668,0.0146
669,0.0152
670,0.0154
671,0.0156
672,0.0155
673,0.0148
674,0.0150
675,0.0155
676,0.0148
677,0.0142
678,0.0154
679,0.0141
680,0.0142
681,0.0144
682,0.0148
683,0.0154
684,0.0148
685,0.0147
686,0.0145
687,0.0144
688,0.0141
689,0.0147
690,0.0151
691,0.0155
692,0.0150
693,0.0151
694,0.0151
695,0.0149
696,0.0148
697,0.0156
698,0.0151
699,0.0159
700,0.0152
701,0.0141
702,0.0147
703,0.0146
704,0.0141
705,0.0147
706,0.0149
707,0.0144
708,0.0150
709,0.0152
710,0.0147
711,0.0156
712,0.0147
713,0.0148
714,0.0145
715,0.0149
716,0.0147
717,0.0145
718,0.0149
719,0.0141
720,0.0144
721,0.0130
722,0.0135
723,0.0135
724,0.0132
725,0.0130
726,0.0132
727,0.0130
728,0.0120
729,0.0123
730,0.0123
731,0.0131
732,0.0136
733,0.0117
734,0.0128
735,0.0133
736,0.0129
737,0.0128
738,0.0130
739,0.0133
740,0.0130
741,0.0129
742,0.0124
743,0.0119
744,0.0123
745,0.0124
746,0.0121
747,0.0135
748,0.0130
749,0.0122
750,0.0121
751,0.0132
752,0.0130
753,0.0133
754,0.0127
755,0.0134
756,0.0127
757,0.0131
758,0.0129
759,0.0136
760,0.0128
761,0.0135
762,0.0133
763,0.0133
764,0.0125
765,0.0131
766,0.0119
767,0.0124
768,0.0131
769,0.0121
770,0.0124
771,0.0129
772,0.0119
773,0.0123
774,0.0132
775,0.0128
776,0.0132
777,0.0119
778,0.0117
779,0.0126
780,0.0109
781,0.0120
782,0.0119
783,0.0123
784,0.0119
785,0.0133
786,0.0129
787,0.0120
788,0.0131
789,0.0130
790,0.0120
791,0.0113
792,0.0121
793,0.0111
794,0.0120
795,0.0133
796,0.0123
797,0.0132
798,0.0130
799,0.0132
800,0.0127
801,0.0122
802,0.0118
803,0.0125
804,0.0125
805,0.0127
806,0.0129
807,0.0140
808,0.0129
809,0.0134
810,0.0145
811,0.0130
812,0.0128
813,0.0138
814,0.0128
815,0.0129
816,0.0132
817,0.0137
818,0.0136
819,0.0134
820,0.0142
821,0.0138
822,0.0137
823,0.0129
824,0.0130
825,0.0131
826,0.0129
827,0.0123
828,0.0120
829,0.0127
830,0.0124
831,0.0131
832,0.0115
833,0.0134
834,0.0127
835,0.0127
836,0.0132
837,0.0122
838,0.0132
839,0.0116
840,0.0106
841,0.0116
842,0.0124
843,0.0109
844,0.0110
845,0.0118
846,0.0109
847,0.0108
848,0.0105
849,0.0120
850,0.0111
851,0.0119
852,0.0117
853,0.0113
854,0.0118
855,0.0101
856,0.0104
857,0.0116
858,0.0106
859,0.0099
860,0.0106
861,0.0096
862,0.0114
863,0.0106
864,0.0116
865,0.0093
866,0.0113
867,0.0115
868,0.0099
869,0.0101
870,0.0097
871,0.0095
872,0.0124
873,0.0105
874,0.0106
875,0.0111
876,0.0112
877,0.0103
878,0.0093
879,0.0092
880,0.0105
881,0.0100
882,0.0118
883,0.0113
884,0.0098
885,0.0112
886,0.0118
887,0.0114
888,0.0111
889,0.0113
890,0.0113
891,0.0109
892,0.0122
893,0.0126
894,0.0122
895,0.0135
896,0.0130
897,0.0117
898,0.0121
899,0.0123
900,0.0128
901,0.0121
902,0.0132
903,0.0135
904,0.0133
905,0.0135
906,0.0129
907,0.0158
908,0.0138
909,0.0147
910,0.0163
911,0.0118
912,0.0140
913,0.0112
914,0.0128
915,0.0137
916,0.0120
917,0.0120
918,0.0103
919,0.0099
920,0.0137
921,0.0093
922,0.0095
923,0.0096
924,0.0109
925,0.0093
926,0.0096
927,0.0101
928,0.0087
929,0.0097
930,0.0106
931,0.0072
932,0.0074
933,0.0057
934,0.0084
935,0.0053
936,0.0037
937,0.0033
938,0.0048
939,0.0047
940,0.0042
941,0.0027
942,0.0024
943,0.0007
944,0.0006
945,0.0039
946,0.0005
947,0.0071
