382,NaN
383,1.0000
384,1.0000
385,0.0000
386,0.0000
387,0.0938
388,0.0356
389,0.0589
390,0.0000
391,0.1021
392,0.0534
393,0.1388
394,0.0000
395,0.0000
396,0.0000
397,0.0308
398,0.0000
399,0.0000
400,0.0397
401,0.1744
402,0.0000
403,0.0000
404,0.0567
405,0.0063
406,0.0343
407,0.0010
408,0.0163
409,0.0426
410,0.0333
411,0.0225
412,0.0000
413,0.0190
414,0.0000
415,0.0232
416,0.0174
417,0.0000
418,0.0000
419,0.0000
420,0.0488
421,0.0000
422,0.0000
423,0.0000
424,0.0107
425,0.0105
426,0.0287
427,0.0000
428,0.0177
429,0.0243
430,0.0328
431,0.0509
432,0.0000
433,0.0092
434,0.0000
435,0.0040
436,0.0150
437,0.0341
438,0.0371
439,0.0000
440,0.0289
441,0.0358
442,0.0333
443,0.0484
444,0.0160
445,0.0274
446,0.0066
447,0.0196
448,0.0139
449,0.0228
450,0.0303
451,0.0040
452,0.0084
453,0.0403
454,0.0310
455,0.0113
456,0.0215
457,0.0141
458,0.0259
459,0.0158
460,0.0187
461,0.0203
462,0.0171
463,0.0279
464,0.0163
465,0.0065
466,0.0076
467,0.0171
468,0.0271
469,0.0359
470,0.0208
471,0.0125
472,0.0311
473,0.0311
474,0.0300
475,0.0353
476,0.0282
477,0.0335
478,0.0258
479,0.0384
480,0.0296
481,0.0232
482,0.0365
483,0.0299
484,0.0214
485,0.0354
486,0.0251
487,0.0426
488,0.0283
489,0.0273
490,0.0350
491,0.0347
492,0.0340
493,0.0399
494,0.0337
495,0.0290
496,0.0337
497,0.0300
498,0.0364
499,0.0353
500,0.0351
501,0.0310
502,0.0349
503,0.0286
504,0.0352
505,0.0299
506,0.0317
507,0.0318
508,0.0285
509,0.0266
510,0.0332
511,0.0216
512,0.0254
513,0.0262
514,0.0266
515,0.0239
516,0.0246
517,0.0252
518,0.0209
519,0.0233
520,0.0224
521,0.0219
522,0.0217
523,0.0213
524,0.0204
525,0.0197
526,0.0209
527,0.0224
528,0.0210
529,0.0218
530,0.0198
531,0.0195
532,0.0197
533,0.0197
534,0.0219
535,0.0204
536,0.0206
537,0.0211
538,0.0202
539,0.0213
540,0.0207
541,0.0207
542,0.0201
543,0.0197
544,0.0210
545,0.0200
546,0.0224
547,0.0213
548,0.0204
549,0.0200
550,0.0217
551,0.0195
552,0.0194
553,0.0205
554,0.0211
555,0.0197
556,0.0211
557,0.0208
558,0.0209
559,0.0207
560,0.0213
561,0.0218
562,0.0215
563,0.0215
564,0.0215
565,0.0211
566,0.0201
567,0.0214
568,0.0210
569,0.0236
570,0.0220
571,0.0228
572,0.0216
573,0.0216
574,0.0218
575,0.0215
576,0.0211
577,0.0228
578,0.0204
579,0.0216
580,0.0214
581,0.0198
582,0.0203
583,0.0198
584,0.0204
585,0.0212
586,0.0209
587,0.0213
588,0.0213
589,0.0202
590,0.0213
591,0.0198
592,0.0203
593,0.0203
594,0.0210
595,0.0203
596,0.0204
597,0.0200
598,0.0197
599,0.0205
600,0.0201
601,0.0197
602,0.0204
603,0.0204
604,0.0198
605,0.0198
606,0.0198
607,0.0197
608,0.0197
609,0.0204
610,0.0200
611,0.0206
612,0.0201
613,0.0201
614,0.0194
615,0.0208
616,0.0205
617,0.0197
618,0.0200
619,0.0204
620,0.0207
621,0.0201
622,0.0208
623,0.0208
624,0.0205
625,0.0192
626,0.0208
627,0.0209
628,0.0207
629,0.0210
630,0.0208
631,0.0208
632,0.0205
633,0.0200
634,0.0202
635,0.0212
636,0.0206
637,0.0205
638,0.0206
639,0.0199
640,0.0206
641,0.0210
642,0.0204
643,0.0198
644,0.0203
645,0.0198
646,0.0202
647,0.0206
648,0.0200
649,0.0201
650,0.0192
651,0.0192
652,0.0192
653,0.0191
654,0.0190
655,0.0187
656,0.0187
657,0.0187
658,0.0187
659,0.0179
660,0.0189
661,0.0180
662,0.0187
663,0.0192
664,0.0189
665,0.0193
666,0.0180
667,0.0188
668,0.0187
669,0.0185
670,0.0189
671,0.0193
672,0.0182
673,0.0190
674,0.0182
675,0.0189
676,0.0187
677,0.0181
678,0.0196
679,0.0178
680,0.0187
681,0.0181
682,0.0186
683,0.0186
684,0.0189
685,0.0179
686,0.0188
687,0.0182
688,0.0181
689,0.0187
690,0.0187
691,0.0180
692,0.0179
693,0.0186
694,0.0194
695,0.0192
696,0.0184
697,0.0187
698,0.0188
699,0.0190
700,0.0181
701,0.0186
702,0.0188
703,0.0187
704,0.0180
705,0.0178
706,0.0184
707,0.0180
708,0.0183
709,0.0190
710,0.0177
711,0.0188
712,0.0175
713,0.0178
714,0.0176
715,0.0180
716,0.0181
717,0.0182
718,0.0175
719,0.0179
720,0.0178
721,0.0170
722,0.0164
723,0.0175
724,0.0158
725,0.0167
726,0.0164
727,0.0165
728,0.0163
729,0.0164
730,0.0160
731,0.0164
732,0.0166
733,0.0157
734,0.0161
735,0.0168
736,0.0165
737,0.0157
738,0.0164
739,0.0149
740,0.0156
741,0.0162
742,0.0153
743,0.0160
744,0.0159
745,0.0161
746,0.0157
747,0.0152
748,0.0167
749,0.0160
750,0.0154
751,0.0158
752,0.0151
753,0.0157
754,0.0158
755,0.0166
756,0.0157
757,0.0156
758,0.0154
759,0.0160
760,0.0157
761,0.0157
762,0.0163
763,0.0163
764,0.0159
765,0.0163
766,0.0164
767,0.0159
768,0.0164
769,0.0154
770,0.0153
771,0.0152
772,0.0156
773,0.0153
774,0.0158
775,0.0154
776,0.0165
777,0.0163
778,0.0148
779,0.0160
780,0.0153
781,0.0157
782,0.0147
783,0.0154
784,0.0151
785,0.0153
786,0.0155
787,0.0149
788,0.0155
789,0.0149
790,0.0150
791,0.0145
792,0.0153
793,0.0142
794,0.0154
795,0.0147
796,0.0147
797,0.0150
798,0.0150
799,0.0161
800,0.0160
801,0.0152
802,0.0149
803,0.0161
804,0.0158
805,0.0157
806,0.0163
807,0.0161
808,0.0173
809,0.0153
810,0.0166
811,0.0169
812,0.0162
813,0.0168
814,0.0163
815,0.0162
816,0.0165
817,0.0168
818,0.0164
819,0.0180
820,0.0188
821,0.0174
822,0.0173
823,0.0179
824,0.0175
825,0.0159
826,0.0165
827,0.0153
828,0.0164
829,0.0157
830,0.0173
831,0.0172
832,0.0155
833,0.0155
834,0.0166
835,0.0160
836,0.0160
837,0.0157
838,0.0151
839,0.0143
840,0.0135
841,0.0141
842,0.0159
843,0.0141
844,0.0152
845,0.0153
846,0.0140
847,0.0137
848,0.0139
849,0.0139
850,0.0138
851,0.0141
852,0.0141
853,0.0138
854,0.0140
855,0.0126
856,0.0131
857,0.0146
858,0.0132
859,0.0129
860,0.0128
861,0.0150
862,0.0137
863,0.0142
864,0.0127
865,0.0116
866,0.0143
867,0.0148
868,0.0125
869,0.0127
870,0.0125
871,0.0124
872,0.0144
873,0.0118
874,0.0120
875,0.0122
876,0.0115
877,0.0131
878,0.0117
879,0.0123
880,0.0133
881,0.0124
882,0.0129
883,0.0140
884,0.0124
885,0.0132
886,0.0150
887,0.0144
888,0.0146
889,0.0142
890,0.0147
891,0.0125
892,0.0148
893,0.0164
894,0.0144
895,0.0154
896,0.0164
897,0.0161
898,0.0161
899,0.0132
900,0.0174
901,0.0169
902,0.0154
903,0.0144
904,0.0184
905,0.0177
906,0.0180
907,0.0199
908,0.0199
909,0.0175
910,0.0183
911,0.0163
912,0.0184
913,0.0143
914,0.0165
915,0.0147
916,0.0180
917,0.0156
918,0.0137
919,0.0148
920,0.0157
921,0.0130
922,0.0132
923,0.0124
924,0.0128
925,0.0120
926,0.0103
927,0.0103
928,0.0110
929,0.0127
930,0.0103
931,0.0092
932,0.0096
933,0.0066
934,0.0099
935,0.0063
936,0.0067
937,0.0050
938,0.0079
939,0.0052
940,0.0037
941,0.0033
942,0.0035
943,0.0017
944,0.0047
945,0.0040
946,0.0026
947,0.0096
