382,NaN
383,1.0000
384,0.0000
385,1.0000
386,0.0000
387,0.0472
388,0.1808
389,0.0000
390,0.0000
391,0.0000
392,0.1068
393,0.0168
394,0.0000
395,0.0000
396,0.1678
397,0.0000
398,0.0288
399,0.0604
400,0.0000
401,0.1998
402,0.0000
403,0.0655
404,0.1231
405,0.0000
406,0.0176
407,0.0000
408,0.0000
409,0.0000
410,0.0322
411,0.0763
412,0.0841
413,0.0155
414,0.0000
415,0.0384
416,0.0171
417,0.0000
418,0.0055
419,0.0109
420,0.0034
421,0.0000
422,0.0000
423,0.0486
424,0.0000
425,0.0000
426,0.0298
427,0.0000
428,0.0079
429,0.0104
430,0.0429
431,0.0030
432,0.0506
433,0.0145
434,0.0318
435,0.0079
436,0.0289
437,0.0349
438,0.0102
439,0.0000
440,0.0370
441,0.0416
442,0.0367
443,0.0470
444,0.0314
445,0.0354
446,0.0450
447,0.0255
448,0.0005
449,0.0312
450,0.0399
451,0.0220
452,0.0189
453,0.0393
454,0.0238
455,0.0200
456,0.0291
457,0.0199
458,0.0259
459,0.0091
460,0.0266
461,0.0279
462,0.0086
463,0.0385
464,0.0222
465,0.0122
466,0.0266
467,0.0295
468,0.0389
469,0.0431
470,0.0341
471,0.0289
472,0.0333
473,0.0317
474,0.0298
475,0.0317
476,0.0342
477,0.0462
478,0.0374
479,0.0452
480,0.0351
481,0.0325
482,0.0316
483,0.0380
484,0.0393
485,0.0492
486,0.0278
487,0.0472
488,0.0426
489,0.0433
490,0.0452
491,0.0422
492,0.0360
493,0.0441
494,0.0420
495,0.0422
496,0.0437
497,0.0386
498,0.0417
499,0.0430
500,0.0382
501,0.0390
502,0.0359
503,0.0381
504,0.0388
505,0.0385
506,0.0337
507,0.0382
508,0.0311
509,0.0325
510,0.0331
511,0.0301
512,0.0304
513,0.0315
514,0.0291
515,0.0292
516,0.0297
517,0.0294
518,0.0284
519,0.0254
520,0.0280
521,0.0247
522,0.0264
523,0.0239
524,0.0263
525,0.0253
526,0.0253
527,0.0258
528,0.0244
529,0.0247
530,0.0221
531,0.0253
532,0.0255
533,0.0231
534,0.0238
535,0.0238
536,0.0231
537,0.0233
538,0.0246
539,0.0223
540,0.0239
541,0.0231
542,0.0233
543,0.0235
544,0.0234
545,0.0227
546,0.0251
547,0.0237
548,0.0242
549,0.0214
550,0.0226
551,0.0223
552,0.0241
553,0.0235
554,0.0242
555,0.0228
556,0.0234
557,0.0242
558,0.0244
559,0.0242
560,0.0227
561,0.0238
562,0.0248
563,0.0246
564,0.0235
565,0.0251
566,0.0229
567,0.0236
568,0.0245
569,0.0257
570,0.0251
571,0.0244
572,0.0242
573,0.0246
574,0.0227
575,0.0227
576,0.0254
577,0.0252
578,0.0233
579,0.0249
580,0.0244
581,0.0227
582,0.0231
583,0.0223
584,0.0234
585,0.0237
586,0.0230
587,0.0238
588,0.0228
589,0.0221
590,0.0244
591,0.0225
592,0.0227
593,0.0230
594,0.0237
595,0.0223
596,0.0235
597,0.0227
598,0.0226
599,0.0232
600,0.0227
601,0.0229
602,0.0220
603,0.0222
604,0.0225
605,0.0221
606,0.0217
607,0.0226
608,0.0223
609,0.0226
610,0.0217
611,0.0223
612,0.0228
613,0.0224
614,0.0221
615,0.0224
616,0.0221
617,0.0216
618,0.0231
619,0.0222
620,0.0218
621,0.0227
622,0.0227
623,0.0232
624,0.0227
625,0.0228
626,0.0231
627,0.0230
628,0.0233
629,0.0230
630,0.0229
631,0.0239
632,0.0231
633,0.0233
634,0.0229
635,0.0229
636,0.0228
637,0.0235
638,0.0221
639,0.0224
640,0.0226
641,0.0230
642,0.0225
643,0.0226
644,0.0224
645,0.0221
646,0.0225
647,0.0213
648,0.0221
649,0.0212
650,0.0213
651,0.0216
652,0.0217
653,0.0223
654,0.0208
655,0.0219
656,0.0202
657,0.0208
658,0.0199
659,0.0204
660,0.0204
661,0.0207
662,0.0205
663,0.0213
664,0.0208
665,0.0214
666,0.0211
667,0.0204
668,0.0203
669,0.0210
670,0.0204
671,0.0212
672,0.0206
673,0.0210
674,0.0201
675,0.0205
676,0.0208
677,0.0203
678,0.0213
679,0.0199
680,0.0195
681,0.0209
682,0.0205
683,0.0210
684,0.0213
685,0.0205
686,0.0200
687,0.0195
688,0.0207
689,0.0204
690,0.0206
691,0.0206
692,0.0209
693,0.0204
694,0.0209
695,0.0202
696,0.0208
697,0.0209
698,0.0199
699,0.0204
700,0.0206
701,0.0208
702,0.0214
703,0.0201
704,0.0194
705,0.0202
706,0.0199
707,0.0191
708,0.0207
709,0.0211
710,0.0202
711,0.0208
712,0.0197
713,0.0200
714,0.0201
715,0.0207
716,0.0196
717,0.0205
718,0.0204
719,0.0199
720,0.0203
721,0.0185
722,0.0190
723,0.0178
724,0.0187
725,0.0175
726,0.0189
727,0.0179
728,0.0177
729,0.0175
730,0.0180
731,0.0173
732,0.0188
733,0.0176
734,0.0181
735,0.0181
736,0.0180
737,0.0172
738,0.0175
739,0.0176
740,0.0174
741,0.0180
742,0.0177
743,0.0178
744,0.0171
745,0.0177
746,0.0172
747,0.0178
748,0.0180
749,0.0171
750,0.0165
751,0.0181
752,0.0172
753,0.0176
754,0.0174
755,0.0180
756,0.0181
757,0.0183
758,0.0173
759,0.0182
760,0.0185
761,0.0184
762,0.0176
763,0.0181
764,0.0182
765,0.0179
766,0.0180
767,0.0172
768,0.0178
769,0.0175
770,0.0172
771,0.0176
772,0.0168
773,0.0172
774,0.0181
775,0.0176
776,0.0179
777,0.0173
778,0.0178
779,0.0170
780,0.0174
781,0.0171
782,0.0174
783,0.0178
784,0.0171
785,0.0166
786,0.0175
787,0.0169
788,0.0174
789,0.0168
790,0.0174
791,0.0159
792,0.0174
793,0.0162
794,0.0165
795,0.0172
796,0.0165
797,0.0181
798,0.0169
799,0.0173
800,0.0181
801,0.0170
802,0.0168
803,0.0178
804,0.0183
805,0.0168
806,0.0175
807,0.0179
808,0.0187
809,0.0183
810,0.0192
811,0.0188
812,0.0175
813,0.0184
814,0.0178
815,0.0183
816,0.0179
817,0.0191
818,0.0190
819,0.0199
820,0.0196
821,0.0191
822,0.0196
823,0.0200
824,0.0189
825,0.0187
826,0.0186
827,0.0168
828,0.0182
829,0.0176
830,0.0184
831,0.0184
832,0.0183
833,0.0188
834,0.0176
835,0.0180
836,0.0176
837,0.0171
838,0.0170
839,0.0168
840,0.0166
841,0.0165
842,0.0169
843,0.0163
844,0.0167
845,0.0161
846,0.0143
847,0.0154
848,0.0160
849,0.0152
850,0.0152
851,0.0167
852,0.0153
853,0.0156
854,0.0159
855,0.0153
856,0.0146
857,0.0165
858,0.0148
859,0.0154
860,0.0146
861,0.0145
862,0.0137
863,0.0167
864,0.0153
865,0.0140
866,0.0149
867,0.0152
868,0.0143
869,0.0143
870,0.0146
871,0.0151
872,0.0152
873,0.0138
874,0.0137
875,0.0143
876,0.0149
877,0.0148
878,0.0139
879,0.0133
880,0.0153
881,0.0126
882,0.0147
883,0.0153
884,0.0143
885,0.0145
886,0.0156
887,0.0160
888,0.0159
889,0.0161
890,0.0177
891,0.0149
892,0.0173
893,0.0189
894,0.0194
895,0.0167
896,0.0174
897,0.0163
898,0.0175
899,0.0185
900,0.0190
901,0.0180
902,0.0154
903,0.0174
904,0.0207
905,0.0199
906,0.0193
907,0.0227
908,0.0199
909,0.0202
910,0.0212
911,0.0184
912,0.0218
913,0.0157
914,0.0189
915,0.0182
916,0.0185
917,0.0176
918,0.0163
919,0.0188
920,0.0191
921,0.0136
922,0.0164
923,0.0117
924,0.0148
925,0.0142
926,0.0143
927,0.0121
928,0.0126
929,0.0143
930,0.0109
931,0.0125
932,0.0118
933,0.0077
934,0.0117
935,0.0084
936,0.0065
937,0.0063
938,0.0062
939,0.0041
940,0.0047
941,0.0044
942,0.0047
943,0.0019
944,0.0023
945,0.0035
946,0.0025
947,0.0080
