382,NaN
383,1.0000
384,0.0000
385,0.0000
386,0.4831
387,0.1900
388,0.1134
389,0.0593
390,0.0000
391,0.0519
392,0.1122
393,0.1126
394,0.0412
395,0.0000
396,0.0496
397,0.0000
398,0.0000
399,0.0361
400,0.0000
401,0.2426
402,0.0000
403,0.1128
404,0.0291
405,0.0000
406,0.0223
407,0.0831
408,0.0000
409,0.0311
410,0.0602
411,0.0717
412,0.0858
413,0.0403
414,0.0486
415,0.0000
416,0.0081
417,0.0742
418,0.0236
419,0.0000
420,0.0000
421,0.0004
422,0.0000
423,0.0485
424,0.0000
425,0.0000
426,0.0448
427,0.0225
428,0.0238
429,0.0000
430,0.0623
431,0.0151
432,0.0101
433,0.0000
434,0.0007
435,0.0478
436,0.0025
437,0.0288
438,0.0088
439,0.0201
440,0.0103
441,0.0427
442,0.0403
443,0.0250
444,0.0183
445,0.0240
446,0.0143
447,0.0410
448,0.0045
449,0.0221
450,0.0211
451,0.0285
452,0.0172
453,0.0577
454,0.0322
455,0.0316
456,0.0318
457,0.0287
458,0.0267
459,0.0130
460,0.0215
461,0.0326
462,0.0206
463,0.0415
464,0.0153
465,0.0062
466,0.0279
467,0.0177
468,0.0299
469,0.0415
470,0.0329
471,0.0211
472,0.0415
473,0.0313
474,0.0338
475,0.0384
476,0.0274
477,0.0418
478,0.0372
479,0.0442
480,0.0369
481,0.0416
482,0.0363
483,0.0376
484,0.0362
485,0.0405
486,0.0276
487,0.0495
488,0.0362
489,0.0397
490,0.0445
491,0.0439
492,0.0415
493,0.0484
494,0.0446
495,0.0484
496,0.0459
497,0.0410
498,0.0482
499,0.0420
500,0.0398
501,0.0396
502,0.0472
503,0.0349
504,0.0380
505,0.0352
506,0.0340
507,0.0347
508,0.0357
509,0.0334
510,0.0361
511,0.0275
512,0.0285
513,0.0297
514,0.0270
515,0.0319
516,0.0289
517,0.0310
518,0.0269
519,0.0269
520,0.0308
521,0.0260
522,0.0278
523,0.0264
524,0.0275
525,0.0265
526,0.0283
527,0.0286
528,0.0246
529,0.0243
530,0.0264
531,0.0259
532,0.0242
533,0.0225
534,0.0255
535,0.0234
536,0.0230
537,0.0229
538,0.0224
539,0.0229
540,0.0239
541,0.0235
542,0.0232
543,0.0249
544,0.0235
545,0.0250
546,0.0254
547,0.0247
548,0.0245
549,0.0252
550,0.0258
551,0.0257
552,0.0250
553,0.0261
554,0.0270
555,0.0258
556,0.0255
557,0.0257
558,0.0264
559,0.0258
560,0.0245
561,0.0251
562,0.0245
563,0.0261
564,0.0243
565,0.0242
566,0.0227
567,0.0238
568,0.0244
569,0.0238
570,0.0255
571,0.0254
572,0.0245
573,0.0235
574,0.0239
575,0.0234
576,0.0238
577,0.0238
578,0.0243
579,0.0243
580,0.0250
581,0.0241
582,0.0245
583,0.0240
584,0.0251
585,0.0242
586,0.0248
587,0.0258
588,0.0256
589,0.0249
590,0.0260
591,0.0252
592,0.0250
593,0.0239
594,0.0249
595,0.0243
596,0.0242
597,0.0234
598,0.0235
599,0.0243
600,0.0237
601,0.0231
602,0.0239
603,0.0225
604,0.0227
605,0.0227
606,0.0219
607,0.0228
608,0.0231
609,0.0215
610,0.0223
611,0.0215
612,0.0228
613,0.0222
614,0.0221
615,0.0220
616,0.0228
617,0.0223
618,0.0225
619,0.0230
620,0.0234
621,0.0232
622,0.0239
623,0.0241
624,0.0240
625,0.0230
626,0.0242
627,0.0244
628,0.0251
629,0.0245
630,0.0240
631,0.0250
632,0.0241
633,0.0241
634,0.0242
635,0.0240
636,0.0231
637,0.0243
638,0.0230
639,0.0228
640,0.0239
641,0.0239
642,0.0231
643,0.0231
644,0.0231
645,0.0221
646,0.0229
647,0.0221
648,0.0218
649,0.0212
650,0.0217
651,0.0219
652,0.0219
653,0.0209
654,0.0209
655,0.0214
656,0.0207
657,0.0205
658,0.0213
659,0.0201
660,0.0210
661,0.0204
662,0.0212
663,0.0210
664,0.0206
665,0.0217
666,0.0205
667,0.0209
668,0.0210
669,0.0222
670,0.0216
671,0.0215
672,0.0214
673,0.0220
674,0.0214
675,0.0217
676,0.0219
677,0.0215
678,0.0218
679,0.0208
680,0.0211
681,0.0216
682,0.0215
683,0.0213
684,0.0222
685,0.0217
686,0.0220
687,0.0209
688,0.0213
689,0.0219
690,0.0211
691,0.0210
692,0.0213
693,0.0205
694,0.0214
695,0.0210
696,0.0209
697,0.0205
698,0.0209
699,0.0215
700,0.0204
701,0.0208
702,0.0207
703,0.0204
704,0.0197
705,0.0201
706,0.0208
707,0.0191
708,0.0203
709,0.0198
710,0.0194
711,0.0210
712,0.0199
713,0.0203
714,0.0196
715,0.0208
716,0.0209
717,0.0212
718,0.0198
719,0.0197
720,0.0195
721,0.0188
722,0.0187
723,0.0196
724,0.0192
725,0.0192
726,0.0189
727,0.0192
728,0.0189
729,0.0185
730,0.0190
731,0.0189
732,0.0198
733,0.0189
734,0.0192
735,0.0197
736,0.0199
737,0.0193
738,0.0196
739,0.0186
740,0.0184
741,0.0195
742,0.0188
743,0.0181
744,0.0187
745,0.0186
746,0.0183
747,0.0191
748,0.0190
749,0.0186
750,0.0179
751,0.0177
752,0.0182
753,0.0182
754,0.0180
755,0.0190
756,0.0180
757,0.0187
758,0.0172
759,0.0183
760,0.0179
761,0.0178
762,0.0178
763,0.0182
764,0.0176
765,0.0181
766,0.0174
767,0.0172
768,0.0167
769,0.0162
770,0.0161
771,0.0168
772,0.0167
773,0.0172
774,0.0171
775,0.0169
776,0.0178
777,0.0163
778,0.0175
779,0.0173
780,0.0170
781,0.0174
782,0.0178
783,0.0174
784,0.0175
785,0.0186
786,0.0177
787,0.0187
788,0.0189
789,0.0179
790,0.0185
791,0.0188
792,0.0183
793,0.0162
794,0.0175
795,0.0179
796,0.0173
797,0.0192
798,0.0190
799,0.0185
800,0.0189
801,0.0175
802,0.0185
803,0.0199
804,0.0185
805,0.0192
806,0.0182
807,0.0208
808,0.0199
809,0.0196
810,0.0203
811,0.0201
812,0.0197
813,0.0195
814,0.0194
815,0.0201
816,0.0193
817,0.0196
818,0.0188
819,0.0210
820,0.0204
821,0.0205
822,0.0201
823,0.0189
824,0.0179
825,0.0192
826,0.0182
827,0.0183
828,0.0179
829,0.0186
830,0.0176
831,0.0188
832,0.0178
833,0.0162
834,0.0161
835,0.0172
836,0.0168
837,0.0163
838,0.0167
839,0.0162
840,0.0150
841,0.0156
842,0.0160
843,0.0145
844,0.0172
845,0.0163
846,0.0148
847,0.0158
848,0.0153
849,0.0145
850,0.0156
851,0.0149
852,0.0150
853,0.0150
854,0.0166
855,0.0139
856,0.0154
857,0.0163
858,0.0148
859,0.0133
860,0.0152
861,0.0147
862,0.0159
863,0.0166
864,0.0144
865,0.0157
866,0.0166
867,0.0162
868,0.0149
869,0.0148
870,0.0159
871,0.0162
872,0.0164
873,0.0157
874,0.0164
875,0.0161
876,0.0162
877,0.0169
878,0.0152
879,0.0150
880,0.0161
881,0.0151
882,0.0153
883,0.0160
884,0.0160
885,0.0163
886,0.0156
887,0.0174
888,0.0161
889,0.0168
890,0.0174
891,0.0165
892,0.0175
893,0.0187
894,0.0201
895,0.0169
896,0.0165
897,0.0185
898,0.0167
899,0.0176
900,0.0173
901,0.0178
902,0.0171
903,0.0167
904,0.0174
905,0.0169
906,0.0192
907,0.0220
908,0.0200
909,0.0194
910,0.0188
911,0.0153
912,0.0185
913,0.0148
914,0.0170
915,0.0169
916,0.0175
917,0.0155
918,0.0155
919,0.0135
920,0.0162
921,0.0100
922,0.0136
923,0.0133
924,0.0135
925,0.0137
926,0.0138
927,0.0122
928,0.0124
929,0.0111
930,0.0112
931,0.0100
932,0.0122
933,0.0094
934,0.0089
935,0.0089
936,0.0074
937,0.0055
938,0.0059
939,0.0031
940,0.0034
941,0.0036
942,0.0060
943,0.0021
944,0.0039
945,0.0037
946,0.0037
947,0.0057
