382,NaN
383,1.0000
384,1.0000
385,1.0000
386,0.0000
387,0.1392
388,0.0000
389,0.0000
390,0.0000
391,0.0124
392,0.1162
393,0.0756
394,0.0000
395,0.0000
396,0.2301
397,0.0000
398,0.0000
399,0.0481
400,0.0000
401,0.1682
402,0.0000
403,0.0000
404,0.0275
405,0.0000
406,0.0000
407,0.0606
408,0.0000
409,0.0131
410,0.1350
411,0.0860
412,0.0631
413,0.0171
414,0.0000
415,0.0463
416,0.0248
417,0.0402
418,0.0000
419,0.0000
420,0.0461
421,0.0110
422,0.0000
423,0.0000
424,0.0249
425,0.0381
426,0.0194
427,0.0092
428,0.0411
429,0.0469
430,0.0337
431,0.0511
432,0.0411
433,0.0000
434,0.0383
435,0.0493
436,0.0544
437,0.0560
438,0.0389
439,0.0303
440,0.0010
441,0.0524
442,0.0343
443,0.0379
444,0.0525
445,0.0349
446,0.0378
447,0.0408
448,0.0376
449,0.0258
450,0.0319
451,0.0182
452,0.0138
453,0.0395
454,0.0341
455,0.0280
456,0.0458
457,0.0162
458,0.0308
459,0.0280
460,0.0372
461,0.0526
462,0.0313
463,0.0551
464,0.0242
465,0.0247
466,0.0393
467,0.0328
468,0.0425
469,0.0489
470,0.0336
471,0.0275
472,0.0360
473,0.0357
474,0.0400
475,0.0391
476,0.0412
477,0.0473
478,0.0365
479,0.0553
480,0.0476
481,0.0432
482,0.0528
483,0.0564
484,0.0475
485,0.0481
486,0.0505
487,0.0616
488,0.0588
489,0.0524
490,0.0617
491,0.0514
492,0.0491
493,0.0573
494,0.0511
495,0.0535
496,0.0454
497,0.0439
498,0.0473
499,0.0452
500,0.0440
501,0.0486
502,0.0428
503,0.0406
504,0.0475
505,0.0407
506,0.0472
507,0.0488
508,0.0467
509,0.0460
510,0.0449
511,0.0390
512,0.0418
513,0.0388
514,0.0399
515,0.0384
516,0.0376
517,0.0364
518,0.0313
519,0.0329
520,0.0287
521,0.0273
522,0.0291
523,0.0256
524,0.0267
525,0.0262
526,0.0274
527,0.0289
528,0.0272
529,0.0286
530,0.0291
531,0.0287
532,0.0285
533,0.0269
534,0.0309
535,0.0292
536,0.0294
537,0.0300
538,0.0288
539,0.0308
540,0.0295
541,0.0290
542,0.0279
543,0.0274
544,0.0261
545,0.0269
546,0.0269
547,0.0263
548,0.0253
549,0.0253
550,0.0249
551,0.0252
552,0.0257
553,0.0256
554,0.0256
555,0.0260
556,0.0264
557,0.0277
558,0.0277
559,0.0282
560,0.0276
561,0.0286
562,0.0285
563,0.0300
564,0.0305
565,0.0302
566,0.0291
567,0.0295
568,0.0294
569,0.0300
570,0.0290
571,0.0288
572,0.0279
573,0.0267
574,0.0277
575,0.0268
576,0.0272
577,0.0253
578,0.0248
579,0.0263
580,0.0260
581,0.0254
582,0.0248
583,0.0249
584,0.0243
585,0.0252
586,0.0255
587,0.0257
588,0.0267
589,0.0253
590,0.0277
591,0.0265
592,0.0282
593,0.0273
594,0.0286
595,0.0275
596,0.0263
597,0.0276
598,0.0273
599,0.0273
600,0.0276
601,0.0266
602,0.0276
603,0.0259
604,0.0259
605,0.0252
606,0.0249
607,0.0254
608,0.0241
609,0.0247
610,0.0244
611,0.0242
612,0.0247
613,0.0236
614,0.0242
615,0.0239
616,0.0240
617,0.0240
618,0.0244
619,0.0254
620,0.0249
621,0.0248
622,0.0258
623,0.0257
624,0.0260
625,0.0267
626,0.0270
627,0.0266
628,0.0281
629,0.0279
630,0.0271
631,0.0276
632,0.0274
633,0.0273
634,0.0276
635,0.0271
636,0.0266
637,0.0278
638,0.0266
639,0.0255
640,0.0262
641,0.0264
642,0.0253
643,0.0243
644,0.0240
645,0.0237
646,0.0242
647,0.0231
648,0.0229
649,0.0229
650,0.0227
651,0.0222
652,0.0221
653,0.0227
654,0.0214
655,0.0224
656,0.0216
657,0.0222
658,0.0222
659,0.0226
660,0.0230
661,0.0223
662,0.0227
663,0.0242
664,0.0239
665,0.0233
666,0.0243
667,0.0242
668,0.0248
669,0.0256
670,0.0248
671,0.0250
672,0.0245
673,0.0248
674,0.0237
675,0.0245
676,0.0250
677,0.0242
678,0.0243
679,0.0243
680,0.0235
681,0.0228
682,0.0229
683,0.0232
684,0.0228
685,0.0227
686,0.0225
687,0.0216
688,0.0223
689,0.0218
690,0.0225
691,0.0219
692,0.0212
693,0.0217
694,0.0217
695,0.0214
696,0.0217
697,0.0220
698,0.0215
699,0.0226
700,0.0225
701,0.0224
702,0.0232
703,0.0228
704,0.0219
705,0.0231
706,0.0224
707,0.0224
708,0.0234
709,0.0237
710,0.0229
711,0.0242
712,0.0230
713,0.0236
714,0.0245
715,0.0243
716,0.0246
717,0.0238
718,0.0232
719,0.0229
720,0.0226
721,0.0226
722,0.0215
723,0.0221
724,0.0216
725,0.0218
726,0.0216
727,0.0215
728,0.0205
729,0.0198
730,0.0199
731,0.0198
732,0.0202
733,0.0185
734,0.0194
735,0.0198
736,0.0196
737,0.0192
738,0.0183
739,0.0194
740,0.0183
741,0.0190
742,0.0191
743,0.0180
744,0.0182
745,0.0183
746,0.0186
747,0.0189
748,0.0194
749,0.0186
750,0.0187
751,0.0193
752,0.0195
753,0.0201
754,0.0199
755,0.0203
756,0.0202
757,0.0208
758,0.0201
759,0.0211
760,0.0214
761,0.0215
762,0.0210
763,0.0208
764,0.0216
765,0.0219
766,0.0209
767,0.0207
768,0.0209
769,0.0210
770,0.0204
771,0.0219
772,0.0210
773,0.0206
774,0.0215
775,0.0218
776,0.0200
777,0.0203
778,0.0202
779,0.0206
780,0.0200
781,0.0202
782,0.0205
783,0.0206
784,0.0186
785,0.0196
786,0.0195
787,0.0195
788,0.0185
789,0.0186
790,0.0178
791,0.0181
792,0.0178
793,0.0178
794,0.0179
795,0.0176
796,0.0174
797,0.0184
798,0.0178
799,0.0160
800,0.0185
801,0.0176
802,0.0180
803,0.0186
804,0.0187
805,0.0183
806,0.0181
807,0.0193
808,0.0197
809,0.0191
810,0.0208
811,0.0210
812,0.0202
813,0.0207
814,0.0197
815,0.0203
816,0.0220
817,0.0203
818,0.0213
819,0.0231
820,0.0241
821,0.0223
822,0.0229
823,0.0220
824,0.0223
825,0.0228
826,0.0226
827,0.0224
828,0.0211
829,0.0222
830,0.0229
831,0.0229
832,0.0209
833,0.0203
834,0.0204
835,0.0208
836,0.0198
837,0.0208
838,0.0200
839,0.0186
840,0.0199
841,0.0184
842,0.0208
843,0.0177
844,0.0188
845,0.0187
846,0.0177
847,0.0161
848,0.0170
849,0.0174
850,0.0160
851,0.0172
852,0.0171
853,0.0165
854,0.0169
855,0.0156
856,0.0151
857,0.0160
858,0.0166
859,0.0147
860,0.0153
861,0.0169
862,0.0167
863,0.0168
864,0.0155
865,0.0148
866,0.0156
867,0.0173
868,0.0146
869,0.0155
870,0.0151
871,0.0151
872,0.0157
873,0.0165
874,0.0161
875,0.0151
876,0.0146
877,0.0145
878,0.0162
879,0.0170
880,0.0161
881,0.0152
882,0.0168
883,0.0158
884,0.0174
885,0.0177
886,0.0162
887,0.0194
888,0.0156
889,0.0188
890,0.0190
891,0.0186
892,0.0203
893,0.0222
894,0.0205
895,0.0212
896,0.0198
897,0.0227
898,0.0208
899,0.0204
900,0.0242
901,0.0225
902,0.0205
903,0.0219
904,0.0233
905,0.0221
906,0.0219
907,0.0243
908,0.0257
909,0.0234
910,0.0243
911,0.0216
912,0.0248
913,0.0170
914,0.0227
915,0.0208
916,0.0228
917,0.0205
918,0.0195
919,0.0196
920,0.0195
921,0.0157
922,0.0171
923,0.0144
924,0.0146
925,0.0145
926,0.0151
927,0.0144
928,0.0112
929,0.0137
930,0.0121
931,0.0122
932,0.0102
933,0.0086
934,0.0096
935,0.0082
936,0.0072
937,0.0064
938,0.0079
939,0.0034
940,0.0052
941,0.0044
942,0.0047
943,0.0023
944,0.0025
945,0.0047
946,0.0003
947,0.0084
