382,NaN
383,1.0000
384,1.0000
385,1.0000
386,0.0000
387,0.2720
388,0.3271
389,0.1252
390,0.1198
391,0.1507
392,0.1709
393,0.3611
394,0.0436
395,0.0030
396,0.1818
397,0.0000
398,0.0443
399,0.0000
400,0.1269
401,0.2745
402,0.0000
403,0.1447
404,0.0999
405,0.0947
406,0.0436
407,0.1513
408,0.0423
409,0.1239
410,0.1479
411,0.0668
412,0.0812
413,0.1501
414,0.0513
415,0.0296
416,0.1009
417,0.1127
418,0.0548
419,0.0644
420,0.0919
421,0.0402
422,0.0427
423,0.0613
424,0.0329
425,0.0682
426,0.0894
427,0.0182
428,0.0388
429,0.0557
430,0.0755
431,0.0566
432,0.0652
433,0.0570
434,0.0878
435,0.0715
436,0.0862
437,0.0988
438,0.0782
439,0.0862
440,0.0910
441,0.1004
442,0.0624
443,0.0968
444,0.0738
445,0.0551
446,0.0628
447,0.0595
448,0.0458
449,0.0822
450,0.0690
451,0.0696
452,0.0666
453,0.0835
454,0.0922
455,0.0960
456,0.0934
457,0.0663
458,0.0777
459,0.0922
460,0.0645
461,0.0751
462,0.0634
463,0.0825
464,0.0573
465,0.0478
466,0.0539
467,0.0648
468,0.0842
469,0.0863
470,0.0783
471,0.0832
472,0.0879
473,0.0937
474,0.0933
475,0.0979
476,0.0866
477,0.1047
478,0.0844
479,0.0915
480,0.0920
481,0.0804
482,0.0746
483,0.0832
484,0.0798
485,0.0978
486,0.0819
487,0.1089
488,0.1007
489,0.1052
490,0.1085
491,0.1112
492,0.1139
493,0.1274
494,0.1243
495,0.1208
496,0.1169
497,0.1171
498,0.1130
499,0.0985
500,0.1006
501,0.0900
502,0.0866
503,0.0732
504,0.0784
505,0.0696
506,0.0736
507,0.0740
508,0.0711
509,0.0717
510,0.0704
511,0.0678
512,0.0731
513,0.0733
514,0.0733
515,0.0760
516,0.0738
517,0.0749
518,0.0717
519,0.0710
520,0.0689
521,0.0643
522,0.0626
523,0.0590
524,0.0575
525,0.0522
526,0.0501
527,0.0488
528,0.0462
529,0.0451
530,0.0427
531,0.0425
532,0.0429
533,0.0415
534,0.0442
535,0.0443
536,0.0482
537,0.0496
538,0.0511
539,0.0527
540,0.0557
541,0.0579
542,0.0556
543,0.0593
544,0.0579
545,0.0586
546,0.0572
547,0.0569
548,0.0546
549,0.0535
550,0.0508
551,0.0474
552,0.0480
553,0.0457
554,0.0445
555,0.0416
556,0.0402
557,0.0397
558,0.0395
559,0.0376
560,0.0385
561,0.0394
562,0.0413
563,0.0440
564,0.0443
565,0.0478
566,0.0462
567,0.0485
568,0.0526
569,0.0549
570,0.0568
571,0.0573
572,0.0593
573,0.0575
574,0.0597
575,0.0567
576,0.0579
577,0.0557
578,0.0547
579,0.0538
580,0.0525
581,0.0493
582,0.0469
583,0.0459
584,0.0427
585,0.0408
586,0.0397
587,0.0376
588,0.0360
589,0.0360
590,0.0358
591,0.0349
592,0.0375
593,0.0373
594,0.0390
595,0.0400
596,0.0414
597,0.0424
598,0.0444
599,0.0466
600,0.0477
601,0.0486
602,0.0507
603,0.0511
604,0.0528
605,0.0532
606,0.0528
607,0.0542
608,0.0538
609,0.0530
610,0.0513
611,0.0515
612,0.0499
613,0.0490
614,0.0471
615,0.0449
616,0.0435
617,0.0414
618,0.0408
619,0.0398
620,0.0376
621,0.0357
622,0.0359
623,0.0356
624,0.0351
625,0.0338
626,0.0345
627,0.0345
628,0.0365
629,0.0366
630,0.0374
631,0.0391
632,0.0399
633,0.0424
634,0.0431
635,0.0450
636,0.0459
637,0.0479
638,0.0488
639,0.0502
640,0.0529
641,0.0532
642,0.0530
643,0.0540
644,0.0534
645,0.0533
646,0.0527
647,0.0508
648,0.0506
649,0.0493
650,0.0482
651,0.0469
652,0.0450
653,0.0436
654,0.0409
655,0.0401
656,0.0378
657,0.0360
658,0.0350
659,0.0337
660,0.0324
661,0.0316
662,0.0320
663,0.0308
664,0.0312
665,0.0309
666,0.0306
667,0.0310
668,0.0327
669,0.0329
670,0.0348
671,0.0356
672,0.0365
673,0.0381
674,0.0388
675,0.0413
676,0.0422
677,0.0430
678,0.0434
679,0.0456
680,0.0451
681,0.0463
682,0.0470
683,0.0482
684,0.0498
685,0.0488
686,0.0486
687,0.0484
688,0.0476
689,0.0486
690,0.0482
691,0.0473
692,0.0461
693,0.0459
694,0.0447
695,0.0424
696,0.0418
697,0.0403
698,0.0390
699,0.0385
700,0.0367
701,0.0353
702,0.0343
703,0.0339
704,0.0324
705,0.0313
706,0.0304
707,0.0309
708,0.0306
709,0.0315
710,0.0298
711,0.0314
712,0.0314
713,0.0321
714,0.0327
715,0.0335
716,0.0334
717,0.0354
718,0.0356
719,0.0369
720,0.0378
721,0.0371
722,0.0391
723,0.0397
724,0.0405
725,0.0408
726,0.0419
727,0.0423
728,0.0429
729,0.0424
730,0.0433
731,0.0429
732,0.0439
733,0.0431
734,0.0439
735,0.0436
736,0.0431
737,0.0423
738,0.0416
739,0.0416
740,0.0405
741,0.0400
742,0.0400
743,0.0385
744,0.0372
745,0.0360
746,0.0352
747,0.0347
748,0.0339
749,0.0323
750,0.0309
751,0.0317
752,0.0305
753,0.0293
754,0.0295
755,0.0306
756,0.0283
757,0.0292
758,0.0282
759,0.0277
760,0.0279
761,0.0284
762,0.0281
763,0.0285
764,0.0296
765,0.0307
766,0.0292
767,0.0309
768,0.0320
769,0.0316
770,0.0320
771,0.0342
772,0.0344
773,0.0348
774,0.0368
775,0.0356
776,0.0376
777,0.0383
778,0.0393
779,0.0411
780,0.0401
781,0.0413
782,0.0406
783,0.0417
784,0.0402
785,0.0434
786,0.0413
787,0.0418
788,0.0417
789,0.0419
790,0.0412
791,0.0398
792,0.0408
793,0.0391
794,0.0396
795,0.0383
796,0.0378
797,0.0396
798,0.0376
799,0.0370
800,0.0363
801,0.0352
802,0.0342
803,0.0340
804,0.0342
805,0.0330
806,0.0321
807,0.0333
808,0.0334
809,0.0324
810,0.0330
811,0.0311
812,0.0301
813,0.0310
814,0.0310
815,0.0294
816,0.0295
817,0.0299
818,0.0309
819,0.0327
820,0.0329
821,0.0322
822,0.0338
823,0.0320
824,0.0332
825,0.0341
826,0.0342
827,0.0335
828,0.0342
829,0.0352
830,0.0370
831,0.0370
832,0.0377
833,0.0367
834,0.0374
835,0.0384
836,0.0391
837,0.0397
838,0.0383
839,0.0362
840,0.0374
841,0.0384
842,0.0396
843,0.0378
844,0.0381
845,0.0387
846,0.0393
847,0.0385
848,0.0377
849,0.0398
850,0.0379
851,0.0389
852,0.0362
853,0.0369
854,0.0376
855,0.0378
856,0.0359
857,0.0365
858,0.0365
859,0.0344
860,0.0340
861,0.0338
862,0.0334
863,0.0337
864,0.0311
865,0.0300
866,0.0307
867,0.0297
868,0.0293
869,0.0274
870,0.0275
871,0.0278
872,0.0278
873,0.0253
874,0.0248
875,0.0245
876,0.0244
877,0.0249
878,0.0239
879,0.0241
880,0.0243
881,0.0218
882,0.0250
883,0.0257
884,0.0252
885,0.0245
886,0.0266
887,0.0274
888,0.0269
889,0.0283
890,0.0300
891,0.0284
892,0.0294
893,0.0337
894,0.0340
895,0.0338
896,0.0361
897,0.0364
898,0.0360
899,0.0355
900,0.0416
901,0.0411
902,0.0396
903,0.0435
904,0.0456
905,0.0439
906,0.0441
907,0.0499
908,0.0481
909,0.0479
910,0.0482
911,0.0463
912,0.0492
913,0.0464
914,0.0456
915,0.0464
916,0.0469
917,0.0423
918,0.0444
919,0.0407
920,0.0433
921,0.0383
922,0.0374
923,0.0356
924,0.0354
925,0.0348
926,0.0333
927,0.0325
928,0.0334
929,0.0333
930,0.0293
931,0.0277
932,0.0276
933,0.0243
934,0.0232
935,0.0205
936,0.0180
937,0.0170
938,0.0136
939,0.0093
940,0.0112
941,0.0080
942,0.0050
943,0.0079
944,0.0066
945,0.0073
946,0.0073
947,0.0110
