382,NaN
383,0.6473
384,0.0000
385,1.0000
386,0.0000
387,0.1596
388,0.3859
389,0.1675
390,0.0838
391,0.2087
392,0.3171
393,0.0982
394,0.0590
395,0.0910
396,0.2047
397,0.0427
398,0.1215
399,0.1067
400,0.0713
401,0.3450
402,0.0506
403,0.1820
404,0.1033
405,0.1752
406,0.0801
407,0.0660
408,0.1224
409,0.0993
410,0.1418
411,0.1621
412,0.1645
413,0.1280
414,0.0715
415,0.0995
416,0.1092
417,0.1669
418,0.0986
419,0.0969
420,0.1134
421,0.0798
422,0.1086
423,0.0992
424,0.0620
425,0.0761
426,0.0939
427,0.0787
428,0.0541
429,0.0874
430,0.1222
431,0.0996
432,0.1345
433,0.1162
434,0.1257
435,0.1412
436,0.1195
437,0.1350
438,0.1084
439,0.1076
440,0.1001
441,0.1213
442,0.0884
443,0.0884
444,0.1067
445,0.1062
446,0.0926
447,0.1126
448,0.1090
449,0.1122
450,0.1148
451,0.1121
452,0.1097
453,0.1480
454,0.1500
455,0.1310
456,0.1281
457,0.1099
458,0.0945
459,0.1063
460,0.0826
461,0.0895
462,0.1008
463,0.0995
464,0.0896
465,0.0782
466,0.0891
467,0.0934
468,0.1192
469,0.1370
470,0.1367
471,0.1311
472,0.1305
473,0.1355
474,0.1375
475,0.1443
476,0.1436
477,0.1501
478,0.1288
479,0.1379
480,0.1256
481,0.1184
482,0.1142
483,0.1240
484,0.1250
485,0.1409
486,0.1303
487,0.1420
488,0.1470
489,0.1502
490,0.1607
491,0.1618
492,0.1664
493,0.1705
494,0.1763
495,0.1805
496,0.1655
497,0.1574
498,0.1625
499,0.1431
500,0.1415
501,0.1453
502,0.1313
503,0.1168
504,0.1175
505,0.1095
506,0.1114
507,0.1087
508,0.1092
509,0.1077
510,0.1088
511,0.1016
512,0.1041
513,0.1007
514,0.1061
515,0.1024
516,0.1006
517,0.0986
518,0.0935
519,0.0914
520,0.0902
521,0.0855
522,0.0826
523,0.0791
524,0.0802
525,0.0772
526,0.0739
527,0.0727
528,0.0724
529,0.0706
530,0.0693
531,0.0679
532,0.0679
533,0.0694
534,0.0703
535,0.0704
536,0.0748
537,0.0747
538,0.0764
539,0.0753
540,0.0775
541,0.0748
542,0.0744
543,0.0739
544,0.0721
545,0.0721
546,0.0747
547,0.0722
548,0.0682
549,0.0654
550,0.0654
551,0.0637
552,0.0629
553,0.0629
554,0.0641
555,0.0626
556,0.0628
557,0.0637
558,0.0631
559,0.0650
560,0.0652
561,0.0676
562,0.0694
563,0.0718
564,0.0740
565,0.0742
566,0.0731
567,0.0766
568,0.0778
569,0.0771
570,0.0774
571,0.0780
572,0.0766
573,0.0742
574,0.0737
575,0.0701
576,0.0702
577,0.0682
578,0.0654
579,0.0642
580,0.0630
581,0.0604
582,0.0584
583,0.0584
584,0.0561
585,0.0561
586,0.0560
587,0.0555
588,0.0562
589,0.0575
590,0.0591
591,0.0594
592,0.0611
593,0.0617
594,0.0650
595,0.0647
596,0.0682
597,0.0682
598,0.0695
599,0.0700
600,0.0708
601,0.0728
602,0.0724
603,0.0723
604,0.0722
605,0.0700
606,0.0693
607,0.0674
608,0.0663
609,0.0655
610,0.0626
611,0.0609
612,0.0597
613,0.0580
614,0.0564
615,0.0549
616,0.0534
617,0.0517
618,0.0515
619,0.0513
620,0.0509
621,0.0518
622,0.0516
623,0.0526
624,0.0540
625,0.0539
626,0.0558
627,0.0583
628,0.0600
629,0.0610
630,0.0628
631,0.0651
632,0.0655
633,0.0672
634,0.0681
635,0.0680
636,0.0697
637,0.0706
638,0.0715
639,0.0720
640,0.0724
641,0.0739
642,0.0711
643,0.0695
644,0.0702
645,0.0681
646,0.0667
647,0.0653
648,0.0636
649,0.0600
650,0.0589
651,0.0569
652,0.0552
653,0.0543
654,0.0521
655,0.0505
656,0.0495
657,0.0484
658,0.0474
659,0.0472
660,0.0463
661,0.0463
662,0.0466
663,0.0474
664,0.0478
665,0.0488
666,0.0508
667,0.0515
668,0.0525
669,0.0545
670,0.0558
671,0.0567
672,0.0575
673,0.0592
674,0.0594
675,0.0623
676,0.0637
677,0.0627
678,0.0632
679,0.0634
680,0.0651
681,0.0644
682,0.0652
683,0.0649
684,0.0651
685,0.0643
686,0.0642
687,0.0622
688,0.0630
689,0.0631
690,0.0626
691,0.0610
692,0.0583
693,0.0575
694,0.0568
695,0.0541
696,0.0542
697,0.0525
698,0.0530
699,0.0513
700,0.0504
701,0.0497
702,0.0492
703,0.0485
704,0.0478
705,0.0486
706,0.0484
707,0.0482
708,0.0493
709,0.0486
710,0.0487
711,0.0500
712,0.0494
713,0.0507
714,0.0516
715,0.0524
716,0.0537
717,0.0544
718,0.0548
719,0.0557
720,0.0559
721,0.0554
722,0.0555
723,0.0572
724,0.0563
725,0.0569
726,0.0568
727,0.0572
728,0.0568
729,0.0576
730,0.0572
731,0.0574
732,0.0572
733,0.0554
734,0.0567
735,0.0565
736,0.0551
737,0.0548
738,0.0550
739,0.0537
740,0.0520
741,0.0527
742,0.0529
743,0.0496
744,0.0498
745,0.0487
746,0.0475
747,0.0461
748,0.0476
749,0.0464
750,0.0460
751,0.0465
752,0.0454
753,0.0460
754,0.0468
755,0.0472
756,0.0465
757,0.0471
758,0.0457
759,0.0470
760,0.0459
761,0.0467
762,0.0470
763,0.0486
764,0.0486
765,0.0495
766,0.0472
767,0.0492
768,0.0497
769,0.0495
770,0.0495
771,0.0515
772,0.0504
773,0.0500
774,0.0519
775,0.0523
776,0.0524
777,0.0518
778,0.0539
779,0.0541
780,0.0523
781,0.0518
782,0.0515
783,0.0528
784,0.0519
785,0.0526
786,0.0517
787,0.0538
788,0.0530
789,0.0517
790,0.0510
791,0.0504
792,0.0521
793,0.0492
794,0.0495
795,0.0487
796,0.0488
797,0.0493
798,0.0494
799,0.0485
800,0.0488
801,0.0485
802,0.0490
803,0.0483
804,0.0495
805,0.0484
806,0.0480
807,0.0497
808,0.0510
809,0.0517
810,0.0513
811,0.0514
812,0.0504
813,0.0509
814,0.0519
815,0.0502
816,0.0514
817,0.0527
818,0.0530
819,0.0547
820,0.0557
821,0.0556
822,0.0556
823,0.0560
824,0.0559
825,0.0571
826,0.0558
827,0.0550
828,0.0565
829,0.0564
830,0.0545
831,0.0558
832,0.0543
833,0.0544
834,0.0543
835,0.0533
836,0.0539
837,0.0538
838,0.0530
839,0.0520
840,0.0512
841,0.0485
842,0.0500
843,0.0481
844,0.0485
845,0.0496
846,0.0483
847,0.0473
848,0.0468
849,0.0478
850,0.0478
851,0.0465
852,0.0466
853,0.0462
854,0.0464
855,0.0451
856,0.0430
857,0.0442
858,0.0426
859,0.0434
860,0.0432
861,0.0426
862,0.0431
863,0.0410
864,0.0406
865,0.0407
866,0.0407
867,0.0416
868,0.0404
869,0.0392
870,0.0391
871,0.0400
872,0.0398
873,0.0388
874,0.0394
875,0.0384
876,0.0386
877,0.0397
878,0.0393
879,0.0431
880,0.0413
881,0.0403
882,0.0421
883,0.0417
884,0.0431
885,0.0454
886,0.0469
887,0.0492
888,0.0471
889,0.0481
890,0.0511
891,0.0510
892,0.0524
893,0.0562
894,0.0564
895,0.0595
896,0.0576
897,0.0580
898,0.0587
899,0.0601
900,0.0645
901,0.0641
902,0.0619
903,0.0631
904,0.0690
905,0.0655
906,0.0685
907,0.0707
908,0.0685
909,0.0680
910,0.0669
911,0.0633
912,0.0663
913,0.0648
914,0.0617
915,0.0603
916,0.0615
917,0.0567
918,0.0558
919,0.0551
920,0.0564
921,0.0499
922,0.0488
923,0.0458
924,0.0453
925,0.0449
926,0.0419
927,0.0424
928,0.0384
929,0.0400
930,0.0359
931,0.0328
932,0.0338
933,0.0294
934,0.0275
935,0.0267
936,0.0239
937,0.0195
938,0.0177
939,0.0163
940,0.0130
941,0.0137
942,0.0132
943,0.0109
944,0.0115
945,0.0111
946,0.0106
947,0.0119
