382,NaN
383,0.3687
384,0.1394
385,1.0000
386,0.0000
387,0.3867
388,0.2926
389,0.1371
390,0.2664
391,0.0968
392,0.2313
393,0.3004
394,0.2871
395,0.0943
396,0.3237
397,0.1507
398,0.1652
399,0.1070
400,0.1566
401,0.3609
402,0.0000
403,0.2042
404,0.2942
405,0.1912
406,0.1114
407,0.1716
408,0.3193
409,0.2189
410,0.2039
411,0.2002
412,0.2006
413,0.1805
414,0.1966
415,0.1723
416,0.1989
417,0.2323
418,0.1576
419,0.1488
420,0.1378
421,0.0893
422,0.1047
423,0.0987
424,0.1329
425,0.1354
426,0.2108
427,0.1906
428,0.1700
429,0.1583
430,0.2013
431,0.1801
432,0.1888
433,0.1486
434,0.1563
435,0.1765
436,0.1590
437,0.1644
438,0.1407
439,0.1448
440,0.1915
441,0.1773
442,0.1665
443,0.1894
444,0.1542
445,0.1716
446,0.1604
447,0.1771
448,0.1789
449,0.1858
450,0.1895
451,0.1620
452,0.1548
453,0.1838
454,0.1772
455,0.1672
456,0.1566
457,0.1520
458,0.1668
459,0.1312
460,0.1432
461,0.1587
462,0.1434
463,0.1499
464,0.1445
465,0.1474
466,0.1458
467,0.1608
468,0.1719
469,0.1838
470,0.1684
471,0.1724
472,0.1838
473,0.1756
474,0.1767
475,0.2055
476,0.2013
477,0.2056
478,0.1999
479,0.2134
480,0.2123
481,0.1945
482,0.2023
483,0.2107
484,0.1977
485,0.2109
486,0.2134
487,0.2159
488,0.2139
489,0.2185
490,0.2150
491,0.2181
492,0.2177
493,0.2313
494,0.2279
495,0.2340
496,0.2228
497,0.2141
498,0.2336
499,0.2103
500,0.2229
501,0.2089
502,0.2130
503,0.1974
504,0.1906
505,0.1835
506,0.1810
507,0.1830
508,0.1750
509,0.1674
510,0.1617
511,0.1454
512,0.1431
513,0.1455
514,0.1427
515,0.1380
516,0.1282
517,0.1264
518,0.1190
519,0.1221
520,0.1209
521,0.1146
522,0.1168
523,0.1141
524,0.1124
525,0.1116
526,0.1120
527,0.1120
528,0.1104
529,0.1117
530,0.1090
531,0.1080
532,0.1094
533,0.1078
534,0.1083
535,0.1043
536,0.1064
537,0.1053
538,0.1028
539,0.1037
540,0.1020
541,0.1019
542,0.0983
543,0.0997
544,0.0987
545,0.0980
546,0.0987
547,0.0971
548,0.0952
549,0.0962
550,0.0961
551,0.0960
552,0.0957
553,0.0949
554,0.0968
555,0.0967
556,0.0979
557,0.0952
558,0.0959
559,0.0960
560,0.0970
561,0.0966
562,0.0987
563,0.0971
564,0.0975
565,0.0984
566,0.0970
567,0.0961
568,0.0979
569,0.0989
570,0.0975
571,0.0963
572,0.0986
573,0.0963
574,0.0966
575,0.0968
576,0.0966
577,0.0972
578,0.0938
579,0.0954
580,0.0943
581,0.0950
582,0.0937
583,0.0916
584,0.0934
585,0.0916
586,0.0927
587,0.0904
588,0.0917
589,0.0900
590,0.0906
591,0.0897
592,0.0885
593,0.0900
594,0.0903
595,0.0891
596,0.0874
597,0.0877
598,0.0876
599,0.0878
600,0.0875
601,0.0859
602,0.0855
603,0.0869
604,0.0853
605,0.0841
606,0.0844
607,0.0866
608,0.0846
609,0.0832
610,0.0850
611,0.0847
612,0.0851
613,0.0833
614,0.0859
615,0.0850
616,0.0850
617,0.0838
618,0.0852
619,0.0868
620,0.0856
621,0.0868
622,0.0869
623,0.0883
624,0.0876
625,0.0888
626,0.0874
627,0.0885
628,0.0899
629,0.0900
630,0.0898
631,0.0910
632,0.0883
633,0.0895
634,0.0886
635,0.0865
636,0.0886
637,0.0878
638,0.0877
639,0.0878
640,0.0886
641,0.0868
642,0.0863
643,0.0853
644,0.0861
645,0.0843
646,0.0834
647,0.0844
648,0.0831
649,0.0814
650,0.0818
651,0.0800
652,0.0787
653,0.0792
654,0.0769
655,0.0768
656,0.0775
657,0.0751
658,0.0747
659,0.0745
660,0.0736
661,0.0734
662,0.0728
663,0.0751
664,0.0752
665,0.0748
666,0.0746
667,0.0760
668,0.0756
669,0.0768
670,0.0760
671,0.0776
672,0.0777
673,0.0773
674,0.0775
675,0.0793
676,0.0790
677,0.0796
678,0.0798
679,0.0799
680,0.0816
681,0.0827
682,0.0814
683,0.0826
684,0.0850
685,0.0836
686,0.0835
687,0.0833
688,0.0842
689,0.0845
690,0.0840
691,0.0855
692,0.0830
693,0.0827
694,0.0834
695,0.0813
696,0.0819
697,0.0822
698,0.0815
699,0.0810
700,0.0803
701,0.0794
702,0.0781
703,0.0778
704,0.0766
705,0.0750
706,0.0741
707,0.0735
708,0.0733
709,0.0731
710,0.0716
711,0.0715
712,0.0701
713,0.0698
714,0.0696
715,0.0705
716,0.0695
717,0.0688
718,0.0670
719,0.0677
720,0.0669
721,0.0655
722,0.0640
723,0.0648
724,0.0641
725,0.0654
726,0.0656
727,0.0663
728,0.0667
729,0.0677
730,0.0675
731,0.0684
732,0.0697
733,0.0694
734,0.0714
735,0.0726
736,0.0718
737,0.0729
738,0.0734
739,0.0732
740,0.0741
741,0.0749
742,0.0758
743,0.0749
744,0.0760
745,0.0765
746,0.0779
747,0.0757
748,0.0781
749,0.0768
750,0.0772
751,0.0777
752,0.0793
753,0.0792
754,0.0786
755,0.0791
756,0.0770
757,0.0796
758,0.0774
759,0.0776
760,0.0768
761,0.0747
762,0.0757
763,0.0740
764,0.0726
765,0.0715
766,0.0700
767,0.0678
768,0.0687
769,0.0671
770,0.0644
771,0.0648
772,0.0640
773,0.0622
774,0.0638
775,0.0625
776,0.0608
777,0.0604
778,0.0616
779,0.0602
780,0.0589
781,0.0595
782,0.0599
783,0.0592
784,0.0587
785,0.0563
786,0.0573
787,0.0580
788,0.0592
789,0.0571
790,0.0577
791,0.0575
792,0.0574
793,0.0586
794,0.0587
795,0.0607
796,0.0601
797,0.0624
798,0.0619
799,0.0626
800,0.0652
801,0.0666
802,0.0673
803,0.0701
804,0.0705
805,0.0716
806,0.0727
807,0.0755
808,0.0764
809,0.0781
810,0.0806
811,0.0811
812,0.0798
813,0.0808
814,0.0827
815,0.0825
816,0.0850
817,0.0846
818,0.0847
819,0.0854
820,0.0875
821,0.0865
822,0.0873
823,0.0864
824,0.0869
825,0.0868
826,0.0872
827,0.0851
828,0.0850
829,0.0841
830,0.0837
831,0.0827
832,0.0817
833,0.0786
834,0.0768
835,0.0786
836,0.0756
837,0.0740
838,0.0730
839,0.0709
840,0.0698
841,0.0657
842,0.0676
843,0.0648
844,0.0651
845,0.0625
846,0.0617
847,0.0596
848,0.0611
849,0.0602
850,0.0576
851,0.0591
852,0.0574
853,0.0559
854,0.0573
855,0.0559
856,0.0535
857,0.0535
858,0.0525
859,0.0523
860,0.0517
861,0.0525
862,0.0532
863,0.0521
864,0.0501
865,0.0498
866,0.0511
867,0.0510
868,0.0484
869,0.0483
870,0.0492
871,0.0505
872,0.0490
873,0.0480
874,0.0481
875,0.0463
876,0.0482
877,0.0499
878,0.0494
879,0.0493
880,0.0511
881,0.0519
882,0.0526
883,0.0555
884,0.0552
885,0.0594
886,0.0599
887,0.0634
888,0.0639
889,0.0659
890,0.0691
891,0.0697
892,0.0693
893,0.0736
894,0.0756
895,0.0763
896,0.0775
897,0.0776
898,0.0805
899,0.0798
900,0.0852
901,0.0865
902,0.0848
903,0.0885
904,0.0893
905,0.0908
906,0.0925
907,0.0956
908,0.0918
909,0.0911
910,0.0962
911,0.0912
912,0.0943
913,0.0892
914,0.0900
915,0.0890
916,0.0855
917,0.0840
918,0.0793
919,0.0790
920,0.0793
921,0.0742
922,0.0732
923,0.0681
924,0.0681
925,0.0654
926,0.0648
927,0.0641
928,0.0603
929,0.0610
930,0.0561
931,0.0529
932,0.0499
933,0.0473
934,0.0467
935,0.0416
936,0.0369
937,0.0332
938,0.0278
939,0.0252
940,0.0228
941,0.0204
942,0.0166
943,0.0162
944,0.0168
945,0.0154
946,0.0161
947,0.0235
