382,NaN
383,1.0000
384,1.0000
385,1.0000
386,0.4142
387,0.1765
388,0.2182
389,0.0000
390,0.1069
391,0.1609
392,0.3076
393,0.3056
394,0.2367
395,0.0853
396,0.2363
397,0.1656
398,0.0792
399,0.2141
400,0.2828
401,0.3744
402,0.0749
403,0.2996
404,0.2720
405,0.1883
406,0.2704
407,0.2114
408,0.2605
409,0.1575
410,0.1987
411,0.1829
412,0.1842
413,0.1623
414,0.0958
415,0.1742
416,0.0624
417,0.0625
418,0.0951
419,0.0846
420,0.0849
421,0.0651
422,0.0443
423,0.1477
424,0.1182
425,0.1387
426,0.1486
427,0.1394
428,0.1986
429,0.1367
430,0.1931
431,0.1925
432,0.1831
433,0.1937
434,0.2137
435,0.2190
436,0.2319
437,0.2095
438,0.1904
439,0.1803
440,0.2098
441,0.2162
442,0.1991
443,0.1870
444,0.1720
445,0.1685
446,0.1238
447,0.1433
448,0.1285
449,0.1448
450,0.1138
451,0.0810
452,0.0969
453,0.1166
454,0.1094
455,0.0942
456,0.1262
457,0.1036
458,0.1346
459,0.1142
460,0.1300
461,0.1540
462,0.1428
463,0.1626
464,0.1577
465,0.1612
466,0.1802
467,0.1733
468,0.1995
469,0.2121
470,0.2035
471,0.2092
472,0.2166
473,0.2029
474,0.2171
475,0.2307
476,0.2186
477,0.2215
478,0.2237
479,0.2296
480,0.2161
481,0.1865
482,0.2041
483,0.2055
484,0.1821
485,0.1767
486,0.1818
487,0.1774
488,0.1681
489,0.1618
490,0.1555
491,0.1518
492,0.1377
493,0.1487
494,0.1425
495,0.1503
496,0.1387
497,0.1341
498,0.1467
499,0.1444
500,0.1556
501,0.1524
502,0.1616
503,0.1612
504,0.1612
505,0.1678
506,0.1742
507,0.1787
508,0.1833
509,0.1858
510,0.1813
511,0.1766
512,0.1775
513,0.1748
514,0.1823
515,0.1725
516,0.1703
517,0.1610
518,0.1547
519,0.1544
520,0.1501
521,0.1367
522,0.1341
523,0.1300
524,0.1265
525,0.1189
526,0.1166
527,0.1102
528,0.1063
529,0.0992
530,0.0934
531,0.0891
532,0.0867
533,0.0798
534,0.0776
535,0.0713
536,0.0708
537,0.0657
538,0.0655
539,0.0622
540,0.0615
541,0.0618
542,0.0612
543,0.0600
544,0.0618
545,0.0606
546,0.0641
547,0.0661
548,0.0685
549,0.0678
550,0.0731
551,0.0747
552,0.0794
553,0.0817
554,0.0850
555,0.0882
556,0.0920
557,0.0972
558,0.0982
559,0.1017
560,0.1060
561,0.1071
562,0.1106
563,0.1127
564,0.1152
565,0.1156
566,0.1164
567,0.1185
568,0.1199
569,0.1194
570,0.1208
571,0.1199
572,0.1189
573,0.1176
574,0.1166
575,0.1114
576,0.1118
577,0.1075
578,0.1050
579,0.1044
580,0.0991
581,0.0962
582,0.0916
583,0.0880
584,0.0864
585,0.0813
586,0.0795
587,0.0760
588,0.0709
589,0.0695
590,0.0664
591,0.0633
592,0.0616
593,0.0600
594,0.0571
595,0.0546
596,0.0525
597,0.0519
598,0.0510
599,0.0516
600,0.0501
601,0.0482
602,0.0513
603,0.0499
604,0.0510
605,0.0504
606,0.0519
607,0.0550
608,0.0551
609,0.0583
610,0.0604
611,0.0619
612,0.0649
613,0.0663
614,0.0685
615,0.0709
616,0.0736
617,0.0760
618,0.0796
619,0.0823
620,0.0846
621,0.0888
622,0.0908
623,0.0935
624,0.0954
625,0.0976
626,0.0987
627,0.1003
628,0.1025
629,0.1056
630,0.1046
631,0.1058
632,0.1054
633,0.1054
634,0.1045
635,0.1035
636,0.1043
637,0.1042
638,0.1029
639,0.1036
640,0.1028
641,0.1014
642,0.0998
643,0.0965
644,0.0968
645,0.0944
646,0.0917
647,0.0889
648,0.0895
649,0.0848
650,0.0826
651,0.0804
652,0.0780
653,0.0758
654,0.0724
655,0.0698
656,0.0673
657,0.0651
658,0.0625
659,0.0590
660,0.0587
661,0.0557
662,0.0528
663,0.0527
664,0.0503
665,0.0481
666,0.0482
667,0.0468
668,0.0454
669,0.0436
670,0.0438
671,0.0435
672,0.0428
673,0.0412
674,0.0408
675,0.0420
676,0.0423
677,0.0414
678,0.0419
679,0.0413
680,0.0436
681,0.0442
682,0.0446
683,0.0477
684,0.0483
685,0.0495
686,0.0514
687,0.0519
688,0.0542
689,0.0565
690,0.0579
691,0.0600
692,0.0626
693,0.0632
694,0.0658
695,0.0678
696,0.0702
697,0.0736
698,0.0747
699,0.0758
700,0.0783
701,0.0809
702,0.0807
703,0.0830
704,0.0841
705,0.0850
706,0.0879
707,0.0878
708,0.0892
709,0.0907
710,0.0921
711,0.0933
712,0.0927
713,0.0938
714,0.0941
715,0.0939
716,0.0932
717,0.0944
718,0.0943
719,0.0921
720,0.0915
721,0.0894
722,0.0883
723,0.0880
724,0.0856
725,0.0853
726,0.0837
727,0.0837
728,0.0811
729,0.0801
730,0.0793
731,0.0777
732,0.0773
733,0.0747
734,0.0742
735,0.0736
736,0.0705
737,0.0693
738,0.0679
739,0.0663
740,0.0640
741,0.0616
742,0.0610
743,0.0591
744,0.0578
745,0.0564
746,0.0541
747,0.0523
748,0.0538
749,0.0498
750,0.0490
751,0.0478
752,0.0466
753,0.0448
754,0.0444
755,0.0430
756,0.0419
757,0.0412
758,0.0401
759,0.0402
760,0.0388
761,0.0378
762,0.0359
763,0.0354
764,0.0344
765,0.0358
766,0.0343
767,0.0346
768,0.0329
769,0.0336
770,0.0330
771,0.0343
772,0.0334
773,0.0336
774,0.0349
775,0.0348
776,0.0352
777,0.0364
778,0.0363
779,0.0378
780,0.0376
781,0.0389
782,0.0395
783,0.0408
784,0.0407
785,0.0422
786,0.0433
787,0.0463
788,0.0467
789,0.0478
790,0.0486
791,0.0495
792,0.0504
793,0.0519
794,0.0537
795,0.0546
796,0.0546
797,0.0588
798,0.0588
799,0.0623
800,0.0622
801,0.0644
802,0.0669
803,0.0689
804,0.0701
805,0.0720
806,0.0746
807,0.0764
808,0.0776
809,0.0796
810,0.0840
811,0.0832
812,0.0831
813,0.0843
814,0.0855
815,0.0872
816,0.0875
817,0.0879
818,0.0895
819,0.0895
820,0.0922
821,0.0943
822,0.0935
823,0.0914
824,0.0934
825,0.0940
826,0.0930
827,0.0914
828,0.0908
829,0.0897
830,0.0905
831,0.0877
832,0.0874
833,0.0843
834,0.0830
835,0.0850
836,0.0807
837,0.0827
838,0.0779
839,0.0781
840,0.0761
841,0.0748
842,0.0742
843,0.0709
844,0.0717
845,0.0682
846,0.0685
847,0.0657
848,0.0658
849,0.0635
850,0.0616
851,0.0615
852,0.0603
853,0.0600
854,0.0589
855,0.0572
856,0.0545
857,0.0556
858,0.0541
859,0.0515
860,0.0523
861,0.0515
862,0.0499
863,0.0486
864,0.0471
865,0.0455
866,0.0453
867,0.0438
868,0.0417
869,0.0398
870,0.0389
871,0.0386
872,0.0375
873,0.0359
874,0.0359
875,0.0326
876,0.0336
877,0.0322
878,0.0320
879,0.0325
880,0.0320
881,0.0304
882,0.0297
883,0.0309
884,0.0294
885,0.0290
886,0.0306
887,0.0303
888,0.0269
889,0.0296
890,0.0311
891,0.0294
892,0.0299
893,0.0314
894,0.0323
895,0.0308
896,0.0306
897,0.0325
898,0.0323
899,0.0326
900,0.0347
901,0.0333
902,0.0320
903,0.0341
904,0.0366
905,0.0385
906,0.0377
907,0.0412
908,0.0411
909,0.0418
910,0.0429
911,0.0383
912,0.0426
913,0.0392
914,0.0430
915,0.0443
916,0.0441
917,0.0416
918,0.0407
919,0.0415
920,0.0439
921,0.0392
922,0.0416
923,0.0408
924,0.0422
925,0.0428
926,0.0406
927,0.0418
928,0.0407
929,0.0424
930,0.0388
931,0.0399
932,0.0403
933,0.0359
934,0.0364
935,0.0326
936,0.0316
937,0.0274
938,0.0240
939,0.0228
940,0.0198
941,0.0204
942,0.0180
943,0.0160
944,0.0167
945,0.0197
946,0.0166
947,0.0235
