382,NaN
383,1.0000
384,0.5053
385,0.2758
386,0.0000
387,0.2111
388,0.1412
389,0.1658
390,0.0842
391,0.0144
392,0.2959
393,0.1855
394,0.0442
395,0.1665
396,0.5032
397,0.0882
398,0.1154
399,0.1721
400,0.1872
401,0.3647
402,0.1092
403,0.2652
404,0.1789
405,0.2185
406,0.3060
407,0.1679
408,0.2617
409,0.1321
410,0.2164
411,0.2186
412,0.2378
413,0.2166
414,0.1235
415,0.1163
416,0.0848
417,0.1710
418,0.1000
419,0.1756
420,0.1452
421,0.1214
422,0.1190
423,0.1214
424,0.1191
425,0.1167
426,0.1823
427,0.1084
428,0.1569
429,0.1412
430,0.1850
431,0.1883
432,0.1571
433,0.1785
434,0.1889
435,0.1978
436,0.1942
437,0.1969
438,0.1956
439,0.1994
440,0.1921
441,0.1712
442,0.1781
443,0.1638
444,0.1680
445,0.1513
446,0.1635
447,0.1469
448,0.1517
449,0.1437
450,0.1338
451,0.1278
452,0.0974
453,0.1219
454,0.1336
455,0.1275
456,0.1242
457,0.1163
458,0.1362
459,0.1240
460,0.1368
461,0.1522
462,0.1485
463,0.1632
464,0.1569
465,0.1450
466,0.1625
467,0.1752
468,0.1922
469,0.1985
470,0.1908
471,0.1910
472,0.2060
473,0.2033
474,0.1972
475,0.2088
476,0.2153
477,0.2113
478,0.2067
479,0.2230
480,0.2223
481,0.1921
482,0.1987
483,0.2032
484,0.1873
485,0.2005
486,0.1870
487,0.1876
488,0.1776
489,0.1707
490,0.1730
491,0.1644
492,0.1595
493,0.1626
494,0.1598
495,0.1560
496,0.1607
497,0.1542
498,0.1670
499,0.1517
500,0.1668
501,0.1656
502,0.1734
503,0.1626
504,0.1677
505,0.1699
506,0.1752
507,0.1747
508,0.1786
509,0.1775
510,0.1765
511,0.1707
512,0.1696
513,0.1692
514,0.1689
515,0.1678
516,0.1613
517,0.1532
518,0.1470
519,0.1442
520,0.1452
521,0.1323
522,0.1304
523,0.1250
524,0.1220
525,0.1174
526,0.1125
527,0.1076
528,0.1049
529,0.0983
530,0.0955
531,0.0912
532,0.0873
533,0.0822
534,0.0828
535,0.0778
536,0.0755
537,0.0724
538,0.0723
539,0.0703
540,0.0676
541,0.0677
542,0.0671
543,0.0657
544,0.0660
545,0.0676
546,0.0697
547,0.0720
548,0.0715
549,0.0735
550,0.0742
551,0.0762
552,0.0817
553,0.0828
554,0.0857
555,0.0882
556,0.0912
557,0.0940
558,0.0984
559,0.0997
560,0.1030
561,0.1056
562,0.1080
563,0.1101
564,0.1116
565,0.1114
566,0.1112
567,0.1150
568,0.1154
569,0.1159
570,0.1161
571,0.1164
572,0.1166
573,0.1132
574,0.1120
575,0.1091
576,0.1077
577,0.1062
578,0.1009
579,0.1019
580,0.0980
581,0.0952
582,0.0919
583,0.0870
584,0.0860
585,0.0832
586,0.0795
587,0.0777
588,0.0750
589,0.0705
590,0.0696
591,0.0664
592,0.0644
593,0.0621
594,0.0613
595,0.0579
596,0.0563
597,0.0561
598,0.0541
599,0.0549
600,0.0541
601,0.0540
602,0.0538
603,0.0529
604,0.0546
605,0.0566
606,0.0557
607,0.0572
608,0.0580
609,0.0601
610,0.0621
611,0.0647
612,0.0659
613,0.0689
614,0.0700
615,0.0732
616,0.0744
617,0.0774
618,0.0802
619,0.0827
620,0.0841
621,0.0859
622,0.0896
623,0.0919
624,0.0942
625,0.0955
626,0.0961
627,0.0968
628,0.1007
629,0.1035
630,0.1028
631,0.1040
632,0.1024
633,0.1022
634,0.1022
635,0.1017
636,0.1031
637,0.1015
638,0.1010
639,0.1019
640,0.1010
641,0.1005
642,0.0971
643,0.0965
644,0.0952
645,0.0916
646,0.0907
647,0.0883
648,0.0867
649,0.0839
650,0.0813
651,0.0795
652,0.0773
653,0.0754
654,0.0732
655,0.0707
656,0.0684
657,0.0649
658,0.0639
659,0.0613
660,0.0587
661,0.0567
662,0.0556
663,0.0539
664,0.0520
665,0.0510
666,0.0494
667,0.0487
668,0.0476
669,0.0462
670,0.0454
671,0.0451
672,0.0446
673,0.0441
674,0.0431
675,0.0441
676,0.0447
677,0.0437
678,0.0435
679,0.0438
680,0.0450
681,0.0465
682,0.0478
683,0.0490
684,0.0501
685,0.0508
686,0.0524
687,0.0531
688,0.0552
689,0.0573
690,0.0596
691,0.0609
692,0.0627
693,0.0631
694,0.0663
695,0.0692
696,0.0705
697,0.0731
698,0.0748
699,0.0763
700,0.0777
701,0.0791
702,0.0822
703,0.0825
704,0.0832
705,0.0847
706,0.0868
707,0.0869
708,0.0887
709,0.0902
710,0.0906
711,0.0935
712,0.0923
713,0.0927
714,0.0918
715,0.0927
716,0.0941
717,0.0923
718,0.0913
719,0.0918
720,0.0896
721,0.0876
722,0.0876
723,0.0851
724,0.0851
725,0.0839
726,0.0834
727,0.0829
728,0.0809
729,0.0799
730,0.0784
731,0.0777
732,0.0766
733,0.0741
734,0.0739
735,0.0736
736,0.0698
737,0.0697
738,0.0676
739,0.0649
740,0.0636
741,0.0645
742,0.0619
743,0.0593
744,0.0585
745,0.0576
746,0.0541
747,0.0532
748,0.0535
749,0.0511
750,0.0490
751,0.0489
752,0.0478
753,0.0459
754,0.0444
755,0.0440
756,0.0424
757,0.0429
758,0.0418
759,0.0410
760,0.0397
761,0.0394
762,0.0372
763,0.0374
764,0.0372
765,0.0366
766,0.0354
767,0.0353
768,0.0357
769,0.0356
770,0.0348
771,0.0352
772,0.0343
773,0.0353
774,0.0357
775,0.0367
776,0.0372
777,0.0369
778,0.0384
779,0.0385
780,0.0387
781,0.0403
782,0.0410
783,0.0416
784,0.0426
785,0.0439
786,0.0455
787,0.0462
788,0.0468
789,0.0477
790,0.0490
791,0.0496
792,0.0506
793,0.0525
794,0.0531
795,0.0554
796,0.0558
797,0.0602
798,0.0601
799,0.0605
800,0.0631
801,0.0645
802,0.0658
803,0.0693
804,0.0700
805,0.0725
806,0.0736
807,0.0747
808,0.0779
809,0.0799
810,0.0838
811,0.0828
812,0.0840
813,0.0838
814,0.0855
815,0.0865
816,0.0876
817,0.0900
818,0.0878
819,0.0899
820,0.0916
821,0.0918
822,0.0930
823,0.0932
824,0.0932
825,0.0907
826,0.0935
827,0.0896
828,0.0906
829,0.0895
830,0.0889
831,0.0888
832,0.0893
833,0.0846
834,0.0819
835,0.0844
836,0.0825
837,0.0827
838,0.0787
839,0.0756
840,0.0755
841,0.0728
842,0.0742
843,0.0702
844,0.0697
845,0.0692
846,0.0680
847,0.0677
848,0.0654
849,0.0629
850,0.0629
851,0.0627
852,0.0610
853,0.0595
854,0.0596
855,0.0581
856,0.0555
857,0.0560
858,0.0532
859,0.0515
860,0.0520
861,0.0506
862,0.0493
863,0.0488
864,0.0455
865,0.0441
866,0.0441
867,0.0454
868,0.0416
869,0.0406
870,0.0398
871,0.0377
872,0.0376
873,0.0360
874,0.0344
875,0.0335
876,0.0339
877,0.0326
878,0.0307
879,0.0321
880,0.0319
881,0.0317
882,0.0316
883,0.0292
884,0.0289
885,0.0300
886,0.0306
887,0.0311
888,0.0296
889,0.0296
890,0.0311
891,0.0302
892,0.0296
893,0.0325
894,0.0311
895,0.0319
896,0.0319
897,0.0326
898,0.0329
899,0.0333
900,0.0344
901,0.0355
902,0.0363
903,0.0370
904,0.0373
905,0.0376
906,0.0396
907,0.0420
908,0.0427
909,0.0429
910,0.0423
911,0.0398
912,0.0416
913,0.0416
914,0.0420
915,0.0452
916,0.0452
917,0.0448
918,0.0421
919,0.0413
920,0.0429
921,0.0396
922,0.0423
923,0.0425
924,0.0429
925,0.0402
926,0.0410
927,0.0427
928,0.0419
929,0.0407
930,0.0401
931,0.0393
932,0.0392
933,0.0361
934,0.0356
935,0.0341
936,0.0298
937,0.0270
938,0.0266
939,0.0204
940,0.0199
941,0.0172
942,0.0160
943,0.0165
944,0.0168
945,0.0180
946,0.0164
947,0.0221
