382,NaN
383,0.7813
384,1.0000
385,1.0000
386,0.8936
387,0.3271
388,0.3062
389,0.2305
390,0.3505
391,0.2189
392,0.4572
393,0.4141
394,0.0874
395,0.0200
396,0.1629
397,0.0000
398,0.0086
399,0.2238
400,0.1184
401,0.2925
402,0.1048
403,0.1979
404,0.0577
405,0.1792
406,0.1820
407,0.2308
408,0.2711
409,0.2157
410,0.2524
411,0.1765
412,0.1996
413,0.1984
414,0.2081
415,0.2139
416,0.1624
417,0.1934
418,0.1912
419,0.1806
420,0.1713
421,0.1389
422,0.1732
423,0.1939
424,0.0913
425,0.1257
426,0.1057
427,0.1074
428,0.1283
429,0.0908
430,0.1235
431,0.1302
432,0.1307
433,0.1219
434,0.1179
435,0.1190
436,0.1838
437,0.1549
438,0.1793
439,0.1372
440,0.1835
441,0.1882
442,0.1704
443,0.2022
444,0.1841
445,0.1775
446,0.1968
447,0.1912
448,0.1843
449,0.1829
450,0.1964
451,0.1589
452,0.1767
453,0.1860
454,0.1880
455,0.1680
456,0.1808
457,0.1509
458,0.1669
459,0.1370
460,0.1272
461,0.1320
462,0.1090
463,0.1350
464,0.1224
465,0.0967
466,0.1042
467,0.1001
468,0.1239
469,0.1256
470,0.1180
471,0.1133
472,0.1372
473,0.1252
474,0.1457
475,0.1552
476,0.1551
477,0.1724
478,0.1714
479,0.1970
480,0.1960
481,0.1923
482,0.2223
483,0.2196
484,0.2312
485,0.2471
486,0.2491
487,0.2593
488,0.2576
489,0.2554
490,0.2579
491,0.2508
492,0.2485
493,0.2514
494,0.2460
495,0.2392
496,0.2210
497,0.2155
498,0.2179
499,0.1905
500,0.1972
501,0.1846
502,0.1792
503,0.1574
504,0.1499
505,0.1379
506,0.1406
507,0.1316
508,0.1232
509,0.1180
510,0.1096
511,0.1025
512,0.1008
513,0.0993
514,0.0982
515,0.0967
516,0.0949
517,0.0951
518,0.0916
519,0.0950
520,0.0949
521,0.0952
522,0.0976
523,0.0977
524,0.1015
525,0.1023
526,0.1038
527,0.1102
528,0.1093
529,0.1109
530,0.1093
531,0.1146
532,0.1152
533,0.1146
534,0.1192
535,0.1180
536,0.1188
537,0.1160
538,0.1188
539,0.1160
540,0.1146
541,0.1153
542,0.1126
543,0.1101
544,0.1100
545,0.1081
546,0.1070
547,0.1022
548,0.1004
549,0.0975
550,0.0936
551,0.0904
552,0.0889
553,0.0853
554,0.0836
555,0.0808
556,0.0770
557,0.0763
558,0.0722
559,0.0694
560,0.0676
561,0.0655
562,0.0641
563,0.0620
564,0.0598
565,0.0592
566,0.0580
567,0.0576
568,0.0580
569,0.0587
570,0.0595
571,0.0602
572,0.0601
573,0.0624
574,0.0643
575,0.0639
576,0.0679
577,0.0695
578,0.0708
579,0.0723
580,0.0753
581,0.0767
582,0.0791
583,0.0819
584,0.0847
585,0.0860
586,0.0886
587,0.0901
588,0.0928
589,0.0948
590,0.0973
591,0.0992
592,0.0989
593,0.1009
594,0.1022
595,0.1029
596,0.1048
597,0.1040
598,0.1045
599,0.1050
600,0.1038
601,0.1053
602,0.1033
603,0.1034
604,0.1024
605,0.1019
606,0.1018
607,0.0989
608,0.0984
609,0.0961
610,0.0940
611,0.0943
612,0.0909
613,0.0887
614,0.0873
615,0.0865
616,0.0843
617,0.0811
618,0.0791
619,0.0755
620,0.0731
621,0.0706
622,0.0694
623,0.0671
624,0.0649
625,0.0616
626,0.0589
627,0.0581
628,0.0573
629,0.0543
630,0.0532
631,0.0513
632,0.0491
633,0.0483
634,0.0457
635,0.0447
636,0.0451
637,0.0452
638,0.0445
639,0.0441
640,0.0447
641,0.0450
642,0.0457
643,0.0454
644,0.0464
645,0.0463
646,0.0481
647,0.0501
648,0.0510
649,0.0513
650,0.0536
651,0.0556
652,0.0567
653,0.0589
654,0.0595
655,0.0608
656,0.0628
657,0.0654
658,0.0672
659,0.0677
660,0.0698
661,0.0708
662,0.0733
663,0.0764
664,0.0771
665,0.0799
666,0.0800
667,0.0830
668,0.0838
669,0.0857
670,0.0865
671,0.0884
672,0.0878
673,0.0905
674,0.0903
675,0.0914
676,0.0926
677,0.0928
678,0.0938
679,0.0916
680,0.0934
681,0.0939
682,0.0937
683,0.0941
684,0.0935
685,0.0929
686,0.0924
687,0.0904
688,0.0914
689,0.0924
690,0.0906
691,0.0901
692,0.0880
693,0.0870
694,0.0845
695,0.0852
696,0.0840
697,0.0825
698,0.0814
699,0.0796
700,0.0775
701,0.0765
702,0.0743
703,0.0727
704,0.0699
705,0.0677
706,0.0663
707,0.0647
708,0.0622
709,0.0606
710,0.0592
711,0.0577
712,0.0554
713,0.0542
714,0.0523
715,0.0510
716,0.0494
717,0.0474
718,0.0442
719,0.0445
720,0.0421
721,0.0402
722,0.0392
723,0.0383
724,0.0364
725,0.0365
726,0.0372
727,0.0358
728,0.0349
729,0.0342
730,0.0336
731,0.0337
732,0.0347
733,0.0334
734,0.0343
735,0.0342
736,0.0353
737,0.0353
738,0.0353
739,0.0363
740,0.0362
741,0.0377
742,0.0384
743,0.0384
744,0.0396
745,0.0415
746,0.0413
747,0.0438
748,0.0449
749,0.0444
750,0.0470
751,0.0475
752,0.0499
753,0.0507
754,0.0525
755,0.0535
756,0.0550
757,0.0568
758,0.0577
759,0.0600
760,0.0612
761,0.0602
762,0.0615
763,0.0657
764,0.0656
765,0.0673
766,0.0671
767,0.0667
768,0.0684
769,0.0699
770,0.0703
771,0.0723
772,0.0725
773,0.0735
774,0.0749
775,0.0750
776,0.0756
777,0.0754
778,0.0766
779,0.0776
780,0.0765
781,0.0781
782,0.0783
783,0.0782
784,0.0773
785,0.0792
786,0.0785
787,0.0779
788,0.0801
789,0.0794
790,0.0766
791,0.0755
792,0.0768
793,0.0777
794,0.0757
795,0.0754
796,0.0750
797,0.0752
798,0.0755
799,0.0759
800,0.0764
801,0.0752
802,0.0737
803,0.0742
804,0.0750
805,0.0756
806,0.0733
807,0.0739
808,0.0737
809,0.0736
810,0.0733
811,0.0742
812,0.0708
813,0.0708
814,0.0696
815,0.0677
816,0.0676
817,0.0665
818,0.0663
819,0.0664
820,0.0659
821,0.0616
822,0.0618
823,0.0603
824,0.0587
825,0.0590
826,0.0573
827,0.0536
828,0.0529
829,0.0514
830,0.0504
831,0.0505
832,0.0468
833,0.0461
834,0.0455
835,0.0447
836,0.0428
837,0.0416
838,0.0398
839,0.0390
840,0.0382
841,0.0373
842,0.0367
843,0.0340
844,0.0343
845,0.0350
846,0.0340
847,0.0326
848,0.0331
849,0.0325
850,0.0319
851,0.0316
852,0.0320
853,0.0306
854,0.0318
855,0.0315
856,0.0321
857,0.0314
858,0.0327
859,0.0301
860,0.0307
861,0.0320
862,0.0314
863,0.0318
864,0.0317
865,0.0331
866,0.0343
867,0.0337
868,0.0346
869,0.0353
870,0.0333
871,0.0327
872,0.0348
873,0.0347
874,0.0344
875,0.0355
876,0.0366
877,0.0363
878,0.0386
879,0.0381
880,0.0390
881,0.0388
882,0.0416
883,0.0423
884,0.0418
885,0.0448
886,0.0453
887,0.0471
888,0.0473
889,0.0507
890,0.0519
891,0.0527
892,0.0548
893,0.0567
894,0.0585
895,0.0605
896,0.0615
897,0.0611
898,0.0631
899,0.0646
900,0.0657
901,0.0670
902,0.0677
903,0.0702
904,0.0739
905,0.0724
906,0.0775
907,0.0793
908,0.0811
909,0.0773
910,0.0778
911,0.0744
912,0.0775
913,0.0752
914,0.0724
915,0.0746
916,0.0757
917,0.0712
918,0.0696
919,0.0695
920,0.0727
921,0.0651
922,0.0639
923,0.0621
924,0.0652
925,0.0636
926,0.0594
927,0.0588
928,0.0585
929,0.0561
930,0.0543
931,0.0507
932,0.0480
933,0.0451
934,0.0450
935,0.0412
936,0.0352
937,0.0346
938,0.0292
939,0.0235
940,0.0223
941,0.0216
942,0.0189
943,0.0185
944,0.0186
945,0.0167
946,0.0160
947,0.0202
