382,NaN
383,1.0000
384,1.0000
385,1.0000
386,0.2908
387,0.3608
388,0.3149
389,0.0474
390,0.1645
391,0.3163
392,0.2974
393,0.2888
394,0.2083
395,0.0000
396,0.3017
397,0.0000
398,0.1258
399,0.1190
400,0.2088
401,0.3061
402,0.0000
403,0.1409
404,0.1406
405,0.1068
406,0.2021
407,0.1522
408,0.2108
409,0.1443
410,0.1704
411,0.1417
412,0.1918
413,0.1728
414,0.1564
415,0.1935
416,0.1847
417,0.1982
418,0.1746
419,0.1916
420,0.1573
421,0.1467
422,0.1381
423,0.1302
424,0.1070
425,0.1429
426,0.1868
427,0.1414
428,0.1472
429,0.1306
430,0.1680
431,0.1674
432,0.1347
433,0.1182
434,0.1274
435,0.1121
436,0.1213
437,0.1495
438,0.1369
439,0.1137
440,0.1427
441,0.1591
442,0.1397
443,0.1533
444,0.1214
445,0.1524
446,0.1217
447,0.1468
448,0.1420
449,0.1507
450,0.1468
451,0.1274
452,0.1139
453,0.1560
454,0.1435
455,0.1820
456,0.1636
457,0.1476
458,0.1563
459,0.1448
460,0.1573
461,0.1468
462,0.1568
463,0.1734
464,0.1545
465,0.1360
466,0.1634
467,0.1457
468,0.1616
469,0.1570
470,0.1438
471,0.1626
472,0.1598
473,0.1699
474,0.1602
475,0.1611
476,0.1611
477,0.1741
478,0.1697
479,0.1795
480,0.1723
481,0.1671
482,0.1728
483,0.1823
484,0.1782
485,0.1906
486,0.1875
487,0.1932
488,0.1913
489,0.1915
490,0.1955
491,0.1856
492,0.1944
493,0.1990
494,0.1986
495,0.2043
496,0.1973
497,0.1856
498,0.1946
499,0.1826
500,0.1942
501,0.1870
502,0.1894
503,0.1732
504,0.1705
505,0.1721
506,0.1661
507,0.1649
508,0.1636
509,0.1580
510,0.1495
511,0.1429
512,0.1376
513,0.1355
514,0.1356
515,0.1295
516,0.1255
517,0.1228
518,0.1156
519,0.1167
520,0.1135
521,0.1074
522,0.1064
523,0.1044
524,0.1026
525,0.0984
526,0.1005
527,0.0985
528,0.0962
529,0.0964
530,0.0931
531,0.0902
532,0.0889
533,0.0906
534,0.0912
535,0.0899
536,0.0880
537,0.0871
538,0.0861
539,0.0883
540,0.0864
541,0.0850
542,0.0869
543,0.0874
544,0.0858
545,0.0846
546,0.0867
547,0.0845
548,0.0851
549,0.0845
550,0.0848
551,0.0845
552,0.0855
553,0.0842
554,0.0872
555,0.0839
556,0.0858
557,0.0874
558,0.0887
559,0.0857
560,0.0859
561,0.0873
562,0.0881
563,0.0859
564,0.0868
565,0.0861
566,0.0827
567,0.0845
568,0.0873
569,0.0868
570,0.0870
571,0.0854
572,0.0875
573,0.0850
574,0.0855
575,0.0839
576,0.0836
577,0.0826
578,0.0832
579,0.0842
580,0.0833
581,0.0814
582,0.0788
583,0.0795
584,0.0809
585,0.0787
586,0.0784
587,0.0767
588,0.0765
589,0.0775
590,0.0765
591,0.0745
592,0.0747
593,0.0732
594,0.0736
595,0.0739
596,0.0742
597,0.0731
598,0.0720
599,0.0729
600,0.0731
601,0.0724
602,0.0737
603,0.0719
604,0.0719
605,0.0733
606,0.0724
607,0.0721
608,0.0728
609,0.0737
610,0.0731
611,0.0742
612,0.0739
613,0.0745
614,0.0741
615,0.0755
616,0.0734
617,0.0728
618,0.0741
619,0.0749
620,0.0757
621,0.0752
622,0.0769
623,0.0777
624,0.0769
625,0.0772
626,0.0762
627,0.0786
628,0.0781
629,0.0774
630,0.0775
631,0.0773
632,0.0773
633,0.0765
634,0.0764
635,0.0758
636,0.0766
637,0.0776
638,0.0763
639,0.0751
640,0.0775
641,0.0771
642,0.0763
643,0.0747
644,0.0755
645,0.0749
646,0.0749
647,0.0739
648,0.0747
649,0.0719
650,0.0721
651,0.0714
652,0.0711
653,0.0705
654,0.0696
655,0.0688
656,0.0689
657,0.0679
658,0.0673
659,0.0664
660,0.0671
661,0.0659
662,0.0662
663,0.0651
664,0.0642
665,0.0656
666,0.0630
667,0.0646
668,0.0636
669,0.0630
670,0.0633
671,0.0634
672,0.0615
673,0.0611
674,0.0605
675,0.0611
676,0.0603
677,0.0607
678,0.0593
679,0.0594
680,0.0583
681,0.0591
682,0.0590
683,0.0593
684,0.0591
685,0.0578
686,0.0580
687,0.0572
688,0.0592
689,0.0601
690,0.0588
691,0.0594
692,0.0604
693,0.0595
694,0.0593
695,0.0583
696,0.0606
697,0.0604
698,0.0604
699,0.0606
700,0.0607
701,0.0610
702,0.0616
703,0.0605
704,0.0606
705,0.0611
706,0.0616
707,0.0622
708,0.0626
709,0.0625
710,0.0630
711,0.0636
712,0.0634
713,0.0636
714,0.0628
715,0.0639
716,0.0637
717,0.0636
718,0.0630
719,0.0649
720,0.0632
721,0.0630
722,0.0622
723,0.0623
724,0.0618
725,0.0627
726,0.0638
727,0.0631
728,0.0629
729,0.0629
730,0.0620
731,0.0625
732,0.0635
733,0.0638
734,0.0634
735,0.0644
736,0.0650
737,0.0644
738,0.0641
739,0.0633
740,0.0633
741,0.0637
742,0.0630
743,0.0642
744,0.0638
745,0.0644
746,0.0645
747,0.0651
748,0.0652
749,0.0641
750,0.0634
751,0.0650
752,0.0648
753,0.0646
754,0.0654
755,0.0669
756,0.0648
757,0.0654
758,0.0649
759,0.0635
760,0.0642
761,0.0645
762,0.0634
763,0.0625
764,0.0631
765,0.0628
766,0.0606
767,0.0611
768,0.0605
769,0.0606
770,0.0598
771,0.0591
772,0.0583
773,0.0570
774,0.0577
775,0.0574
776,0.0570
777,0.0562
778,0.0556
779,0.0564
780,0.0550
781,0.0543
782,0.0547
783,0.0540
784,0.0539
785,0.0529
786,0.0515
787,0.0521
788,0.0523
789,0.0505
790,0.0496
791,0.0498
792,0.0490
793,0.0499
794,0.0487
795,0.0476
796,0.0476
797,0.0483
798,0.0467
799,0.0470
800,0.0489
801,0.0470
802,0.0473
803,0.0485
804,0.0488
805,0.0479
806,0.0474
807,0.0488
808,0.0489
809,0.0498
810,0.0500
811,0.0490
812,0.0488
813,0.0490
814,0.0489
815,0.0491
816,0.0494
817,0.0485
818,0.0495
819,0.0494
820,0.0490
821,0.0506
822,0.0498
823,0.0489
824,0.0491
825,0.0486
826,0.0487
827,0.0484
828,0.0484
829,0.0491
830,0.0489
831,0.0482
832,0.0473
833,0.0471
834,0.0470
835,0.0479
836,0.0475
837,0.0467
838,0.0469
839,0.0456
840,0.0447
841,0.0446
842,0.0459
843,0.0438
844,0.0458
845,0.0456
846,0.0451
847,0.0454
848,0.0457
849,0.0456
850,0.0457
851,0.0461
852,0.0468
853,0.0462
854,0.0470
855,0.0464
856,0.0466
857,0.0476
858,0.0467
859,0.0468
860,0.0475
861,0.0497
862,0.0496
863,0.0500
864,0.0492
865,0.0493
866,0.0499
867,0.0486
868,0.0504
869,0.0476
870,0.0505
871,0.0498
872,0.0501
873,0.0491
874,0.0506
875,0.0492
876,0.0506
877,0.0501
878,0.0501
879,0.0515
880,0.0511
881,0.0531
882,0.0540
883,0.0548
884,0.0539
885,0.0566
886,0.0565
887,0.0594
888,0.0587
889,0.0589
890,0.0625
891,0.0624
892,0.0622
893,0.0664
894,0.0681
895,0.0680
896,0.0705
897,0.0694
898,0.0699
899,0.0691
900,0.0732
901,0.0723
902,0.0711
903,0.0739
904,0.0754
905,0.0770
906,0.0752
907,0.0786
908,0.0784
909,0.0800
910,0.0798
911,0.0745
912,0.0750
913,0.0705
914,0.0737
915,0.0717
916,0.0699
917,0.0659
918,0.0685
919,0.0638
920,0.0654
921,0.0602
922,0.0604
923,0.0562
924,0.0587
925,0.0553
926,0.0541
927,0.0510
928,0.0507
929,0.0486
930,0.0470
931,0.0436
932,0.0410
933,0.0400
934,0.0370
935,0.0352
936,0.0319
937,0.0273
938,0.0261
939,0.0221
940,0.0199
941,0.0185
942,0.0146
943,0.0139
944,0.0157
945,0.0166
946,0.0140
947,0.0176
