382,NaN
383,1.0000
384,0.0000
385,1.0000
386,0.5652
387,0.3085
388,0.3588
389,0.2630
390,0.1157
391,0.3013
392,0.2492
393,0.2097
394,0.0000
395,0.0000
396,0.2967
397,0.0788
398,0.0000
399,0.2069
400,0.0977
401,0.3283
402,0.0254
403,0.1190
404,0.1131
405,0.1522
406,0.1094
407,0.1576
408,0.1183
409,0.0887
410,0.0739
411,0.1265
412,0.1273
413,0.1017
414,0.1737
415,0.0890
416,0.0746
417,0.1612
418,0.1133
419,0.1302
420,0.2118
421,0.1939
422,0.2034
423,0.2075
424,0.2197
425,0.1577
426,0.2082
427,0.1629
428,0.1654
429,0.1798
430,0.2146
431,0.2188
432,0.1907
433,0.1938
434,0.1991
435,0.1956
436,0.1865
437,0.1733
438,0.1806
439,0.1618
440,0.1384
441,0.1438
442,0.1458
443,0.1740
444,0.1240
445,0.0998
446,0.1061
447,0.1262
448,0.0929
449,0.0807
450,0.0895
451,0.0689
452,0.0649
453,0.0932
454,0.0865
455,0.0824
456,0.0903
457,0.0678
458,0.0816
459,0.0865
460,0.0940
461,0.1021
462,0.1039
463,0.1182
464,0.1221
465,0.1107
466,0.1432
467,0.1458
468,0.1747
469,0.1647
470,0.1696
471,0.1861
472,0.1986
473,0.1953
474,0.2055
475,0.2368
476,0.2325
477,0.2428
478,0.2458
479,0.2691
480,0.2627
481,0.2516
482,0.2620
483,0.2758
484,0.2644
485,0.2704
486,0.2731
487,0.2692
488,0.2701
489,0.2609
490,0.2559
491,0.2398
492,0.2344
493,0.2280
494,0.2195
495,0.2208
496,0.2092
497,0.1857
498,0.1854
499,0.1595
500,0.1581
501,0.1484
502,0.1410
503,0.1212
504,0.1154
505,0.1120
506,0.1046
507,0.1020
508,0.0933
509,0.0860
510,0.0844
511,0.0741
512,0.0733
513,0.0719
514,0.0700
515,0.0697
516,0.0603
517,0.0660
518,0.0627
519,0.0669
520,0.0677
521,0.0649
522,0.0687
523,0.0677
524,0.0684
525,0.0703
526,0.0752
527,0.0797
528,0.0787
529,0.0810
530,0.0851
531,0.0878
532,0.0880
533,0.0937
534,0.0973
535,0.0962
536,0.0981
537,0.1019
538,0.1044
539,0.1050
540,0.1073
541,0.1091
542,0.1107
543,0.1099
544,0.1145
545,0.1157
546,0.1157
547,0.1201
548,0.1187
549,0.1175
550,0.1221
551,0.1205
552,0.1202
553,0.1198
554,0.1205
555,0.1177
556,0.1169
557,0.1178
558,0.1170
559,0.1154
560,0.1142
561,0.1119
562,0.1114
563,0.1085
564,0.1061
565,0.1032
566,0.1006
567,0.1012
568,0.0985
569,0.0975
570,0.0946
571,0.0911
572,0.0904
573,0.0859
574,0.0843
575,0.0799
576,0.0783
577,0.0759
578,0.0724
579,0.0705
580,0.0680
581,0.0657
582,0.0623
583,0.0604
584,0.0593
585,0.0574
586,0.0544
587,0.0521
588,0.0507
589,0.0486
590,0.0474
591,0.0453
592,0.0454
593,0.0436
594,0.0444
595,0.0415
596,0.0429
597,0.0416
598,0.0412
599,0.0410
600,0.0424
601,0.0426
602,0.0426
603,0.0417
604,0.0439
605,0.0436
606,0.0437
607,0.0461
608,0.0464
609,0.0475
610,0.0496
611,0.0508
612,0.0515
613,0.0540
614,0.0544
615,0.0580
616,0.0599
617,0.0605
618,0.0623
619,0.0643
620,0.0668
621,0.0679
622,0.0698
623,0.0724
624,0.0728
625,0.0759
626,0.0766
627,0.0784
628,0.0816
629,0.0832
630,0.0837
631,0.0858
632,0.0851
633,0.0891
634,0.0878
635,0.0891
636,0.0906
637,0.0912
638,0.0916
639,0.0947
640,0.0968
641,0.0957
642,0.0967
643,0.0952
644,0.0962
645,0.0974
646,0.0984
647,0.0974
648,0.0985
649,0.0971
650,0.0965
651,0.0962
652,0.0968
653,0.0957
654,0.0965
655,0.0942
656,0.0924
657,0.0916
658,0.0927
659,0.0915
660,0.0907
661,0.0896
662,0.0885
663,0.0879
664,0.0864
665,0.0855
666,0.0838
667,0.0846
668,0.0828
669,0.0827
670,0.0799
671,0.0799
672,0.0766
673,0.0762
674,0.0736
675,0.0735
676,0.0718
677,0.0692
678,0.0694
679,0.0675
680,0.0670
681,0.0653
682,0.0635
683,0.0622
684,0.0607
685,0.0590
686,0.0584
687,0.0547
688,0.0567
689,0.0545
690,0.0531
691,0.0516
692,0.0503
693,0.0488
694,0.0487
695,0.0471
696,0.0467
697,0.0461
698,0.0442
699,0.0438
700,0.0421
701,0.0410
702,0.0407
703,0.0389
704,0.0375
705,0.0376
706,0.0368
707,0.0371
708,0.0361
709,0.0361
710,0.0344
711,0.0362
712,0.0343
713,0.0340
714,0.0336
715,0.0329
716,0.0334
717,0.0325
718,0.0334
719,0.0331
720,0.0325
721,0.0313
722,0.0321
723,0.0330
724,0.0324
725,0.0323
726,0.0331
727,0.0341
728,0.0339
729,0.0342
730,0.0352
731,0.0359
732,0.0362
733,0.0364
734,0.0382
735,0.0388
736,0.0392
737,0.0399
738,0.0419
739,0.0420
740,0.0417
741,0.0444
742,0.0436
743,0.0449
744,0.0461
745,0.0458
746,0.0472
747,0.0481
748,0.0498
749,0.0511
750,0.0516
751,0.0537
752,0.0552
753,0.0556
754,0.0569
755,0.0584
756,0.0597
757,0.0599
758,0.0616
759,0.0620
760,0.0631
761,0.0633
762,0.0643
763,0.0658
764,0.0674
765,0.0686
766,0.0675
767,0.0676
768,0.0672
769,0.0686
770,0.0696
771,0.0710
772,0.0694
773,0.0703
774,0.0718
775,0.0719
776,0.0742
777,0.0732
778,0.0738
779,0.0761
780,0.0759
781,0.0768
782,0.0753
783,0.0742
784,0.0757
785,0.0767
786,0.0758
787,0.0749
788,0.0768
789,0.0762
790,0.0746
791,0.0765
792,0.0759
793,0.0741
794,0.0746
795,0.0748
796,0.0762
797,0.0768
798,0.0746
799,0.0761
800,0.0768
801,0.0771
802,0.0774
803,0.0765
804,0.0776
805,0.0781
806,0.0774
807,0.0785
808,0.0793
809,0.0814
810,0.0797
811,0.0800
812,0.0774
813,0.0781
814,0.0778
815,0.0773
816,0.0786
817,0.0766
818,0.0767
819,0.0768
820,0.0757
821,0.0764
822,0.0747
823,0.0720
824,0.0722
825,0.0730
826,0.0697
827,0.0683
828,0.0676
829,0.0662
830,0.0657
831,0.0639
832,0.0639
833,0.0596
834,0.0591
835,0.0577
836,0.0578
837,0.0536
838,0.0549
839,0.0534
840,0.0507
841,0.0494
842,0.0495
843,0.0480
844,0.0468
845,0.0471
846,0.0446
847,0.0441
848,0.0421
849,0.0440
850,0.0420
851,0.0410
852,0.0414
853,0.0389
854,0.0398
855,0.0369
856,0.0375
857,0.0374
858,0.0335
859,0.0330
860,0.0339
861,0.0346
862,0.0332
863,0.0342
864,0.0309
865,0.0310
866,0.0305
867,0.0313
868,0.0292
869,0.0275
870,0.0277
871,0.0288
872,0.0282
873,0.0259
874,0.0275
875,0.0256
876,0.0257
877,0.0255
878,0.0243
879,0.0245
880,0.0254
881,0.0231
882,0.0255
883,0.0252
884,0.0236
885,0.0245
886,0.0235
887,0.0251
888,0.0236
889,0.0253
890,0.0262
891,0.0255
892,0.0263
893,0.0276
894,0.0264
895,0.0271
896,0.0264
897,0.0289
898,0.0262
899,0.0259
900,0.0298
901,0.0305
902,0.0272
903,0.0288
904,0.0315
905,0.0288
906,0.0312
907,0.0332
908,0.0318
909,0.0330
910,0.0335
911,0.0287
912,0.0336
913,0.0300
914,0.0311
915,0.0311
916,0.0339
917,0.0295
918,0.0316
919,0.0292
920,0.0327
921,0.0283
922,0.0282
923,0.0269
924,0.0274
925,0.0287
926,0.0292
927,0.0277
928,0.0285
929,0.0300
930,0.0285
931,0.0275
932,0.0253
933,0.0214
934,0.0234
935,0.0210
936,0.0186
937,0.0160
938,0.0153
939,0.0118
940,0.0118
941,0.0067
942,0.0093
943,0.0072
944,0.0104
945,0.0105
946,0.0098
947,0.0185
