382,NaN
383,0.4973
384,1.0000
385,0.4991
386,0.5488
387,0.1198
388,0.1557
389,0.2076
390,0.0000
391,0.3040
392,0.3532
393,0.2543
394,0.1068
395,0.1774
396,0.2988
397,0.2026
398,0.1795
399,0.1638
400,0.1573
401,0.3765
402,0.0422
403,0.2840
404,0.2043
405,0.1299
406,0.2350
407,0.2081
408,0.1604
409,0.2284
410,0.2836
411,0.2449
412,0.2230
413,0.1978
414,0.1239
415,0.2105
416,0.1838
417,0.2140
418,0.1636
419,0.1650
420,0.1594
421,0.1721
422,0.1120
423,0.0779
424,0.1577
425,0.1505
426,0.1901
427,0.1436
428,0.1400
429,0.1447
430,0.1531
431,0.1480
432,0.1074
433,0.0916
434,0.1208
435,0.0973
436,0.1104
437,0.1151
438,0.1305
439,0.0861
440,0.1079
441,0.0981
442,0.0964
443,0.1178
444,0.0880
445,0.1192
446,0.0921
447,0.0817
448,0.0977
449,0.1054
450,0.0793
451,0.0914
452,0.0977
453,0.0997
454,0.0981
455,0.1247
456,0.1052
457,0.1023
458,0.1001
459,0.1117
460,0.1159
461,0.1176
462,0.1122
463,0.1323
464,0.1236
465,0.1183
466,0.1409
467,0.1332
468,0.1522
469,0.1639
470,0.1522
471,0.1606
472,0.1718
473,0.1707
474,0.1767
475,0.1847
476,0.2013
477,0.1976
478,0.2045
479,0.2309
480,0.2223
481,0.2085
482,0.2232
483,0.2370
484,0.2460
485,0.2464
486,0.2495
487,0.2669
488,0.2613
489,0.2583
490,0.2585
491,0.2565
492,0.2611
493,0.2609
494,0.2578
495,0.2548
496,0.2523
497,0.2333
498,0.2433
499,0.2225
500,0.2342
501,0.2277
502,0.2150
503,0.2029
504,0.1920
505,0.1902
506,0.1826
507,0.1832
508,0.1816
509,0.1626
510,0.1587
511,0.1487
512,0.1389
513,0.1376
514,0.1330
515,0.1274
516,0.1211
517,0.1149
518,0.1082
519,0.1053
520,0.1050
521,0.0970
522,0.0932
523,0.0895
524,0.0864
525,0.0839
526,0.0835
527,0.0787
528,0.0777
529,0.0735
530,0.0738
531,0.0700
532,0.0704
533,0.0647
534,0.0643
535,0.0636
536,0.0630
537,0.0604
538,0.0595
539,0.0580
540,0.0587
541,0.0563
542,0.0557
543,0.0537
544,0.0524
545,0.0531
546,0.0548
547,0.0535
548,0.0528
549,0.0527
550,0.0529
551,0.0510
552,0.0508
553,0.0511
554,0.0536
555,0.0517
556,0.0526
557,0.0513
558,0.0533
559,0.0540
560,0.0531
561,0.0547
562,0.0546
563,0.0560
564,0.0573
565,0.0576
566,0.0561
567,0.0595
568,0.0611
569,0.0622
570,0.0632
571,0.0633
572,0.0652
573,0.0659
574,0.0679
575,0.0671
576,0.0684
577,0.0692
578,0.0709
579,0.0721
580,0.0726
581,0.0727
582,0.0738
583,0.0735
584,0.0753
585,0.0769
586,0.0789
587,0.0771
588,0.0795
589,0.0788
590,0.0811
591,0.0801
592,0.0813
593,0.0811
594,0.0825
595,0.0842
596,0.0845
597,0.0844
598,0.0853
599,0.0866
600,0.0869
601,0.0879
602,0.0896
603,0.0884
604,0.0902
605,0.0899
606,0.0905
607,0.0912
608,0.0926
609,0.0925
610,0.0928
611,0.0936
612,0.0945
613,0.0953
614,0.0944
615,0.0964
616,0.0955
617,0.0951
618,0.0953
619,0.0994
620,0.0972
621,0.0961
622,0.0969
623,0.0981
624,0.0971
625,0.0960
626,0.0955
627,0.0980
628,0.0979
629,0.0970
630,0.0967
631,0.0976
632,0.0958
633,0.0950
634,0.0923
635,0.0918
636,0.0918
637,0.0927
638,0.0913
639,0.0913
640,0.0914
641,0.0922
642,0.0901
643,0.0896
644,0.0883
645,0.0862
646,0.0862
647,0.0855
648,0.0853
649,0.0834
650,0.0823
651,0.0810
652,0.0803
653,0.0795
654,0.0777
655,0.0766
656,0.0763
657,0.0747
658,0.0743
659,0.0732
660,0.0723
661,0.0711
662,0.0703
663,0.0696
664,0.0682
665,0.0668
666,0.0659
667,0.0668
668,0.0652
669,0.0641
670,0.0637
671,0.0631
672,0.0618
673,0.0601
674,0.0590
675,0.0593
676,0.0589
677,0.0566
678,0.0556
679,0.0544
680,0.0555
681,0.0537
682,0.0528
683,0.0534
684,0.0515
685,0.0520
686,0.0503
687,0.0483
688,0.0499
689,0.0487
690,0.0483
691,0.0482
692,0.0454
693,0.0457
694,0.0455
695,0.0428
696,0.0444
697,0.0442
698,0.0429
699,0.0427
700,0.0431
701,0.0412
702,0.0414
703,0.0397
704,0.0391
705,0.0393
706,0.0398
707,0.0374
708,0.0379
709,0.0375
710,0.0369
711,0.0376
712,0.0359
713,0.0358
714,0.0351
715,0.0358
716,0.0350
717,0.0348
718,0.0346
719,0.0338
720,0.0335
721,0.0314
722,0.0308
723,0.0325
724,0.0309
725,0.0313
726,0.0314
727,0.0304
728,0.0300
729,0.0302
730,0.0306
731,0.0304
732,0.0311
733,0.0303
734,0.0304
735,0.0307
736,0.0308
737,0.0299
738,0.0306
739,0.0302
740,0.0293
741,0.0315
742,0.0311
743,0.0307
744,0.0310
745,0.0317
746,0.0328
747,0.0328
748,0.0339
749,0.0324
750,0.0323
751,0.0341
752,0.0344
753,0.0349
754,0.0358
755,0.0366
756,0.0359
757,0.0384
758,0.0368
759,0.0391
760,0.0390
761,0.0385
762,0.0374
763,0.0394
764,0.0399
765,0.0400
766,0.0398
767,0.0405
768,0.0409
769,0.0414
770,0.0403
771,0.0433
772,0.0428
773,0.0423
774,0.0427
775,0.0437
776,0.0443
777,0.0439
778,0.0444
779,0.0450
780,0.0461
781,0.0470
782,0.0474
783,0.0482
784,0.0481
785,0.0484
786,0.0485
787,0.0494
788,0.0510
789,0.0501
790,0.0509
791,0.0488
792,0.0512
793,0.0506
794,0.0516
795,0.0510
796,0.0517
797,0.0547
798,0.0534
799,0.0552
800,0.0566
801,0.0573
802,0.0578
803,0.0584
804,0.0590
805,0.0594
806,0.0623
807,0.0622
808,0.0625
809,0.0633
810,0.0669
811,0.0669
812,0.0653
813,0.0673
814,0.0678
815,0.0689
816,0.0692
817,0.0703
818,0.0706
819,0.0723
820,0.0736
821,0.0724
822,0.0726
823,0.0737
824,0.0728
825,0.0734
826,0.0749
827,0.0730
828,0.0730
829,0.0729
830,0.0730
831,0.0738
832,0.0720
833,0.0717
834,0.0711
835,0.0722
836,0.0717
837,0.0700
838,0.0707
839,0.0694
840,0.0667
841,0.0678
842,0.0696
843,0.0671
844,0.0670
845,0.0677
846,0.0671
847,0.0671
848,0.0668
849,0.0672
850,0.0656
851,0.0670
852,0.0658
853,0.0659
854,0.0655
855,0.0657
856,0.0667
857,0.0664
858,0.0666
859,0.0654
860,0.0655
861,0.0670
862,0.0661
863,0.0659
864,0.0668
865,0.0640
866,0.0650
867,0.0646
868,0.0663
869,0.0620
870,0.0647
871,0.0620
872,0.0635
873,0.0615
874,0.0617
875,0.0615
876,0.0613
877,0.0609
878,0.0615
879,0.0618
880,0.0630
881,0.0613
882,0.0639
883,0.0647
884,0.0616
885,0.0636
886,0.0653
887,0.0678
888,0.0655
889,0.0665
890,0.0711
891,0.0695
892,0.0723
893,0.0731
894,0.0723
895,0.0736
896,0.0750
897,0.0739
898,0.0736
899,0.0736
900,0.0733
901,0.0758
902,0.0727
903,0.0770
904,0.0783
905,0.0797
906,0.0795
907,0.0806
908,0.0802
909,0.0788
910,0.0786
911,0.0751
912,0.0757
913,0.0719
914,0.0725
915,0.0701
916,0.0705
917,0.0650
918,0.0655
919,0.0634
920,0.0634
921,0.0586
922,0.0575
923,0.0529
924,0.0559
925,0.0535
926,0.0541
927,0.0497
928,0.0467
929,0.0478
930,0.0442
931,0.0413
932,0.0406
933,0.0359
934,0.0383
935,0.0323
936,0.0304
937,0.0276
938,0.0253
939,0.0186
940,0.0168
941,0.0169
942,0.0158
943,0.0142
944,0.0123
945,0.0116
946,0.0130
947,0.0167
