382,NaN
383,0.4925
384,0.2541
385,1.0000
386,0.0000
387,0.2255
388,0.2188
389,0.2843
390,0.2896
391,0.2041
392,0.4293
393,0.1531
394,0.2897
395,0.0578
396,0.3617
397,0.0739
398,0.2113
399,0.1331
400,0.1596
401,0.3786
402,0.0564
403,0.2231
404,0.3186
405,0.2323
406,0.1240
407,0.2677
408,0.2156
409,0.1679
410,0.2129
411,0.2666
412,0.1579
413,0.1773
414,0.1319
415,0.1582
416,0.1306
417,0.1779
418,0.0981
419,0.1019
420,0.1348
421,0.1308
422,0.1579
423,0.1120
424,0.1628
425,0.1320
426,0.1409
427,0.1048
428,0.0986
429,0.1107
430,0.1734
431,0.1566
432,0.1350
433,0.1164
434,0.1276
435,0.1236
436,0.1179
437,0.1469
438,0.0994
439,0.1065
440,0.1283
441,0.1410
442,0.1374
443,0.1539
444,0.1303
445,0.1398
446,0.1225
447,0.1125
448,0.1255
449,0.1337
450,0.1274
451,0.1080
452,0.1423
453,0.1337
454,0.1408
455,0.1389
456,0.1604
457,0.1457
458,0.1354
459,0.1396
460,0.1518
461,0.1451
462,0.1494
463,0.1632
464,0.1494
465,0.1418
466,0.1548
467,0.1518
468,0.1619
469,0.1751
470,0.1560
471,0.1632
472,0.1699
473,0.1631
474,0.1745
475,0.1686
476,0.1744
477,0.1920
478,0.1875
479,0.1992
480,0.1983
481,0.1897
482,0.1977
483,0.2052
484,0.2028
485,0.2070
486,0.2098
487,0.2185
488,0.2126
489,0.2038
490,0.2102
491,0.2111
492,0.2033
493,0.2050
494,0.2049
495,0.2040
496,0.1944
497,0.1876
498,0.1899
499,0.1813
500,0.1797
501,0.1745
502,0.1635
503,0.1589
504,0.1537
505,0.1466
506,0.1517
507,0.1452
508,0.1420
509,0.1319
510,0.1310
511,0.1229
512,0.1151
513,0.1132
514,0.1121
515,0.1071
516,0.1046
517,0.1032
518,0.0981
519,0.0995
520,0.0965
521,0.0884
522,0.0892
523,0.0846
524,0.0873
525,0.0826
526,0.0857
527,0.0829
528,0.0828
529,0.0796
530,0.0774
531,0.0772
532,0.0767
533,0.0770
534,0.0780
535,0.0738
536,0.0760
537,0.0756
538,0.0743
539,0.0755
540,0.0737
541,0.0747
542,0.0744
543,0.0729
544,0.0754
545,0.0748
546,0.0767
547,0.0752
548,0.0764
549,0.0768
550,0.0745
551,0.0741
552,0.0773
553,0.0764
554,0.0784
555,0.0761
556,0.0788
557,0.0795
558,0.0792
559,0.0811
560,0.0786
561,0.0794
562,0.0817
563,0.0814
564,0.0812
565,0.0814
566,0.0805
567,0.0829
568,0.0829
569,0.0851
570,0.0851
571,0.0842
572,0.0837
573,0.0832
574,0.0848
575,0.0844
576,0.0857
577,0.0851
578,0.0855
579,0.0851
580,0.0851
581,0.0835
582,0.0842
583,0.0839
584,0.0822
585,0.0821
586,0.0834
587,0.0827
588,0.0817
589,0.0823
590,0.0839
591,0.0812
592,0.0817
593,0.0818
594,0.0808
595,0.0799
596,0.0800
597,0.0790
598,0.0809
599,0.0802
600,0.0792
601,0.0803
602,0.0790
603,0.0780
604,0.0786
605,0.0791
606,0.0780
607,0.0784
608,0.0779
609,0.0771
610,0.0776
611,0.0766
612,0.0775
613,0.0770
614,0.0758
615,0.0785
616,0.0758
617,0.0757
618,0.0749
619,0.0754
620,0.0750
621,0.0748
622,0.0761
623,0.0760
624,0.0756
625,0.0741
626,0.0723
627,0.0724
628,0.0731
629,0.0726
630,0.0733
631,0.0712
632,0.0712
633,0.0694
634,0.0693
635,0.0683
636,0.0684
637,0.0682
638,0.0671
639,0.0674
640,0.0672
641,0.0657
642,0.0658
643,0.0652
644,0.0652
645,0.0641
646,0.0641
647,0.0619
648,0.0632
649,0.0622
650,0.0610
651,0.0598
652,0.0598
653,0.0595
654,0.0586
655,0.0592
656,0.0584
657,0.0564
658,0.0560
659,0.0570
660,0.0564
661,0.0559
662,0.0556
663,0.0553
664,0.0546
665,0.0548
666,0.0530
667,0.0535
668,0.0542
669,0.0531
670,0.0532
671,0.0542
672,0.0527
673,0.0522
674,0.0507
675,0.0513
676,0.0519
677,0.0510
678,0.0511
679,0.0507
680,0.0503
681,0.0504
682,0.0506
683,0.0512
684,0.0505
685,0.0503
686,0.0502
687,0.0493
688,0.0490
689,0.0506
690,0.0513
691,0.0519
692,0.0501
693,0.0500
694,0.0512
695,0.0506
696,0.0512
697,0.0523
698,0.0513
699,0.0529
700,0.0524
701,0.0504
702,0.0523
703,0.0521
704,0.0497
705,0.0512
706,0.0515
707,0.0505
708,0.0508
709,0.0522
710,0.0515
711,0.0530
712,0.0518
713,0.0519
714,0.0520
715,0.0528
716,0.0521
717,0.0530
718,0.0523
719,0.0523
720,0.0519
721,0.0503
722,0.0500
723,0.0507
724,0.0502
725,0.0503
726,0.0505
727,0.0510
728,0.0503
729,0.0498
730,0.0503
731,0.0510
732,0.0513
733,0.0511
734,0.0513
735,0.0522
736,0.0511
737,0.0515
738,0.0525
739,0.0514
740,0.0522
741,0.0537
742,0.0536
743,0.0537
744,0.0549
745,0.0543
746,0.0543
747,0.0537
748,0.0550
749,0.0548
750,0.0561
751,0.0555
752,0.0561
753,0.0562
754,0.0569
755,0.0589
756,0.0578
757,0.0590
758,0.0592
759,0.0594
760,0.0591
761,0.0586
762,0.0594
763,0.0602
764,0.0597
765,0.0590
766,0.0602
767,0.0588
768,0.0601
769,0.0603
770,0.0594
771,0.0599
772,0.0594
773,0.0590
774,0.0604
775,0.0598
776,0.0602
777,0.0605
778,0.0612
779,0.0618
780,0.0604
781,0.0615
782,0.0596
783,0.0616
784,0.0606
785,0.0615
786,0.0617
787,0.0626
788,0.0630
789,0.0613
790,0.0601
791,0.0607
792,0.0599
793,0.0609
794,0.0622
795,0.0605
796,0.0602
797,0.0627
798,0.0618
799,0.0619
800,0.0639
801,0.0634
802,0.0642
803,0.0639
804,0.0657
805,0.0656
806,0.0653
807,0.0665
808,0.0684
809,0.0682
810,0.0699
811,0.0693
812,0.0693
813,0.0702
814,0.0692
815,0.0691
816,0.0692
817,0.0702
818,0.0690
819,0.0701
820,0.0709
821,0.0717
822,0.0711
823,0.0694
824,0.0687
825,0.0699
826,0.0696
827,0.0666
828,0.0674
829,0.0677
830,0.0660
831,0.0672
832,0.0666
833,0.0656
834,0.0642
835,0.0640
836,0.0629
837,0.0617
838,0.0611
839,0.0595
840,0.0590
841,0.0582
842,0.0595
843,0.0562
844,0.0584
845,0.0579
846,0.0568
847,0.0553
848,0.0550
849,0.0549
850,0.0546
851,0.0552
852,0.0541
853,0.0541
854,0.0548
855,0.0535
856,0.0523
857,0.0557
858,0.0514
859,0.0500
860,0.0518
861,0.0522
862,0.0534
863,0.0529
864,0.0504
865,0.0489
866,0.0502
867,0.0498
868,0.0490
869,0.0472
870,0.0489
871,0.0490
872,0.0477
873,0.0457
874,0.0460
875,0.0457
876,0.0469
877,0.0464
878,0.0456
879,0.0461
880,0.0471
881,0.0441
882,0.0468
883,0.0485
884,0.0457
885,0.0473
886,0.0483
887,0.0497
888,0.0473
889,0.0485
890,0.0485
891,0.0500
892,0.0507
893,0.0526
894,0.0528
895,0.0526
896,0.0527
897,0.0540
898,0.0521
899,0.0517
900,0.0556
901,0.0551
902,0.0514
903,0.0521
904,0.0553
905,0.0541
906,0.0538
907,0.0563
908,0.0552
909,0.0558
910,0.0544
911,0.0515
912,0.0512
913,0.0499
914,0.0485
915,0.0493
916,0.0496
917,0.0448
918,0.0430
919,0.0428
920,0.0445
921,0.0381
922,0.0386
923,0.0369
924,0.0368
925,0.0362
926,0.0352
927,0.0323
928,0.0330
929,0.0307
930,0.0305
931,0.0293
932,0.0284
933,0.0252
934,0.0251
935,0.0239
936,0.0196
937,0.0170
938,0.0165
939,0.0144
940,0.0114
941,0.0118
942,0.0111
943,0.0100
944,0.0075
945,0.0105
946,0.0062
947,0.0136
