382,NaN
383,1.0000
384,1.0000
385,1.0000
386,0.0000
387,0.3098
388,0.4258
389,0.1346
390,0.3211
391,0.1866
392,0.2490
393,0.3733
394,0.2740
395,0.0000
396,0.2992
397,0.0947
398,0.1057
399,0.0697
400,0.1180
401,0.3398
402,0.0282
403,0.1158
404,0.1057
405,0.1425
406,0.0668
407,0.0818
408,0.0962
409,0.1017
410,0.1580
411,0.1130
412,0.1663
413,0.0850
414,0.0423
415,0.1393
416,0.0983
417,0.1006
418,0.0715
419,0.0462
420,0.1452
421,0.0779
422,0.0958
423,0.0661
424,0.0662
425,0.1197
426,0.1125
427,0.0915
428,0.1309
429,0.1156
430,0.1639
431,0.1945
432,0.1450
433,0.1422
434,0.1572
435,0.1666
436,0.1692
437,0.1582
438,0.1668
439,0.1613
440,0.1793
441,0.1753
442,0.1811
443,0.2149
444,0.1855
445,0.2044
446,0.1734
447,0.2171
448,0.1903
449,0.1876
450,0.2102
451,0.1900
452,0.1846
453,0.2110
454,0.2115
455,0.2085
456,0.2213
457,0.2004
458,0.2067
459,0.2072
460,0.2008
461,0.2345
462,0.2272
463,0.2180
464,0.1968
465,0.2096
466,0.2283
467,0.2160
468,0.2262
469,0.2261
470,0.2161
471,0.2214
472,0.2228
473,0.2299
474,0.2140
475,0.2321
476,0.2317
477,0.2492
478,0.2366
479,0.2456
480,0.2540
481,0.2283
482,0.2348
483,0.2444
484,0.2404
485,0.2375
486,0.2382
487,0.2354
488,0.2320
489,0.2318
490,0.2163
491,0.2180
492,0.2097
493,0.2146
494,0.2079
495,0.2045
496,0.1927
497,0.1764
498,0.1812
499,0.1645
500,0.1640
501,0.1575
502,0.1507
503,0.1357
504,0.1397
505,0.1272
506,0.1277
507,0.1222
508,0.1142
509,0.1085
510,0.1002
511,0.0888
512,0.0869
513,0.0838
514,0.0837
515,0.0780
516,0.0715
517,0.0702
518,0.0637
519,0.0639
520,0.0621
521,0.0547
522,0.0537
523,0.0510
524,0.0517
525,0.0486
526,0.0476
527,0.0506
528,0.0477
529,0.0468
530,0.0436
531,0.0452
532,0.0433
533,0.0431
534,0.0424
535,0.0411
536,0.0418
537,0.0414
538,0.0409
539,0.0405
540,0.0417
541,0.0433
542,0.0412
543,0.0411
544,0.0425
545,0.0411
546,0.0435
547,0.0441
548,0.0424
549,0.0434
550,0.0442
551,0.0439
552,0.0458
553,0.0469
554,0.0474
555,0.0476
556,0.0484
557,0.0496
558,0.0494
559,0.0506
560,0.0528
561,0.0529
562,0.0549
563,0.0551
564,0.0561
565,0.0581
566,0.0570
567,0.0588
568,0.0602
569,0.0611
570,0.0628
571,0.0651
572,0.0657
573,0.0675
574,0.0678
575,0.0680
576,0.0702
577,0.0726
578,0.0699
579,0.0730
580,0.0741
581,0.0739
582,0.0740
583,0.0750
584,0.0764
585,0.0755
586,0.0782
587,0.0787
588,0.0780
589,0.0805
590,0.0827
591,0.0795
592,0.0828
593,0.0833
594,0.0847
595,0.0844
596,0.0855
597,0.0854
598,0.0868
599,0.0863
600,0.0876
601,0.0898
602,0.0892
603,0.0891
604,0.0908
605,0.0921
606,0.0917
607,0.0946
608,0.0941
609,0.0936
610,0.0933
611,0.0962
612,0.0960
613,0.0960
614,0.0956
615,0.0987
616,0.0995
617,0.0993
618,0.0994
619,0.1013
620,0.1004
621,0.1019
622,0.1031
623,0.1036
624,0.1040
625,0.1054
626,0.1023
627,0.1035
628,0.1052
629,0.1038
630,0.1046
631,0.1044
632,0.1026
633,0.1035
634,0.1030
635,0.1034
636,0.1017
637,0.1028
638,0.1013
639,0.1035
640,0.1028
641,0.1036
642,0.1021
643,0.1030
644,0.1010
645,0.1011
646,0.1008
647,0.1013
648,0.1001
649,0.0994
650,0.0978
651,0.0970
652,0.0972
653,0.0963
654,0.0957
655,0.0952
656,0.0931
657,0.0930
658,0.0931
659,0.0927
660,0.0922
661,0.0918
662,0.0908
663,0.0902
664,0.0894
665,0.0888
666,0.0880
667,0.0892
668,0.0882
669,0.0874
670,0.0875
671,0.0865
672,0.0857
673,0.0854
674,0.0822
675,0.0838
676,0.0823
677,0.0810
678,0.0818
679,0.0800
680,0.0803
681,0.0803
682,0.0794
683,0.0792
684,0.0771
685,0.0772
686,0.0770
687,0.0760
688,0.0752
689,0.0765
690,0.0754
691,0.0745
692,0.0729
693,0.0725
694,0.0722
695,0.0711
696,0.0712
697,0.0721
698,0.0704
699,0.0700
700,0.0683
701,0.0688
702,0.0673
703,0.0665
704,0.0654
705,0.0646
706,0.0636
707,0.0621
708,0.0620
709,0.0615
710,0.0598
711,0.0618
712,0.0589
713,0.0592
714,0.0579
715,0.0569
716,0.0579
717,0.0557
718,0.0546
719,0.0539
720,0.0525
721,0.0503
722,0.0493
723,0.0491
724,0.0476
725,0.0482
726,0.0470
727,0.0460
728,0.0438
729,0.0445
730,0.0431
731,0.0441
732,0.0422
733,0.0417
734,0.0420
735,0.0419
736,0.0403
737,0.0392
738,0.0393
739,0.0384
740,0.0385
741,0.0382
742,0.0374
743,0.0362
744,0.0356
745,0.0358
746,0.0343
747,0.0343
748,0.0355
749,0.0336
750,0.0336
751,0.0337
752,0.0328
753,0.0327
754,0.0322
755,0.0331
756,0.0319
757,0.0316
758,0.0305
759,0.0311
760,0.0317
761,0.0297
762,0.0291
763,0.0290
764,0.0298
765,0.0291
766,0.0284
767,0.0273
768,0.0273
769,0.0265
770,0.0257
771,0.0271
772,0.0255
773,0.0253
774,0.0267
775,0.0262
776,0.0251
777,0.0248
778,0.0246
779,0.0236
780,0.0242
781,0.0251
782,0.0237
783,0.0244
784,0.0237
785,0.0245
786,0.0235
787,0.0246
788,0.0236
789,0.0232
790,0.0230
791,0.0219
792,0.0225
793,0.0217
794,0.0223
795,0.0237
796,0.0222
797,0.0238
798,0.0222
799,0.0231
800,0.0233
801,0.0231
802,0.0234
803,0.0248
804,0.0237
805,0.0235
806,0.0235
807,0.0254
808,0.0249
809,0.0235
810,0.0248
811,0.0251
812,0.0246
813,0.0255
814,0.0250
815,0.0263
816,0.0264
817,0.0261
818,0.0255
819,0.0271
820,0.0281
821,0.0286
822,0.0281
823,0.0262
824,0.0260
825,0.0273
826,0.0282
827,0.0267
828,0.0268
829,0.0283
830,0.0271
831,0.0286
832,0.0279
833,0.0281
834,0.0273
835,0.0276
836,0.0274
837,0.0270
838,0.0268
839,0.0278
840,0.0266
841,0.0268
842,0.0276
843,0.0259
844,0.0280
845,0.0269
846,0.0264
847,0.0279
848,0.0273
849,0.0281
850,0.0278
851,0.0295
852,0.0296
853,0.0285
854,0.0296
855,0.0284
856,0.0284
857,0.0301
858,0.0286
859,0.0304
860,0.0297
861,0.0311
862,0.0319
863,0.0323
864,0.0319
865,0.0318
866,0.0310
867,0.0319
868,0.0316
869,0.0311
870,0.0309
871,0.0322
872,0.0336
873,0.0325
874,0.0313
875,0.0313
876,0.0334
877,0.0322
878,0.0342
879,0.0344
880,0.0357
881,0.0332
882,0.0344
883,0.0371
884,0.0382
885,0.0373
886,0.0383
887,0.0400
888,0.0396
889,0.0412
890,0.0421
891,0.0445
892,0.0455
893,0.0480
894,0.0474
895,0.0467
896,0.0499
897,0.0499
898,0.0496
899,0.0486
900,0.0545
901,0.0547
902,0.0521
903,0.0513
904,0.0571
905,0.0580
906,0.0558
907,0.0597
908,0.0584
909,0.0606
910,0.0584
911,0.0557
912,0.0589
913,0.0531
914,0.0567
915,0.0567
916,0.0548
917,0.0534
918,0.0506
919,0.0520
920,0.0546
921,0.0497
922,0.0508
923,0.0460
924,0.0473
925,0.0489
926,0.0453
927,0.0437
928,0.0448
929,0.0455
930,0.0414
931,0.0402
932,0.0398
933,0.0337
934,0.0355
935,0.0326
936,0.0294
937,0.0291
938,0.0257
939,0.0191
940,0.0182
941,0.0171
942,0.0166
943,0.0126
944,0.0146
945,0.0151
946,0.0140
947,0.0161
