382,NaN
383,1.0000
384,0.0000
385,1.0000
386,0.0000
387,0.1698
388,0.2183
389,0.2414
390,0.0000
391,0.3180
392,0.2263
393,0.2113
394,0.1047
395,0.0641
396,0.1519
397,0.0678
398,0.0000
399,0.0000
400,0.2136
401,0.2462
402,0.0000
403,0.1934
404,0.1653
405,0.0510
406,0.0433
407,0.1918
408,0.1601
409,0.0415
410,0.1078
411,0.1120
412,0.0453
413,0.1248
414,0.0933
415,0.1048
416,0.1340
417,0.1267
418,0.0128
419,0.0907
420,0.0878
421,0.0561
422,0.0555
423,0.0990
424,0.0959
425,0.0778
426,0.1073
427,0.0539
428,0.0663
429,0.0640
430,0.1297
431,0.1143
432,0.1333
433,0.0694
434,0.1040
435,0.0822
436,0.1461
437,0.1306
438,0.1152
439,0.0905
440,0.1255
441,0.1337
442,0.1111
443,0.1264
444,0.1277
445,0.1101
446,0.1144
447,0.1269
448,0.1006
449,0.1209
450,0.1239
451,0.0989
452,0.1074
453,0.1198
454,0.1287
455,0.1410
456,0.1307
457,0.1354
458,0.1199
459,0.1296
460,0.1271
461,0.1416
462,0.1362
463,0.1601
464,0.1248
465,0.1301
466,0.1556
467,0.1409
468,0.1645
469,0.1569
470,0.1700
471,0.1647
472,0.1702
473,0.1628
474,0.1794
475,0.1794
476,0.1918
477,0.1961
478,0.1944
479,0.2134
480,0.2113
481,0.2040
482,0.2250
483,0.2228
484,0.2256
485,0.2394
486,0.2428
487,0.2412
488,0.2511
489,0.2547
490,0.2513
491,0.2548
492,0.2535
493,0.2627
494,0.2620
495,0.2602
496,0.2547
497,0.2453
498,0.2493
499,0.2395
500,0.2451
501,0.2290
502,0.2412
503,0.2170
504,0.2245
505,0.2092
506,0.2098
507,0.2096
508,0.2028
509,0.1981
510,0.1941
511,0.1844
512,0.1801
513,0.1736
514,0.1776
515,0.1692
516,0.1673
517,0.1606
518,0.1499
519,0.1543
520,0.1501
521,0.1446
522,0.1436
523,0.1417
524,0.1405
525,0.1372
526,0.1363
527,0.1362
528,0.1347
529,0.1338
530,0.1288
531,0.1303
532,0.1306
533,0.1252
534,0.1301
535,0.1241
536,0.1254
537,0.1254
538,0.1240
539,0.1226
540,0.1204
541,0.1233
542,0.1183
543,0.1163
544,0.1187
545,0.1176
546,0.1191
547,0.1179
548,0.1185
549,0.1173
550,0.1166
551,0.1151
552,0.1154
553,0.1162
554,0.1147
555,0.1147
556,0.1164
557,0.1131
558,0.1134
559,0.1143
560,0.1123
561,0.1106
562,0.1131
563,0.1110
564,0.1096
565,0.1086
566,0.1066
567,0.1114
568,0.1094
569,0.1097
570,0.1082
571,0.1076
572,0.1072
573,0.1070
574,0.1065
575,0.1041
576,0.1054
577,0.1032
578,0.1020
579,0.1018
580,0.1016
581,0.0992
582,0.0995
583,0.0966
584,0.0973
585,0.0963
586,0.0942
587,0.0933
588,0.0925
589,0.0907
590,0.0920
591,0.0912
592,0.0895
593,0.0890
594,0.0896
595,0.0876
596,0.0887
597,0.0857
598,0.0859
599,0.0854
600,0.0842
601,0.0839
602,0.0839
603,0.0817
604,0.0826
605,0.0823
606,0.0804
607,0.0815
608,0.0807
609,0.0793
610,0.0787
611,0.0788
612,0.0787
613,0.0780
614,0.0763
615,0.0766
616,0.0755
617,0.0740
618,0.0741
619,0.0749
620,0.0743
621,0.0736
622,0.0743
623,0.0737
624,0.0728
625,0.0720
626,0.0722
627,0.0720
628,0.0719
629,0.0707
630,0.0707
631,0.0699
632,0.0682
633,0.0683
634,0.0669
635,0.0654
636,0.0647
637,0.0652
638,0.0646
639,0.0647
640,0.0642
641,0.0641
642,0.0630
643,0.0620
644,0.0614
645,0.0613
646,0.0602
647,0.0604
648,0.0596
649,0.0591
650,0.0584
651,0.0578
652,0.0564
653,0.0575
654,0.0553
655,0.0550
656,0.0539
657,0.0534
658,0.0536
659,0.0525
660,0.0521
661,0.0513
662,0.0505
663,0.0519
664,0.0498
665,0.0492
666,0.0491
667,0.0498
668,0.0479
669,0.0479
670,0.0492
671,0.0485
672,0.0461
673,0.0459
674,0.0465
675,0.0464
676,0.0465
677,0.0459
678,0.0449
679,0.0447
680,0.0441
681,0.0443
682,0.0439
683,0.0429
684,0.0435
685,0.0422
686,0.0422
687,0.0419
688,0.0418
689,0.0426
690,0.0419
691,0.0418
692,0.0410
693,0.0403
694,0.0407
695,0.0399
696,0.0401
697,0.0404
698,0.0401
699,0.0405
700,0.0397
701,0.0385
702,0.0395
703,0.0391
704,0.0380
705,0.0385
706,0.0371
707,0.0372
708,0.0365
709,0.0380
710,0.0377
711,0.0372
712,0.0368
713,0.0362
714,0.0355
715,0.0354
716,0.0359
717,0.0352
718,0.0341
719,0.0345
720,0.0337
721,0.0322
722,0.0312
723,0.0318
724,0.0314
725,0.0326
726,0.0305
727,0.0305
728,0.0299
729,0.0303
730,0.0289
731,0.0294
732,0.0306
733,0.0292
734,0.0291
735,0.0293
736,0.0286
737,0.0289
738,0.0287
739,0.0274
740,0.0274
741,0.0283
742,0.0281
743,0.0274
744,0.0272
745,0.0276
746,0.0271
747,0.0275
748,0.0276
749,0.0269
750,0.0265
751,0.0282
752,0.0275
753,0.0262
754,0.0276
755,0.0270
756,0.0276
757,0.0277
758,0.0273
759,0.0277
760,0.0274
761,0.0278
762,0.0271
763,0.0274
764,0.0254
765,0.0273
766,0.0270
767,0.0263
768,0.0261
769,0.0257
770,0.0263
771,0.0265
772,0.0257
773,0.0258
774,0.0259
775,0.0257
776,0.0263
777,0.0257
778,0.0254
779,0.0263
780,0.0262
781,0.0257
782,0.0255
783,0.0255
784,0.0261
785,0.0257
786,0.0251
787,0.0254
788,0.0259
789,0.0256
790,0.0249
791,0.0236
792,0.0251
793,0.0243
794,0.0248
795,0.0242
796,0.0253
797,0.0258
798,0.0259
799,0.0253
800,0.0254
801,0.0248
802,0.0252
803,0.0265
804,0.0265
805,0.0263
806,0.0262
807,0.0268
808,0.0278
809,0.0272
810,0.0293
811,0.0268
812,0.0277
813,0.0285
814,0.0275
815,0.0281
816,0.0289
817,0.0279
818,0.0279
819,0.0297
820,0.0295
821,0.0300
822,0.0307
823,0.0285
824,0.0269
825,0.0295
826,0.0293
827,0.0279
828,0.0290
829,0.0291
830,0.0290
831,0.0298
832,0.0281
833,0.0278
834,0.0280
835,0.0273
836,0.0283
837,0.0276
838,0.0285
839,0.0262
840,0.0265
841,0.0259
842,0.0282
843,0.0251
844,0.0264
845,0.0261
846,0.0254
847,0.0251
848,0.0258
849,0.0260
850,0.0263
851,0.0266
852,0.0256
853,0.0271
854,0.0275
855,0.0258
856,0.0258
857,0.0269
858,0.0255
859,0.0260
860,0.0256
861,0.0249
862,0.0277
863,0.0269
864,0.0247
865,0.0259
866,0.0259
867,0.0274
868,0.0251
869,0.0259
870,0.0261
871,0.0267
872,0.0266
873,0.0251
874,0.0251
875,0.0253
876,0.0256
877,0.0254
878,0.0259
879,0.0267
880,0.0277
881,0.0251
882,0.0266
883,0.0287
884,0.0280
885,0.0283
886,0.0293
887,0.0314
888,0.0304
889,0.0306
890,0.0325
891,0.0306
892,0.0317
893,0.0346
894,0.0341
895,0.0332
896,0.0343
897,0.0344
898,0.0354
899,0.0347
900,0.0365
901,0.0358
902,0.0360
903,0.0374
904,0.0400
905,0.0375
906,0.0390
907,0.0430
908,0.0405
909,0.0395
910,0.0416
911,0.0379
912,0.0402
913,0.0353
914,0.0377
915,0.0359
916,0.0375
917,0.0353
918,0.0333
919,0.0341
920,0.0358
921,0.0313
922,0.0305
923,0.0292
924,0.0318
925,0.0304
926,0.0276
927,0.0286
928,0.0275
929,0.0254
930,0.0240
931,0.0235
932,0.0269
933,0.0221
934,0.0223
935,0.0204
936,0.0175
937,0.0142
938,0.0142
939,0.0105
940,0.0115
941,0.0087
942,0.0089
943,0.0078
944,0.0085
945,0.0072
946,0.0081
947,0.0105
