382,NaN
383,1.0000
384,0.2346
385,1.0000
386,0.1428
387,0.2965
388,0.3237
389,0.2013
390,0.0925
391,0.1229
392,0.1544
393,0.3006
394,0.0914
395,0.0000
396,0.1143
397,0.1363
398,0.1952
399,0.1472
400,0.1704
401,0.2510
402,0.0037
403,0.1887
404,0.1578
405,0.1908
406,0.0462
407,0.1251
408,0.1509
409,0.0658
410,0.1715
411,0.1198
412,0.0691
413,0.1184
414,0.0471
415,0.1545
416,0.0525
417,0.1225
418,0.1120
419,0.1024
420,0.1010
421,0.0601
422,0.0441
423,0.0760
424,0.0628
425,0.0393
426,0.0883
427,0.0126
428,0.0459
429,0.0553
430,0.0981
431,0.0719
432,0.0722
433,0.0664
434,0.0297
435,0.0636
436,0.0790
437,0.0826
438,0.0577
439,0.0769
440,0.0816
441,0.0771
442,0.0719
443,0.0723
444,0.0806
445,0.0686
446,0.0549
447,0.0595
448,0.0298
449,0.0506
450,0.0434
451,0.0421
452,0.0306
453,0.0449
454,0.0594
455,0.0621
456,0.0527
457,0.0476
458,0.0489
459,0.0377
460,0.0680
461,0.0630
462,0.0529
463,0.0625
464,0.0503
465,0.0445
466,0.0441
467,0.0486
468,0.0522
469,0.0558
470,0.0470
471,0.0448
472,0.0616
473,0.0501
474,0.0528
475,0.0690
476,0.0552
477,0.0687
478,0.0538
479,0.0700
480,0.0575
481,0.0678
482,0.0548
483,0.0622
484,0.0633
485,0.0807
486,0.0635
487,0.0755
488,0.0669
489,0.0717
490,0.0782
491,0.0745
492,0.0723
493,0.0819
494,0.0789
495,0.0738
496,0.0752
497,0.0668
498,0.0799
499,0.0699
500,0.0749
501,0.0683
502,0.0715
503,0.0660
504,0.0693
505,0.0647
506,0.0677
507,0.0740
508,0.0635
509,0.0657
510,0.0630
511,0.0574
512,0.0570
513,0.0582
514,0.0549
515,0.0563
516,0.0573
517,0.0554
518,0.0528
519,0.0554
520,0.0538
521,0.0508
522,0.0513
523,0.0496
524,0.0523
525,0.0475
526,0.0506
527,0.0507
528,0.0509
529,0.0486
530,0.0504
531,0.0495
532,0.0500
533,0.0507
534,0.0503
535,0.0517
536,0.0514
537,0.0514
538,0.0511
539,0.0507
540,0.0522
541,0.0520
542,0.0520
543,0.0528
544,0.0520
545,0.0532
546,0.0547
547,0.0546
548,0.0534
549,0.0541
550,0.0544
551,0.0540
552,0.0548
553,0.0552
554,0.0572
555,0.0563
556,0.0565
557,0.0579
558,0.0576
559,0.0589
560,0.0577
561,0.0575
562,0.0602
563,0.0597
564,0.0587
565,0.0614
566,0.0575
567,0.0619
568,0.0609
569,0.0610
570,0.0630
571,0.0626
572,0.0634
573,0.0632
574,0.0633
575,0.0625
576,0.0636
577,0.0621
578,0.0632
579,0.0640
580,0.0649
581,0.0627
582,0.0624
583,0.0638
584,0.0651
585,0.0652
586,0.0642
587,0.0639
588,0.0635
589,0.0650
590,0.0649
591,0.0633
592,0.0655
593,0.0648
594,0.0644
595,0.0657
596,0.0656
597,0.0651
598,0.0650
599,0.0665
600,0.0651
601,0.0659
602,0.0665
603,0.0656
604,0.0669
605,0.0678
606,0.0669
607,0.0679
608,0.0681
609,0.0679
610,0.0677
611,0.0687
612,0.0688
613,0.0690
614,0.0706
615,0.0695
616,0.0704
617,0.0695
618,0.0712
619,0.0707
620,0.0718
621,0.0727
622,0.0732
623,0.0734
624,0.0743
625,0.0734
626,0.0738
627,0.0755
628,0.0753
629,0.0748
630,0.0745
631,0.0761
632,0.0740
633,0.0744
634,0.0734
635,0.0734
636,0.0735
637,0.0754
638,0.0750
639,0.0754
640,0.0770
641,0.0761
642,0.0759
643,0.0761
644,0.0756
645,0.0763
646,0.0761
647,0.0763
648,0.0766
649,0.0753
650,0.0760
651,0.0766
652,0.0752
653,0.0746
654,0.0754
655,0.0747
656,0.0748
657,0.0748
658,0.0746
659,0.0736
660,0.0752
661,0.0749
662,0.0749
663,0.0754
664,0.0753
665,0.0753
666,0.0754
667,0.0770
668,0.0765
669,0.0769
670,0.0762
671,0.0768
672,0.0755
673,0.0760
674,0.0761
675,0.0775
676,0.0765
677,0.0764
678,0.0761
679,0.0760
680,0.0769
681,0.0758
682,0.0774
683,0.0784
684,0.0787
685,0.0782
686,0.0789
687,0.0777
688,0.0783
689,0.0795
690,0.0798
691,0.0813
692,0.0788
693,0.0791
694,0.0807
695,0.0802
696,0.0808
697,0.0820
698,0.0822
699,0.0820
700,0.0833
701,0.0822
702,0.0817
703,0.0817
704,0.0804
705,0.0820
706,0.0817
707,0.0814
708,0.0825
709,0.0818
710,0.0816
711,0.0829
712,0.0829
713,0.0816
714,0.0830
715,0.0824
716,0.0820
717,0.0812
718,0.0795
719,0.0806
720,0.0795
721,0.0787
722,0.0772
723,0.0791
724,0.0763
725,0.0785
726,0.0769
727,0.0772
728,0.0761
729,0.0764
730,0.0761
731,0.0761
732,0.0772
733,0.0764
734,0.0765
735,0.0763
736,0.0760
737,0.0773
738,0.0773
739,0.0765
740,0.0758
741,0.0785
742,0.0763
743,0.0753
744,0.0765
745,0.0769
746,0.0766
747,0.0765
748,0.0767
749,0.0779
750,0.0778
751,0.0781
752,0.0781
753,0.0787
754,0.0809
755,0.0792
756,0.0795
757,0.0808
758,0.0796
759,0.0794
760,0.0800
761,0.0797
762,0.0787
763,0.0798
764,0.0787
765,0.0796
766,0.0788
767,0.0778
768,0.0778
769,0.0784
770,0.0773
771,0.0791
772,0.0774
773,0.0778
774,0.0781
775,0.0777
776,0.0782
777,0.0777
778,0.0780
779,0.0778
780,0.0788
781,0.0789
782,0.0771
783,0.0773
784,0.0762
785,0.0780
786,0.0793
787,0.0785
788,0.0786
789,0.0773
790,0.0762
791,0.0768
792,0.0770
793,0.0760
794,0.0755
795,0.0764
796,0.0752
797,0.0774
798,0.0774
799,0.0770
800,0.0803
801,0.0800
802,0.0803
803,0.0809
804,0.0840
805,0.0829
806,0.0832
807,0.0826
808,0.0833
809,0.0857
810,0.0869
811,0.0866
812,0.0870
813,0.0869
814,0.0868
815,0.0875
816,0.0868
817,0.0876
818,0.0869
819,0.0885
820,0.0915
821,0.0884
822,0.0892
823,0.0887
824,0.0896
825,0.0904
826,0.0890
827,0.0868
828,0.0865
829,0.0879
830,0.0870
831,0.0866
832,0.0848
833,0.0815
834,0.0812
835,0.0825
836,0.0827
837,0.0798
838,0.0794
839,0.0796
840,0.0778
841,0.0761
842,0.0775
843,0.0755
844,0.0741
845,0.0753
846,0.0750
847,0.0727
848,0.0748
849,0.0728
850,0.0732
851,0.0752
852,0.0729
853,0.0721
854,0.0737
855,0.0731
856,0.0717
857,0.0737
858,0.0739
859,0.0727
860,0.0723
861,0.0732
862,0.0749
863,0.0736
864,0.0721
865,0.0708
866,0.0708
867,0.0720
868,0.0724
869,0.0717
870,0.0693
871,0.0702
872,0.0708
873,0.0689
874,0.0688
875,0.0673
876,0.0672
877,0.0678
878,0.0689
879,0.0697
880,0.0686
881,0.0683
882,0.0695
883,0.0716
884,0.0724
885,0.0728
886,0.0742
887,0.0757
888,0.0782
889,0.0784
890,0.0798
891,0.0798
892,0.0791
893,0.0840
894,0.0825
895,0.0832
896,0.0866
897,0.0862
898,0.0852
899,0.0852
900,0.0926
901,0.0912
902,0.0904
903,0.0920
904,0.0931
905,0.0920
906,0.0935
907,0.0966
908,0.0933
909,0.0923
910,0.0931
911,0.0910
912,0.0924
913,0.0873
914,0.0851
915,0.0888
916,0.0829
917,0.0808
918,0.0832
919,0.0776
920,0.0793
921,0.0741
922,0.0734
923,0.0683
924,0.0696
925,0.0682
926,0.0658
927,0.0641
928,0.0620
929,0.0623
930,0.0587
931,0.0563
932,0.0551
933,0.0523
934,0.0509
935,0.0443
936,0.0392
937,0.0363
938,0.0322
939,0.0277
940,0.0258
941,0.0229
942,0.0228
943,0.0194
944,0.0173
945,0.0197
946,0.0177
947,0.0288
