382,NaN
383,0.3331
384,1.0000
385,1.0000
386,0.0000
387,0.2080
388,0.0517
389,0.3970
390,0.0000
391,0.2127
392,0.3069
393,0.0100
394,0.1163
395,0.1234
396,0.2633
397,0.0211
398,0.0038
399,0.1192
400,0.2269
401,0.2814
402,0.0000
403,0.0953
404,0.0703
405,0.1393
406,0.1944
407,0.0761
408,0.1619
409,0.0966
410,0.1218
411,0.1428
412,0.1861
413,0.1277
414,0.1081
415,0.1148
416,0.0803
417,0.1524
418,0.0513
419,0.0906
420,0.1017
421,0.1046
422,0.0975
423,0.1048
424,0.0557
425,0.0843
426,0.1279
427,0.1336
428,0.0845
429,0.1383
430,0.1422
431,0.1359
432,0.1169
433,0.1046
434,0.1411
435,0.1389
436,0.1390
437,0.1690
438,0.1201
439,0.1468
440,0.1406
441,0.1469
442,0.1526
443,0.1434
444,0.1348
445,0.1576
446,0.1223
447,0.1726
448,0.1141
449,0.1492
450,0.1475
451,0.1104
452,0.1393
453,0.1531
454,0.1478
455,0.1746
456,0.1461
457,0.1483
458,0.1355
459,0.1397
460,0.1337
461,0.1569
462,0.1702
463,0.1620
464,0.1505
465,0.1471
466,0.1547
467,0.1579
468,0.1788
469,0.1783
470,0.1608
471,0.1719
472,0.1881
473,0.1865
474,0.1869
475,0.1992
476,0.1928
477,0.2062
478,0.2032
479,0.2252
480,0.2208
481,0.2239
482,0.2319
483,0.2448
484,0.2327
485,0.2389
486,0.2386
487,0.2648
488,0.2566
489,0.2452
490,0.2539
491,0.2512
492,0.2600
493,0.2617
494,0.2593
495,0.2580
496,0.2585
497,0.2455
498,0.2561
499,0.2350
500,0.2463
501,0.2415
502,0.2339
503,0.2254
504,0.2214
505,0.2148
506,0.2147
507,0.2087
508,0.2054
509,0.1978
510,0.1955
511,0.1848
512,0.1771
513,0.1761
514,0.1738
515,0.1686
516,0.1669
517,0.1595
518,0.1561
519,0.1530
520,0.1502
521,0.1415
522,0.1424
523,0.1401
524,0.1420
525,0.1411
526,0.1371
527,0.1368
528,0.1359
529,0.1340
530,0.1325
531,0.1298
532,0.1335
533,0.1279
534,0.1312
535,0.1284
536,0.1299
537,0.1255
538,0.1279
539,0.1266
540,0.1270
541,0.1252
542,0.1236
543,0.1253
544,0.1259
545,0.1260
546,0.1260
547,0.1262
548,0.1239
549,0.1265
550,0.1232
551,0.1246
552,0.1265
553,0.1279
554,0.1261
555,0.1237
556,0.1235
557,0.1246
558,0.1252
559,0.1261
560,0.1247
561,0.1247
562,0.1275
563,0.1258
564,0.1250
565,0.1261
566,0.1221
567,0.1237
568,0.1266
569,0.1248
570,0.1255
571,0.1265
572,0.1259
573,0.1249
574,0.1259
575,0.1247
576,0.1250
577,0.1239
578,0.1227
579,0.1246
580,0.1251
581,0.1217
582,0.1201
583,0.1215
584,0.1222
585,0.1184
586,0.1197
587,0.1195
588,0.1169
589,0.1160
590,0.1174
591,0.1161
592,0.1162
593,0.1149
594,0.1148
595,0.1153
596,0.1149
597,0.1144
598,0.1126
599,0.1134
600,0.1132
601,0.1133
602,0.1131
603,0.1129
604,0.1118
605,0.1122
606,0.1136
607,0.1124
608,0.1115
609,0.1124
610,0.1121
611,0.1119
612,0.1126
613,0.1128
614,0.1133
615,0.1127
616,0.1105
617,0.1116
618,0.1130
619,0.1128
620,0.1133
621,0.1140
622,0.1139
623,0.1138
624,0.1135
625,0.1140
626,0.1131
627,0.1135
628,0.1128
629,0.1125
630,0.1129
631,0.1123
632,0.1107
633,0.1110
634,0.1083
635,0.1081
636,0.1090
637,0.1100
638,0.1085
639,0.1093
640,0.1105
641,0.1100
642,0.1096
643,0.1092
644,0.1085
645,0.1085
646,0.1085
647,0.1073
648,0.1083
649,0.1046
650,0.1054
651,0.1050
652,0.1048
653,0.1036
654,0.1045
655,0.1016
656,0.1030
657,0.1024
658,0.1022
659,0.1026
660,0.1016
661,0.1005
662,0.1008
663,0.1008
664,0.1000
665,0.1010
666,0.0982
667,0.1004
668,0.1002
669,0.0994
670,0.0999
671,0.0997
672,0.0978
673,0.0992
674,0.0985
675,0.1004
676,0.0988
677,0.0982
678,0.0987
679,0.0971
680,0.0972
681,0.0978
682,0.0982
683,0.0976
684,0.0979
685,0.0975
686,0.0975
687,0.0965
688,0.0977
689,0.0977
690,0.0972
691,0.0984
692,0.0969
693,0.0966
694,0.0966
695,0.0977
696,0.0983
697,0.0993
698,0.0980
699,0.0973
700,0.0981
701,0.0971
702,0.0968
703,0.0971
704,0.0961
705,0.0960
706,0.0965
707,0.0953
708,0.0964
709,0.0974
710,0.0953
711,0.0970
712,0.0946
713,0.0954
714,0.0931
715,0.0937
716,0.0934
717,0.0927
718,0.0934
719,0.0913
720,0.0896
721,0.0879
722,0.0880
723,0.0889
724,0.0856
725,0.0864
726,0.0856
727,0.0866
728,0.0852
729,0.0827
730,0.0849
731,0.0850
732,0.0850
733,0.0836
734,0.0842
735,0.0850
736,0.0846
737,0.0841
738,0.0835
739,0.0838
740,0.0838
741,0.0837
742,0.0827
743,0.0827
744,0.0834
745,0.0834
746,0.0829
747,0.0818
748,0.0836
749,0.0812
750,0.0820
751,0.0818
752,0.0831
753,0.0838
754,0.0837
755,0.0850
756,0.0836
757,0.0843
758,0.0832
759,0.0839
760,0.0827
761,0.0819
762,0.0809
763,0.0826
764,0.0831
765,0.0822
766,0.0813
767,0.0806
768,0.0807
769,0.0795
770,0.0784
771,0.0795
772,0.0790
773,0.0781
774,0.0797
775,0.0788
776,0.0786
777,0.0766
778,0.0778
779,0.0791
780,0.0785
781,0.0796
782,0.0777
783,0.0781
784,0.0766
785,0.0759
786,0.0769
787,0.0775
788,0.0785
789,0.0775
790,0.0753
791,0.0761
792,0.0753
793,0.0747
794,0.0749
795,0.0758
796,0.0743
797,0.0764
798,0.0746
799,0.0777
800,0.0783
801,0.0777
802,0.0783
803,0.0797
804,0.0790
805,0.0784
806,0.0816
807,0.0794
808,0.0807
809,0.0805
810,0.0837
811,0.0804
812,0.0817
813,0.0823
814,0.0817
815,0.0823
816,0.0832
817,0.0829
818,0.0827
819,0.0826
820,0.0833
821,0.0857
822,0.0839
823,0.0819
824,0.0835
825,0.0817
826,0.0823
827,0.0807
828,0.0806
829,0.0796
830,0.0804
831,0.0805
832,0.0764
833,0.0754
834,0.0755
835,0.0750
836,0.0743
837,0.0748
838,0.0742
839,0.0709
840,0.0710
841,0.0707
842,0.0711
843,0.0686
844,0.0691
845,0.0668
846,0.0701
847,0.0678
848,0.0678
849,0.0672
850,0.0650
851,0.0650
852,0.0645
853,0.0655
854,0.0662
855,0.0660
856,0.0639
857,0.0648
858,0.0657
859,0.0642
860,0.0635
861,0.0652
862,0.0644
863,0.0662
864,0.0638
865,0.0620
866,0.0647
867,0.0632
868,0.0623
869,0.0593
870,0.0618
871,0.0620
872,0.0603
873,0.0579
874,0.0589
875,0.0596
876,0.0600
877,0.0612
878,0.0616
879,0.0606
880,0.0594
881,0.0588
882,0.0613
883,0.0603
884,0.0631
885,0.0642
886,0.0639
887,0.0647
888,0.0646
889,0.0663
890,0.0680
891,0.0678
892,0.0714
893,0.0723
894,0.0709
895,0.0694
896,0.0738
897,0.0728
898,0.0753
899,0.0726
900,0.0759
901,0.0746
902,0.0724
903,0.0766
904,0.0797
905,0.0794
906,0.0808
907,0.0825
908,0.0801
909,0.0813
910,0.0825
911,0.0750
912,0.0761
913,0.0744
914,0.0732
915,0.0735
916,0.0735
917,0.0682
918,0.0688
919,0.0671
920,0.0672
921,0.0616
922,0.0595
923,0.0583
924,0.0587
925,0.0569
926,0.0518
927,0.0547
928,0.0511
929,0.0517
930,0.0495
931,0.0467
932,0.0456
933,0.0436
934,0.0404
935,0.0385
936,0.0338
937,0.0308
938,0.0277
939,0.0226
940,0.0215
941,0.0190
942,0.0163
943,0.0149
944,0.0154
945,0.0167
946,0.0171
947,0.0179
