382,NaN
383,0.3294
384,0.1717
385,1.0000
386,0.0153
387,0.3715
388,0.2282
389,0.1962
390,0.2475
391,0.2377
392,0.2595
393,0.1858
394,0.0447
395,0.0710
396,0.2649
397,0.0000
398,0.1456
399,0.0450
400,0.0000
401,0.1447
402,0.0000
403,0.0543
404,0.1278
405,0.0000
406,0.0634
407,0.1181
408,0.0846
409,0.0985
410,0.1442
411,0.1213
412,0.1372
413,0.0765
414,0.0915
415,0.0754
416,0.1066
417,0.1217
418,0.0476
419,0.0604
420,0.0774
421,0.0000
422,0.0338
423,0.0858
424,0.0566
425,0.0378
426,0.0755
427,0.0674
428,0.0188
429,0.0447
430,0.0567
431,0.0698
432,0.0620
433,0.0541
434,0.0589
435,0.0619
436,0.0575
437,0.0824
438,0.0702
439,0.0149
440,0.0583
441,0.0823
442,0.0610
443,0.0793
444,0.0526
445,0.0633
446,0.0431
447,0.0501
448,0.0399
449,0.0671
450,0.0460
451,0.0363
452,0.0396
453,0.0595
454,0.0472
455,0.0590
456,0.0521
457,0.0541
458,0.0443
459,0.0539
460,0.0512
461,0.0604
462,0.0512
463,0.0615
464,0.0517
465,0.0500
466,0.0645
467,0.0438
468,0.0700
469,0.0725
470,0.0582
471,0.0506
472,0.0735
473,0.0673
474,0.0702
475,0.0664
476,0.0650
477,0.0724
478,0.0703
479,0.0770
480,0.0733
481,0.0762
482,0.0653
483,0.0779
484,0.0714
485,0.0827
486,0.0820
487,0.0807
488,0.0784
489,0.0698
490,0.0849
491,0.0765
492,0.0789
493,0.0888
494,0.0749
495,0.0803
496,0.0822
497,0.0772
498,0.0789
499,0.0725
500,0.0716
501,0.0747
502,0.0738
503,0.0629
504,0.0664
505,0.0618
506,0.0643
507,0.0663
508,0.0619
509,0.0631
510,0.0626
511,0.0565
512,0.0564
513,0.0534
514,0.0524
515,0.0525
516,0.0503
517,0.0526
518,0.0474
519,0.0458
520,0.0487
521,0.0448
522,0.0404
523,0.0426
524,0.0441
525,0.0437
526,0.0425
527,0.0432
528,0.0427
529,0.0419
530,0.0398
531,0.0412
532,0.0410
533,0.0400
534,0.0417
535,0.0384
536,0.0408
537,0.0403
538,0.0397
539,0.0395
540,0.0405
541,0.0395
542,0.0386
543,0.0390
544,0.0398
545,0.0388
546,0.0396
547,0.0413
548,0.0386
549,0.0382
550,0.0376
551,0.0374
552,0.0394
553,0.0382
554,0.0391
555,0.0377
556,0.0388
557,0.0399
558,0.0385
559,0.0388
560,0.0382
561,0.0380
562,0.0382
563,0.0396
564,0.0398
565,0.0402
566,0.0382
567,0.0383
568,0.0393
569,0.0409
570,0.0398
571,0.0394
572,0.0398
573,0.0409
574,0.0401
575,0.0391
576,0.0385
577,0.0402
578,0.0375
579,0.0394
580,0.0391
581,0.0387
582,0.0374
583,0.0365
584,0.0369
585,0.0371
586,0.0375
587,0.0377
588,0.0365
589,0.0358
590,0.0378
591,0.0374
592,0.0371
593,0.0363
594,0.0369
595,0.0361
596,0.0362
597,0.0362
598,0.0358
599,0.0358
600,0.0360
601,0.0339
602,0.0363
603,0.0351
604,0.0366
605,0.0353
606,0.0348
607,0.0358
608,0.0364
609,0.0354
610,0.0353
611,0.0355
612,0.0357
613,0.0354
614,0.0361
615,0.0355
616,0.0351
617,0.0351
618,0.0342
619,0.0358
620,0.0346
621,0.0355
622,0.0357
623,0.0372
624,0.0363
625,0.0364
626,0.0360
627,0.0358
628,0.0361
629,0.0357
630,0.0356
631,0.0359
632,0.0360
633,0.0354
634,0.0352
635,0.0348
636,0.0357
637,0.0355
638,0.0344
639,0.0344
640,0.0364
641,0.0352
642,0.0351
643,0.0335
644,0.0350
645,0.0351
646,0.0350
647,0.0335
648,0.0346
649,0.0343
650,0.0334
651,0.0344
652,0.0345
653,0.0333
654,0.0335
655,0.0336
656,0.0319
657,0.0328
658,0.0323
659,0.0318
660,0.0326
661,0.0318
662,0.0323
663,0.0331
664,0.0322
665,0.0320
666,0.0320
667,0.0317
668,0.0314
669,0.0319
670,0.0319
671,0.0325
672,0.0316
673,0.0323
674,0.0313
675,0.0319
676,0.0315
677,0.0316
678,0.0319
679,0.0306
680,0.0314
681,0.0309
682,0.0322
683,0.0309
684,0.0323
685,0.0311
686,0.0312
687,0.0308
688,0.0316
689,0.0319
690,0.0315
691,0.0311
692,0.0312
693,0.0319
694,0.0311
695,0.0316
696,0.0313
697,0.0324
698,0.0315
699,0.0316
700,0.0324
701,0.0316
702,0.0314
703,0.0319
704,0.0312
705,0.0313
706,0.0311
707,0.0305
708,0.0310
709,0.0318
710,0.0313
711,0.0311
712,0.0304
713,0.0315
714,0.0303
715,0.0308
716,0.0312
717,0.0303
718,0.0298
719,0.0299
720,0.0295
721,0.0283
722,0.0274
723,0.0283
724,0.0281
725,0.0281
726,0.0278
727,0.0279
728,0.0273
729,0.0274
730,0.0272
731,0.0268
732,0.0284
733,0.0269
734,0.0265
735,0.0273
736,0.0271
737,0.0275
738,0.0266
739,0.0269
740,0.0261
741,0.0270
742,0.0270
743,0.0259
744,0.0268
745,0.0274
746,0.0271
747,0.0264
748,0.0264
749,0.0258
750,0.0260
751,0.0277
752,0.0271
753,0.0282
754,0.0274
755,0.0274
756,0.0268
757,0.0271
758,0.0269
759,0.0272
760,0.0270
761,0.0274
762,0.0270
763,0.0280
764,0.0270
765,0.0267
766,0.0267
767,0.0256
768,0.0269
769,0.0256
770,0.0255
771,0.0262
772,0.0274
773,0.0266
774,0.0268
775,0.0264
776,0.0262
777,0.0268
778,0.0259
779,0.0266
780,0.0257
781,0.0261
782,0.0255
783,0.0254
784,0.0254
785,0.0268
786,0.0257
787,0.0258
788,0.0267
789,0.0253
790,0.0265
791,0.0246
792,0.0254
793,0.0248
794,0.0254
795,0.0263
796,0.0257
797,0.0264
798,0.0250
799,0.0257
800,0.0263
801,0.0260
802,0.0256
803,0.0267
804,0.0272
805,0.0265
806,0.0260
807,0.0275
808,0.0273
809,0.0279
810,0.0288
811,0.0274
812,0.0282
813,0.0285
814,0.0275
815,0.0287
816,0.0295
817,0.0282
818,0.0282
819,0.0308
820,0.0303
821,0.0294
822,0.0282
823,0.0289
824,0.0285
825,0.0294
826,0.0284
827,0.0280
828,0.0271
829,0.0275
830,0.0271
831,0.0272
832,0.0278
833,0.0275
834,0.0250
835,0.0261
836,0.0260
837,0.0262
838,0.0254
839,0.0239
840,0.0240
841,0.0234
842,0.0254
843,0.0226
844,0.0249
845,0.0238
846,0.0229
847,0.0229
848,0.0232
849,0.0221
850,0.0236
851,0.0224
852,0.0237
853,0.0215
854,0.0244
855,0.0234
856,0.0228
857,0.0233
858,0.0221
859,0.0228
860,0.0228
861,0.0226
862,0.0230
863,0.0233
864,0.0221
865,0.0230
866,0.0225
867,0.0225
868,0.0219
869,0.0230
870,0.0226
871,0.0216
872,0.0221
873,0.0207
874,0.0217
875,0.0218
876,0.0206
877,0.0218
878,0.0202
879,0.0227
880,0.0207
881,0.0222
882,0.0234
883,0.0217
884,0.0216
885,0.0216
886,0.0228
887,0.0233
888,0.0235
889,0.0236
890,0.0249
891,0.0231
892,0.0242
893,0.0266
894,0.0246
895,0.0249
896,0.0256
897,0.0247
898,0.0259
899,0.0261
900,0.0277
901,0.0279
902,0.0256
903,0.0244
904,0.0275
905,0.0281
906,0.0280
907,0.0323
908,0.0295
909,0.0303
910,0.0306
911,0.0267
912,0.0285
913,0.0284
914,0.0278
915,0.0260
916,0.0274
917,0.0263
918,0.0232
919,0.0237
920,0.0228
921,0.0213
922,0.0201
923,0.0215
924,0.0227
925,0.0196
926,0.0208
927,0.0204
928,0.0175
929,0.0189
930,0.0171
931,0.0158
932,0.0147
933,0.0127
934,0.0135
935,0.0120
936,0.0095
937,0.0102
938,0.0092
939,0.0088
940,0.0052
941,0.0048
942,0.0046
943,0.0036
944,0.0054
945,0.0042
946,0.0044
947,0.0059
