382,NaN
383,0.2169
384,1.0000
385,1.0000
386,0.0000
387,0.2037
388,0.0846
389,0.2322
390,0.0615
391,0.1539
392,0.2317
393,0.2478
394,0.0000
395,0.0423
396,0.1659
397,0.0000
398,0.0000
399,0.0522
400,0.0666
401,0.2819
402,0.0000
403,0.0439
404,0.2114
405,0.0822
406,0.0000
407,0.1071
408,0.0338
409,0.0088
410,0.0973
411,0.0883
412,0.1185
413,0.0733
414,0.0504
415,0.0621
416,0.0131
417,0.1051
418,0.0286
419,0.0873
420,0.0650
421,0.0496
422,0.0432
423,0.0548
424,0.0000
425,0.0747
426,0.0652
427,0.0657
428,0.0272
429,0.0326
430,0.0647
431,0.0471
432,0.0311
433,0.0370
434,0.0245
435,0.0466
436,0.0555
437,0.0785
438,0.0728
439,0.0396
440,0.0699
441,0.0842
442,0.0603
443,0.0877
444,0.0703
445,0.0750
446,0.0679
447,0.0640
448,0.0506
449,0.0744
450,0.0705
451,0.0616
452,0.0490
453,0.0678
454,0.0581
455,0.0570
456,0.0516
457,0.0581
458,0.0574
459,0.0518
460,0.0566
461,0.0642
462,0.0572
463,0.0737
464,0.0537
465,0.0466
466,0.0530
467,0.0604
468,0.0750
469,0.0629
470,0.0529
471,0.0580
472,0.0670
473,0.0667
474,0.0707
475,0.0664
476,0.0740
477,0.0742
478,0.0658
479,0.0829
480,0.0700
481,0.0732
482,0.0714
483,0.0749
484,0.0694
485,0.0816
486,0.0744
487,0.0853
488,0.0764
489,0.0757
490,0.0783
491,0.0794
492,0.0797
493,0.0855
494,0.0812
495,0.0838
496,0.0793
497,0.0775
498,0.0780
499,0.0736
500,0.0739
501,0.0743
502,0.0748
503,0.0710
504,0.0655
505,0.0621
506,0.0661
507,0.0646
508,0.0631
509,0.0640
510,0.0595
511,0.0562
512,0.0588
513,0.0546
514,0.0517
515,0.0517
516,0.0488
517,0.0529
518,0.0459
519,0.0481
520,0.0488
521,0.0442
522,0.0441
523,0.0445
524,0.0442
525,0.0432
526,0.0427
527,0.0441
528,0.0426
529,0.0405
530,0.0416
531,0.0420
532,0.0403
533,0.0398
534,0.0414
535,0.0397
536,0.0420
537,0.0391
538,0.0395
539,0.0395
540,0.0399
541,0.0400
542,0.0401
543,0.0409
544,0.0397
545,0.0399
546,0.0426
547,0.0408
548,0.0399
549,0.0367
550,0.0402
551,0.0396
552,0.0388
553,0.0405
554,0.0399
555,0.0394
556,0.0400
557,0.0397
558,0.0397
559,0.0396
560,0.0402
561,0.0389
562,0.0397
563,0.0407
564,0.0393
565,0.0387
566,0.0368
567,0.0391
568,0.0394
569,0.0407
570,0.0420
571,0.0416
572,0.0397
573,0.0393
574,0.0394
575,0.0400
576,0.0401
577,0.0405
578,0.0388
579,0.0395
580,0.0396
581,0.0395
582,0.0384
583,0.0383
584,0.0386
585,0.0386
586,0.0382
587,0.0373
588,0.0373
589,0.0369
590,0.0384
591,0.0365
592,0.0364
593,0.0364
594,0.0367
595,0.0377
596,0.0374
597,0.0367
598,0.0371
599,0.0365
600,0.0371
601,0.0358
602,0.0365
603,0.0360
604,0.0358
605,0.0364
606,0.0350
607,0.0363
608,0.0369
609,0.0369
610,0.0355
611,0.0354
612,0.0365
613,0.0362
614,0.0361
615,0.0367
616,0.0353
617,0.0356
618,0.0360
619,0.0367
620,0.0359
621,0.0358
622,0.0365
623,0.0371
624,0.0371
625,0.0363
626,0.0370
627,0.0374
628,0.0373
629,0.0367
630,0.0360
631,0.0364
632,0.0351
633,0.0352
634,0.0357
635,0.0352
636,0.0354
637,0.0350
638,0.0348
639,0.0352
640,0.0359
641,0.0363
642,0.0352
643,0.0353
644,0.0350
645,0.0346
646,0.0356
647,0.0360
648,0.0355
649,0.0345
650,0.0343
651,0.0342
652,0.0343
653,0.0351
654,0.0338
655,0.0336
656,0.0340
657,0.0321
658,0.0333
659,0.0324
660,0.0333
661,0.0324
662,0.0327
663,0.0334
664,0.0324
665,0.0326
666,0.0328
667,0.0333
668,0.0326
669,0.0321
670,0.0331
671,0.0334
672,0.0317
673,0.0324
674,0.0312
675,0.0331
676,0.0327
677,0.0313
678,0.0320
679,0.0318
680,0.0321
681,0.0319
682,0.0325
683,0.0321
684,0.0314
685,0.0317
686,0.0326
687,0.0318
688,0.0326
689,0.0326
690,0.0315
691,0.0326
692,0.0322
693,0.0318
694,0.0321
695,0.0320
696,0.0324
697,0.0333
698,0.0318
699,0.0328
700,0.0323
701,0.0325
702,0.0330
703,0.0322
704,0.0308
705,0.0315
706,0.0319
707,0.0315
708,0.0320
709,0.0324
710,0.0316
711,0.0325
712,0.0309
713,0.0307
714,0.0313
715,0.0308
716,0.0309
717,0.0308
718,0.0307
719,0.0308
720,0.0303
721,0.0289
722,0.0284
723,0.0296
724,0.0285
725,0.0287
726,0.0285
727,0.0287
728,0.0276
729,0.0272
730,0.0278
731,0.0280
732,0.0283
733,0.0278
734,0.0273
735,0.0275
736,0.0275
737,0.0279
738,0.0269
739,0.0264
740,0.0264
741,0.0268
742,0.0271
743,0.0267
744,0.0270
745,0.0274
746,0.0270
747,0.0271
748,0.0282
749,0.0265
750,0.0268
751,0.0267
752,0.0272
753,0.0265
754,0.0271
755,0.0277
756,0.0267
757,0.0283
758,0.0266
759,0.0277
760,0.0272
761,0.0278
762,0.0266
763,0.0280
764,0.0272
765,0.0280
766,0.0270
767,0.0270
768,0.0270
769,0.0267
770,0.0266
771,0.0268
772,0.0262
773,0.0263
774,0.0274
775,0.0270
776,0.0267
777,0.0259
778,0.0269
779,0.0256
780,0.0264
781,0.0266
782,0.0259
783,0.0263
784,0.0252
785,0.0269
786,0.0277
787,0.0252
788,0.0265
789,0.0258
790,0.0266
791,0.0262
792,0.0254
793,0.0252
794,0.0258
795,0.0257
796,0.0260
797,0.0267
798,0.0257
799,0.0260
800,0.0264
801,0.0273
802,0.0267
803,0.0272
804,0.0264
805,0.0261
806,0.0266
807,0.0287
808,0.0279
809,0.0291
810,0.0289
811,0.0282
812,0.0284
813,0.0291
814,0.0288
815,0.0286
816,0.0289
817,0.0289
818,0.0290
819,0.0295
820,0.0303
821,0.0294
822,0.0295
823,0.0292
824,0.0284
825,0.0294
826,0.0283
827,0.0276
828,0.0278
829,0.0270
830,0.0281
831,0.0273
832,0.0269
833,0.0269
834,0.0272
835,0.0257
836,0.0266
837,0.0263
838,0.0252
839,0.0251
840,0.0245
841,0.0249
842,0.0253
843,0.0232
844,0.0239
845,0.0248
846,0.0247
847,0.0235
848,0.0241
849,0.0236
850,0.0233
851,0.0234
852,0.0241
853,0.0222
854,0.0237
855,0.0232
856,0.0216
857,0.0238
858,0.0214
859,0.0232
860,0.0219
861,0.0231
862,0.0228
863,0.0228
864,0.0224
865,0.0223
866,0.0228
867,0.0220
868,0.0212
869,0.0205
870,0.0216
871,0.0207
872,0.0221
873,0.0208
874,0.0202
875,0.0215
876,0.0213
877,0.0220
878,0.0206
879,0.0226
880,0.0211
881,0.0207
882,0.0222
883,0.0213
884,0.0232
885,0.0222
886,0.0228
887,0.0228
888,0.0230
889,0.0226
890,0.0266
891,0.0252
892,0.0252
893,0.0238
894,0.0257
895,0.0277
896,0.0247
897,0.0257
898,0.0243
899,0.0248
900,0.0290
901,0.0288
902,0.0269
903,0.0255
904,0.0293
905,0.0280
906,0.0272
907,0.0310
908,0.0295
909,0.0317
910,0.0294
911,0.0267
912,0.0296
913,0.0257
914,0.0261
915,0.0256
916,0.0272
917,0.0236
918,0.0232
919,0.0247
920,0.0228
921,0.0209
922,0.0205
923,0.0207
924,0.0208
925,0.0183
926,0.0200
927,0.0194
928,0.0164
929,0.0190
930,0.0154
931,0.0179
932,0.0152
933,0.0117
934,0.0138
935,0.0125
936,0.0107
937,0.0086
938,0.0085
939,0.0073
940,0.0070
941,0.0067
942,0.0058
943,0.0034
944,0.0054
945,0.0051
946,0.0035
947,0.0101
