382,NaN
383,0.9991
384,0.0000
385,1.0000
386,1.0000
387,0.1121
388,0.3808
389,0.1858
390,0.0000
391,0.3445
392,0.1574
393,0.1345
394,0.0000
395,0.0156
396,0.0000
397,0.0000
398,0.0009
399,0.1090
400,0.0595
401,0.3557
402,0.0000
403,0.1151
404,0.0421
405,0.1425
406,0.2160
407,0.0600
408,0.0347
409,0.0556
410,0.1760
411,0.0399
412,0.1035
413,0.1444
414,0.0592
415,0.1221
416,0.0278
417,0.0557
418,0.0310
419,0.0366
420,0.0560
421,0.0711
422,0.0474
423,0.0672
424,0.0129
425,0.0573
426,0.1079
427,0.0518
428,0.0301
429,0.0949
430,0.0849
431,0.0462
432,0.0355
433,0.0546
434,0.0481
435,0.0628
436,0.0649
437,0.0780
438,0.0703
439,0.0158
440,0.0585
441,0.0720
442,0.0492
443,0.0812
444,0.0696
445,0.1002
446,0.0563
447,0.0734
448,0.0344
449,0.0732
450,0.0467
451,0.0462
452,0.0594
453,0.0735
454,0.0506
455,0.0656
456,0.0558
457,0.0599
458,0.0582
459,0.0655
460,0.0518
461,0.0697
462,0.0502
463,0.0717
464,0.0541
465,0.0393
466,0.0593
467,0.0413
468,0.0632
469,0.0739
470,0.0547
471,0.0489
472,0.0760
473,0.0576
474,0.0614
475,0.0670
476,0.0589
477,0.0830
478,0.0746
479,0.0812
480,0.0792
481,0.0775
482,0.0711
483,0.0712
484,0.0707
485,0.0832
486,0.0674
487,0.0869
488,0.0768
489,0.0828
490,0.0746
491,0.0803
492,0.0763
493,0.0770
494,0.0846
495,0.0769
496,0.0753
497,0.0723
498,0.0892
499,0.0756
500,0.0766
501,0.0763
502,0.0752
503,0.0687
504,0.0682
505,0.0642
506,0.0712
507,0.0704
508,0.0607
509,0.0661
510,0.0643
511,0.0566
512,0.0574
513,0.0548
514,0.0542
515,0.0536
516,0.0510
517,0.0522
518,0.0470
519,0.0483
520,0.0490
521,0.0449
522,0.0425
523,0.0441
524,0.0457
525,0.0432
526,0.0429
527,0.0439
528,0.0413
529,0.0427
530,0.0422
531,0.0417
532,0.0427
533,0.0413
534,0.0405
535,0.0400
536,0.0421
537,0.0409
538,0.0418
539,0.0389
540,0.0408
541,0.0393
542,0.0414
543,0.0404
544,0.0395
545,0.0396
546,0.0408
547,0.0388
548,0.0410
549,0.0402
550,0.0403
551,0.0389
552,0.0401
553,0.0384
554,0.0393
555,0.0396
556,0.0399
557,0.0392
558,0.0386
559,0.0405
560,0.0403
561,0.0394
562,0.0408
563,0.0402
564,0.0391
565,0.0393
566,0.0390
567,0.0407
568,0.0417
569,0.0408
570,0.0403
571,0.0402
572,0.0398
573,0.0399
574,0.0401
575,0.0389
576,0.0391
577,0.0400
578,0.0388
579,0.0407
580,0.0391
581,0.0397
582,0.0391
583,0.0378
584,0.0383
585,0.0388
586,0.0382
587,0.0376
588,0.0385
589,0.0373
590,0.0383
591,0.0375
592,0.0381
593,0.0369
594,0.0378
595,0.0372
596,0.0375
597,0.0366
598,0.0369
599,0.0359
600,0.0354
601,0.0359
602,0.0366
603,0.0366
604,0.0368
605,0.0359
606,0.0356
607,0.0362
608,0.0370
609,0.0361
610,0.0370
611,0.0367
612,0.0373
613,0.0370
614,0.0360
615,0.0363
616,0.0369
617,0.0355
618,0.0359
619,0.0369
620,0.0360
621,0.0356
622,0.0367
623,0.0370
624,0.0383
625,0.0367
626,0.0361
627,0.0370
628,0.0371
629,0.0367
630,0.0362
631,0.0364
632,0.0355
633,0.0359
634,0.0358
635,0.0358
636,0.0356
637,0.0358
638,0.0347
639,0.0355
640,0.0362
641,0.0360
642,0.0358
643,0.0357
644,0.0351
645,0.0358
646,0.0363
647,0.0346
648,0.0357
649,0.0347
650,0.0350
651,0.0341
652,0.0340
653,0.0341
654,0.0332
655,0.0341
656,0.0342
657,0.0339
658,0.0332
659,0.0329
660,0.0331
661,0.0329
662,0.0332
663,0.0327
664,0.0327
665,0.0331
666,0.0317
667,0.0327
668,0.0330
669,0.0325
670,0.0321
671,0.0344
672,0.0315
673,0.0320
674,0.0310
675,0.0327
676,0.0335
677,0.0317
678,0.0325
679,0.0314
680,0.0318
681,0.0316
682,0.0318
683,0.0328
684,0.0328
685,0.0323
686,0.0319
687,0.0318
688,0.0327
689,0.0321
690,0.0321
691,0.0329
692,0.0323
693,0.0319
694,0.0330
695,0.0324
696,0.0327
697,0.0334
698,0.0324
699,0.0330
700,0.0332
701,0.0334
702,0.0328
703,0.0322
704,0.0313
705,0.0316
706,0.0312
707,0.0320
708,0.0319
709,0.0325
710,0.0310
711,0.0328
712,0.0314
713,0.0322
714,0.0319
715,0.0325
716,0.0309
717,0.0323
718,0.0306
719,0.0312
720,0.0294
721,0.0289
722,0.0277
723,0.0295
724,0.0285
725,0.0289
726,0.0277
727,0.0286
728,0.0283
729,0.0281
730,0.0278
731,0.0276
732,0.0274
733,0.0272
734,0.0274
735,0.0277
736,0.0277
737,0.0281
738,0.0275
739,0.0277
740,0.0267
741,0.0269
742,0.0272
743,0.0270
744,0.0269
745,0.0274
746,0.0282
747,0.0274
748,0.0275
749,0.0263
750,0.0273
751,0.0277
752,0.0274
753,0.0281
754,0.0281
755,0.0281
756,0.0271
757,0.0274
758,0.0271
759,0.0273
760,0.0273
761,0.0269
762,0.0271
763,0.0280
764,0.0268
765,0.0286
766,0.0263
767,0.0271
768,0.0276
769,0.0267
770,0.0271
771,0.0275
772,0.0263
773,0.0272
774,0.0278
775,0.0256
776,0.0271
777,0.0270
778,0.0268
779,0.0278
780,0.0262
781,0.0270
782,0.0259
783,0.0261
784,0.0267
785,0.0261
786,0.0265
787,0.0266
788,0.0274
789,0.0267
790,0.0259
791,0.0256
792,0.0268
793,0.0257
794,0.0257
795,0.0252
796,0.0264
797,0.0265
798,0.0260
799,0.0266
800,0.0261
801,0.0270
802,0.0265
803,0.0280
804,0.0271
805,0.0267
806,0.0271
807,0.0286
808,0.0286
809,0.0280
810,0.0287
811,0.0280
812,0.0284
813,0.0280
814,0.0280
815,0.0289
816,0.0284
817,0.0288
818,0.0283
819,0.0288
820,0.0304
821,0.0295
822,0.0300
823,0.0285
824,0.0281
825,0.0283
826,0.0280
827,0.0284
828,0.0277
829,0.0284
830,0.0288
831,0.0283
832,0.0266
833,0.0263
834,0.0262
835,0.0263
836,0.0261
837,0.0255
838,0.0253
839,0.0261
840,0.0235
841,0.0246
842,0.0253
843,0.0230
844,0.0245
845,0.0235
846,0.0239
847,0.0244
848,0.0231
849,0.0236
850,0.0235
851,0.0233
852,0.0235
853,0.0242
854,0.0238
855,0.0236
856,0.0236
857,0.0237
858,0.0222
859,0.0225
860,0.0225
861,0.0236
862,0.0231
863,0.0241
864,0.0231
865,0.0232
866,0.0225
867,0.0229
868,0.0228
869,0.0215
870,0.0210
871,0.0213
872,0.0216
873,0.0210
874,0.0215
875,0.0208
876,0.0219
877,0.0210
878,0.0214
879,0.0212
880,0.0218
881,0.0221
882,0.0232
883,0.0224
884,0.0217
885,0.0233
886,0.0244
887,0.0238
888,0.0226
889,0.0233
890,0.0273
891,0.0245
892,0.0248
893,0.0269
894,0.0259
895,0.0253
896,0.0267
897,0.0267
898,0.0268
899,0.0291
900,0.0288
901,0.0271
902,0.0273
903,0.0261
904,0.0292
905,0.0285
906,0.0289
907,0.0314
908,0.0311
909,0.0282
910,0.0279
911,0.0264
912,0.0280
913,0.0259
914,0.0278
915,0.0274
916,0.0267
917,0.0246
918,0.0245
919,0.0226
920,0.0265
921,0.0211
922,0.0229
923,0.0201
924,0.0210
925,0.0195
926,0.0183
927,0.0171
928,0.0172
929,0.0194
930,0.0164
931,0.0154
932,0.0156
933,0.0116
934,0.0135
935,0.0142
936,0.0078
937,0.0067
938,0.0091
939,0.0081
940,0.0078
941,0.0052
942,0.0040
943,0.0041
944,0.0053
945,0.0058
946,0.0029
947,0.0116
