382,NaN
383,1.0000
384,0.5805
385,0.0000
386,0.0000
387,0.3333
388,0.1877
389,0.2820
390,0.0390
391,0.1430
392,0.2319
393,0.2182
394,0.0500
395,0.0000
396,0.1571
397,0.0627
398,0.0965
399,0.1542
400,0.1118
401,0.2907
402,0.0000
403,0.1754
404,0.0816
405,0.0092
406,0.0213
407,0.1501
408,0.1023
409,0.0000
410,0.1027
411,0.0829
412,0.0515
413,0.0410
414,0.0726
415,0.1213
416,0.0287
417,0.0365
418,0.0424
419,0.0639
420,0.0555
421,0.0821
422,0.0363
423,0.0829
424,0.0390
425,0.0674
426,0.0960
427,0.0301
428,0.0549
429,0.0603
430,0.0807
431,0.0765
432,0.0724
433,0.0558
434,0.0561
435,0.0643
436,0.0691
437,0.0713
438,0.0743
439,0.0623
440,0.0688
441,0.0622
442,0.0430
443,0.0969
444,0.0690
445,0.0495
446,0.0659
447,0.0648
448,0.0781
449,0.0641
450,0.0523
451,0.0362
452,0.0325
453,0.0698
454,0.0562
455,0.0658
456,0.0662
457,0.0580
458,0.0629
459,0.0443
460,0.0608
461,0.0662
462,0.0521
463,0.0724
464,0.0619
465,0.0506
466,0.0560
467,0.0479
468,0.0617
469,0.0626
470,0.0556
471,0.0451
472,0.0704
473,0.0589
474,0.0551
475,0.0660
476,0.0641
477,0.0795
478,0.0654
479,0.0852
480,0.0819
481,0.0731
482,0.0760
483,0.0740
484,0.0766
485,0.0897
486,0.0725
487,0.0800
488,0.0808
489,0.0846
490,0.0829
491,0.0765
492,0.0783
493,0.0862
494,0.0762
495,0.0766
496,0.0810
497,0.0780
498,0.0774
499,0.0714
500,0.0764
501,0.0747
502,0.0774
503,0.0670
504,0.0690
505,0.0640
506,0.0657
507,0.0637
508,0.0619
509,0.0644
510,0.0623
511,0.0560
512,0.0591
513,0.0563
514,0.0538
515,0.0539
516,0.0503
517,0.0505
518,0.0467
519,0.0498
520,0.0490
521,0.0449
522,0.0462
523,0.0422
524,0.0474
525,0.0424
526,0.0425
527,0.0429
528,0.0426
529,0.0418
530,0.0428
531,0.0390
532,0.0414
533,0.0385
534,0.0419
535,0.0389
536,0.0417
537,0.0407
538,0.0411
539,0.0392
540,0.0415
541,0.0405
542,0.0406
543,0.0394
544,0.0410
545,0.0397
546,0.0422
547,0.0406
548,0.0404
549,0.0390
550,0.0406
551,0.0392
552,0.0397
553,0.0405
554,0.0406
555,0.0397
556,0.0408
557,0.0417
558,0.0411
559,0.0402
560,0.0400
561,0.0394
562,0.0389
563,0.0411
564,0.0390
565,0.0392
566,0.0385
567,0.0396
568,0.0411
569,0.0402
570,0.0406
571,0.0405
572,0.0397
573,0.0408
574,0.0404
575,0.0400
576,0.0404
577,0.0399
578,0.0394
579,0.0404
580,0.0388
581,0.0386
582,0.0397
583,0.0380
584,0.0388
585,0.0377
586,0.0390
587,0.0379
588,0.0385
589,0.0367
590,0.0382
591,0.0374
592,0.0375
593,0.0372
594,0.0380
595,0.0374
596,0.0372
597,0.0365
598,0.0364
599,0.0368
600,0.0363
601,0.0366
602,0.0372
603,0.0359
604,0.0363
605,0.0364
606,0.0355
607,0.0363
608,0.0363
609,0.0373
610,0.0361
611,0.0357
612,0.0362
613,0.0363
614,0.0364
615,0.0373
616,0.0362
617,0.0355
618,0.0360
619,0.0360
620,0.0361
621,0.0368
622,0.0375
623,0.0377
624,0.0369
625,0.0368
626,0.0367
627,0.0371
628,0.0375
629,0.0377
630,0.0366
631,0.0368
632,0.0357
633,0.0363
634,0.0355
635,0.0357
636,0.0363
637,0.0357
638,0.0357
639,0.0362
640,0.0360
641,0.0358
642,0.0356
643,0.0353
644,0.0359
645,0.0356
646,0.0355
647,0.0356
648,0.0358
649,0.0346
650,0.0351
651,0.0349
652,0.0347
653,0.0343
654,0.0334
655,0.0344
656,0.0333
657,0.0334
658,0.0334
659,0.0330
660,0.0333
661,0.0330
662,0.0327
663,0.0352
664,0.0334
665,0.0339
666,0.0322
667,0.0324
668,0.0325
669,0.0327
670,0.0332
671,0.0327
672,0.0322
673,0.0323
674,0.0317
675,0.0329
676,0.0330
677,0.0315
678,0.0327
679,0.0315
680,0.0313
681,0.0323
682,0.0322
683,0.0323
684,0.0324
685,0.0324
686,0.0331
687,0.0320
688,0.0323
689,0.0328
690,0.0327
691,0.0326
692,0.0323
693,0.0327
694,0.0325
695,0.0329
696,0.0321
697,0.0329
698,0.0327
699,0.0324
700,0.0331
701,0.0325
702,0.0320
703,0.0322
704,0.0318
705,0.0316
706,0.0316
707,0.0321
708,0.0316
709,0.0323
710,0.0332
711,0.0316
712,0.0314
713,0.0317
714,0.0309
715,0.0318
716,0.0317
717,0.0308
718,0.0310
719,0.0308
720,0.0303
721,0.0299
722,0.0282
723,0.0293
724,0.0289
725,0.0284
726,0.0278
727,0.0299
728,0.0276
729,0.0275
730,0.0282
731,0.0273
732,0.0279
733,0.0278
734,0.0266
735,0.0279
736,0.0277
737,0.0280
738,0.0282
739,0.0264
740,0.0270
741,0.0280
742,0.0264
743,0.0264
744,0.0270
745,0.0277
746,0.0271
747,0.0269
748,0.0275
749,0.0263
750,0.0263
751,0.0277
752,0.0275
753,0.0278
754,0.0273
755,0.0273
756,0.0271
757,0.0283
758,0.0267
759,0.0279
760,0.0288
761,0.0273
762,0.0274
763,0.0276
764,0.0278
765,0.0278
766,0.0269
767,0.0266
768,0.0279
769,0.0271
770,0.0260
771,0.0270
772,0.0264
773,0.0268
774,0.0286
775,0.0269
776,0.0268
777,0.0274
778,0.0264
779,0.0275
780,0.0262
781,0.0271
782,0.0266
783,0.0268
784,0.0271
785,0.0263
786,0.0262
787,0.0264
788,0.0267
789,0.0258
790,0.0266
791,0.0261
792,0.0260
793,0.0259
794,0.0263
795,0.0264
796,0.0248
797,0.0274
798,0.0268
799,0.0267
800,0.0282
801,0.0272
802,0.0260
803,0.0273
804,0.0280
805,0.0270
806,0.0275
807,0.0287
808,0.0288
809,0.0274
810,0.0299
811,0.0278
812,0.0272
813,0.0298
814,0.0281
815,0.0281
816,0.0288
817,0.0279
818,0.0289
819,0.0300
820,0.0306
821,0.0307
822,0.0297
823,0.0300
824,0.0276
825,0.0285
826,0.0280
827,0.0280
828,0.0268
829,0.0287
830,0.0270
831,0.0277
832,0.0275
833,0.0263
834,0.0246
835,0.0271
836,0.0254
837,0.0258
838,0.0259
839,0.0243
840,0.0254
841,0.0237
842,0.0263
843,0.0243
844,0.0241
845,0.0240
846,0.0240
847,0.0238
848,0.0238
849,0.0247
850,0.0233
851,0.0238
852,0.0235
853,0.0232
854,0.0231
855,0.0232
856,0.0230
857,0.0235
858,0.0236
859,0.0202
860,0.0215
861,0.0229
862,0.0225
863,0.0236
864,0.0216
865,0.0225
866,0.0236
867,0.0225
868,0.0212
869,0.0204
870,0.0214
871,0.0226
872,0.0225
873,0.0213
874,0.0222
875,0.0213
876,0.0222
877,0.0233
878,0.0216
879,0.0227
880,0.0222
881,0.0211
882,0.0210
883,0.0226
884,0.0211
885,0.0235
886,0.0224
887,0.0237
888,0.0227
889,0.0222
890,0.0264
891,0.0234
892,0.0259
893,0.0276
894,0.0262
895,0.0266
896,0.0269
897,0.0285
898,0.0280
899,0.0273
900,0.0295
901,0.0296
902,0.0263
903,0.0263
904,0.0289
905,0.0308
906,0.0278
907,0.0310
908,0.0294
909,0.0303
910,0.0323
911,0.0278
912,0.0272
913,0.0262
914,0.0273
915,0.0263
916,0.0291
917,0.0250
918,0.0240
919,0.0254
920,0.0245
921,0.0218
922,0.0214
923,0.0206
924,0.0221
925,0.0215
926,0.0194
927,0.0187
928,0.0168
929,0.0189
930,0.0160
931,0.0149
932,0.0154
933,0.0136
934,0.0142
935,0.0126
936,0.0110
937,0.0081
938,0.0079
939,0.0063
940,0.0065
941,0.0053
942,0.0048
943,0.0052
944,0.0039
945,0.0048
946,0.0052
947,0.0125
