382,NaN
383,0.8920
384,0.4092
385,1.0000
386,0.0000
387,0.1582
388,0.2078
389,0.0521
390,0.0000
391,0.2033
392,0.1495
393,0.0331
394,0.0240
395,0.0038
396,0.2660
397,0.0000
398,0.0916
399,0.1299
400,0.0000
401,0.3163
402,0.0115
403,0.2221
404,0.1606
405,0.0452
406,0.0792
407,0.0794
408,0.0401
409,0.0656
410,0.1288
411,0.0918
412,0.1486
413,0.1056
414,0.0955
415,0.0647
416,0.0865
417,0.1212
418,0.0124
419,0.0259
420,0.0423
421,0.0553
422,0.0133
423,0.0344
424,0.0285
425,0.0051
426,0.0930
427,0.0114
428,0.0677
429,0.0313
430,0.0585
431,0.0906
432,0.0522
433,0.0471
434,0.0761
435,0.0399
436,0.0784
437,0.0720
438,0.0877
439,0.0448
440,0.0941
441,0.0888
442,0.0795
443,0.0948
444,0.0742
445,0.0739
446,0.0824
447,0.0722
448,0.0318
449,0.0840
450,0.0605
451,0.0469
452,0.0382
453,0.0829
454,0.0527
455,0.0572
456,0.0586
457,0.0504
458,0.0564
459,0.0544
460,0.0501
461,0.0594
462,0.0448
463,0.0702
464,0.0547
465,0.0505
466,0.0649
467,0.0474
468,0.0592
469,0.0677
470,0.0582
471,0.0601
472,0.0675
473,0.0545
474,0.0641
475,0.0705
476,0.0653
477,0.0765
478,0.0706
479,0.0780
480,0.0737
481,0.0704
482,0.0740
483,0.0816
484,0.0686
485,0.0861
486,0.0769
487,0.0844
488,0.0831
489,0.0745
490,0.0865
491,0.0871
492,0.0828
493,0.0830
494,0.0826
495,0.0779
496,0.0800
497,0.0780
498,0.0788
499,0.0735
500,0.0748
501,0.0713
502,0.0737
503,0.0716
504,0.0676
505,0.0596
506,0.0697
507,0.0647
508,0.0644
509,0.0643
510,0.0616
511,0.0548
512,0.0596
513,0.0543
514,0.0544
515,0.0520
516,0.0505
517,0.0529
518,0.0475
519,0.0473
520,0.0474
521,0.0447
522,0.0467
523,0.0439
524,0.0460
525,0.0449
526,0.0430
527,0.0458
528,0.0417
529,0.0434
530,0.0420
531,0.0416
532,0.0417
533,0.0400
534,0.0416
535,0.0404
536,0.0418
537,0.0408
538,0.0388
539,0.0413
540,0.0397
541,0.0399
542,0.0403
543,0.0404
544,0.0397
545,0.0384
546,0.0401
547,0.0400
548,0.0403
549,0.0394
550,0.0397
551,0.0402
552,0.0407
553,0.0395
554,0.0406
555,0.0388
556,0.0393
557,0.0399
558,0.0408
559,0.0406
560,0.0381
561,0.0390
562,0.0400
563,0.0403
564,0.0395
565,0.0402
566,0.0398
567,0.0394
568,0.0401
569,0.0418
570,0.0410
571,0.0416
572,0.0403
573,0.0402
574,0.0403
575,0.0393
576,0.0410
577,0.0399
578,0.0385
579,0.0409
580,0.0403
581,0.0385
582,0.0395
583,0.0373
584,0.0384
585,0.0388
586,0.0377
587,0.0380
588,0.0372
589,0.0372
590,0.0381
591,0.0381
592,0.0373
593,0.0379
594,0.0374
595,0.0366
596,0.0377
597,0.0359
598,0.0365
599,0.0376
600,0.0361
601,0.0359
602,0.0370
603,0.0370
604,0.0364
605,0.0360
606,0.0364
607,0.0370
608,0.0367
609,0.0365
610,0.0365
611,0.0361
612,0.0374
613,0.0363
614,0.0363
615,0.0358
616,0.0363
617,0.0350
618,0.0359
619,0.0360
620,0.0368
621,0.0367
622,0.0380
623,0.0369
624,0.0368
625,0.0358
626,0.0365
627,0.0355
628,0.0366
629,0.0363
630,0.0376
631,0.0372
632,0.0359
633,0.0363
634,0.0357
635,0.0347
636,0.0360
637,0.0360
638,0.0357
639,0.0352
640,0.0364
641,0.0364
642,0.0350
643,0.0359
644,0.0353
645,0.0359
646,0.0356
647,0.0349
648,0.0356
649,0.0355
650,0.0351
651,0.0345
652,0.0342
653,0.0343
654,0.0337
655,0.0343
656,0.0334
657,0.0333
658,0.0337
659,0.0343
660,0.0329
661,0.0327
662,0.0324
663,0.0329
664,0.0328
665,0.0331
666,0.0316
667,0.0327
668,0.0325
669,0.0326
670,0.0329
671,0.0332
672,0.0323
673,0.0321
674,0.0323
675,0.0332
676,0.0331
677,0.0319
678,0.0322
679,0.0316
680,0.0320
681,0.0318
682,0.0316
683,0.0323
684,0.0326
685,0.0322
686,0.0317
687,0.0319
688,0.0328
689,0.0339
690,0.0326
691,0.0321
692,0.0321
693,0.0329
694,0.0321
695,0.0327
696,0.0322
697,0.0319
698,0.0317
699,0.0320
700,0.0322
701,0.0327
702,0.0325
703,0.0318
704,0.0312
705,0.0310
706,0.0319
707,0.0321
708,0.0325
709,0.0337
710,0.0320
711,0.0329
712,0.0301
713,0.0313
714,0.0310
715,0.0315
716,0.0313
717,0.0317
718,0.0308
719,0.0305
720,0.0301
721,0.0294
722,0.0283
723,0.0293
724,0.0290
725,0.0286
726,0.0283
727,0.0290
728,0.0284
729,0.0278
730,0.0276
731,0.0276
732,0.0285
733,0.0270
734,0.0281
735,0.0272
736,0.0286
737,0.0273
738,0.0288
739,0.0274
740,0.0266
741,0.0273
742,0.0272
743,0.0268
744,0.0279
745,0.0272
746,0.0267
747,0.0269
748,0.0283
749,0.0267
750,0.0257
751,0.0272
752,0.0274
753,0.0269
754,0.0281
755,0.0281
756,0.0277
757,0.0275
758,0.0272
759,0.0276
760,0.0277
761,0.0286
762,0.0265
763,0.0273
764,0.0288
765,0.0275
766,0.0267
767,0.0268
768,0.0277
769,0.0268
770,0.0268
771,0.0271
772,0.0262
773,0.0267
774,0.0273
775,0.0269
776,0.0276
777,0.0260
778,0.0265
779,0.0281
780,0.0256
781,0.0274
782,0.0268
783,0.0271
784,0.0261
785,0.0267
786,0.0264
787,0.0273
788,0.0263
789,0.0266
790,0.0262
791,0.0259
792,0.0254
793,0.0258
794,0.0265
795,0.0260
796,0.0258
797,0.0273
798,0.0265
799,0.0261
800,0.0274
801,0.0275
802,0.0270
803,0.0281
804,0.0273
805,0.0272
806,0.0267
807,0.0285
808,0.0291
809,0.0279
810,0.0298
811,0.0287
812,0.0286
813,0.0294
814,0.0274
815,0.0280
816,0.0289
817,0.0289
818,0.0293
819,0.0299
820,0.0301
821,0.0301
822,0.0301
823,0.0265
824,0.0284
825,0.0284
826,0.0288
827,0.0288
828,0.0274
829,0.0276
830,0.0280
831,0.0297
832,0.0272
833,0.0263
834,0.0257
835,0.0269
836,0.0272
837,0.0264
838,0.0253
839,0.0252
840,0.0232
841,0.0252
842,0.0248
843,0.0243
844,0.0244
845,0.0238
846,0.0226
847,0.0236
848,0.0236
849,0.0236
850,0.0236
851,0.0239
852,0.0248
853,0.0238
854,0.0239
855,0.0243
856,0.0231
857,0.0232
858,0.0228
859,0.0229
860,0.0231
861,0.0224
862,0.0236
863,0.0242
864,0.0224
865,0.0225
866,0.0230
867,0.0235
868,0.0224
869,0.0223
870,0.0226
871,0.0208
872,0.0231
873,0.0217
874,0.0224
875,0.0209
876,0.0233
877,0.0206
878,0.0210
879,0.0215
880,0.0213
881,0.0214
882,0.0223
883,0.0220
884,0.0223
885,0.0220
886,0.0246
887,0.0244
888,0.0221
889,0.0235
890,0.0258
891,0.0242
892,0.0237
893,0.0261
894,0.0260
895,0.0273
896,0.0255
897,0.0265
898,0.0259
899,0.0258
900,0.0290
901,0.0302
902,0.0258
903,0.0267
904,0.0319
905,0.0280
906,0.0263
907,0.0296
908,0.0312
909,0.0289
910,0.0297
911,0.0268
912,0.0295
913,0.0291
914,0.0274
915,0.0259
916,0.0273
917,0.0262
918,0.0245
919,0.0228
920,0.0249
921,0.0210
922,0.0214
923,0.0205
924,0.0202
925,0.0205
926,0.0196
927,0.0204
928,0.0186
929,0.0204
930,0.0169
931,0.0151
932,0.0148
933,0.0133
934,0.0137
935,0.0119
936,0.0124
937,0.0082
938,0.0092
939,0.0066
940,0.0059
941,0.0048
942,0.0047
943,0.0043
944,0.0058
945,0.0050
946,0.0053
947,0.0081
