382,NaN
383,1.0000
384,1.0000
385,1.0000
386,0.0000
387,0.1067
388,0.1457
389,0.0822
390,0.0000
391,0.0070
392,0.1822
393,0.1263
394,0.0000
395,0.0000
396,0.2124
397,0.0737
398,0.0095
399,0.0595
400,0.0394
401,0.1597
402,0.0000
403,0.1931
404,0.1049
405,0.0544
406,0.0659
407,0.0333
408,0.0757
409,0.0723
410,0.0971
411,0.0559
412,0.1092
413,0.0579
414,0.1142
415,0.0743
416,0.0364
417,0.0996
418,0.0472
419,0.0766
420,0.0259
421,0.0732
422,0.0017
423,0.0845
424,0.0771
425,0.0329
426,0.0995
427,0.0288
428,0.0617
429,0.0159
430,0.0714
431,0.0875
432,0.0593
433,0.0412
434,0.0445
435,0.0462
436,0.0889
437,0.0979
438,0.0683
439,0.0348
440,0.0816
441,0.0726
442,0.0721
443,0.0894
444,0.0461
445,0.0699
446,0.0572
447,0.0874
448,0.0438
449,0.0714
450,0.0363
451,0.0476
452,0.0554
453,0.0661
454,0.0671
455,0.0630
456,0.0537
457,0.0509
458,0.0599
459,0.0634
460,0.0572
461,0.0577
462,0.0657
463,0.0687
464,0.0498
465,0.0475
466,0.0552
467,0.0530
468,0.0645
469,0.0700
470,0.0578
471,0.0550
472,0.0680
473,0.0700
474,0.0607
475,0.0652
476,0.0720
477,0.0779
478,0.0753
479,0.0765
480,0.0766
481,0.0765
482,0.0769
483,0.0778
484,0.0773
485,0.0818
486,0.0705
487,0.0863
488,0.0777
489,0.0767
490,0.0794
491,0.0822
492,0.0769
493,0.0852
494,0.0816
495,0.0818
496,0.0794
497,0.0772
498,0.0786
499,0.0762
500,0.0737
501,0.0692
502,0.0782
503,0.0665
504,0.0678
505,0.0677
506,0.0709
507,0.0650
508,0.0644
509,0.0628
510,0.0606
511,0.0566
512,0.0561
513,0.0572
514,0.0544
515,0.0507
516,0.0513
517,0.0521
518,0.0503
519,0.0481
520,0.0487
521,0.0440
522,0.0444
523,0.0444
524,0.0454
525,0.0441
526,0.0449
527,0.0429
528,0.0416
529,0.0419
530,0.0400
531,0.0396
532,0.0411
533,0.0390
534,0.0416
535,0.0410
536,0.0409
537,0.0425
538,0.0402
539,0.0411
540,0.0399
541,0.0409
542,0.0395
543,0.0404
544,0.0395
545,0.0396
546,0.0395
547,0.0419
548,0.0400
549,0.0378
550,0.0410
551,0.0400
552,0.0390
553,0.0397
554,0.0388
555,0.0401
556,0.0393
557,0.0396
558,0.0384
559,0.0413
560,0.0387
561,0.0394
562,0.0399
563,0.0403
564,0.0400
565,0.0392
566,0.0379
567,0.0399
568,0.0397
569,0.0406
570,0.0399
571,0.0412
572,0.0415
573,0.0401
574,0.0398
575,0.0395
576,0.0410
577,0.0405
578,0.0397
579,0.0406
580,0.0404
581,0.0406
582,0.0397
583,0.0380
584,0.0398
585,0.0388
586,0.0383
587,0.0383
588,0.0384
589,0.0374
590,0.0383
591,0.0375
592,0.0363
593,0.0379
594,0.0368
595,0.0366
596,0.0376
597,0.0364
598,0.0375
599,0.0368
600,0.0369
601,0.0359
602,0.0360
603,0.0359
604,0.0361
605,0.0355
606,0.0359
607,0.0371
608,0.0360
609,0.0365
610,0.0362
611,0.0364
612,0.0357
613,0.0369
614,0.0367
615,0.0362
616,0.0357
617,0.0363
618,0.0359
619,0.0367
620,0.0368
621,0.0359
622,0.0372
623,0.0372
624,0.0369
625,0.0368
626,0.0352
627,0.0360
628,0.0372
629,0.0376
630,0.0364
631,0.0372
632,0.0356
633,0.0366
634,0.0361
635,0.0351
636,0.0360
637,0.0370
638,0.0355
639,0.0353
640,0.0367
641,0.0355
642,0.0356
643,0.0349
644,0.0354
645,0.0350
646,0.0353
647,0.0350
648,0.0355
649,0.0352
650,0.0343
651,0.0341
652,0.0350
653,0.0340
654,0.0333
655,0.0347
656,0.0332
657,0.0336
658,0.0337
659,0.0328
660,0.0333
661,0.0326
662,0.0330
663,0.0332
664,0.0333
665,0.0333
666,0.0325
667,0.0337
668,0.0332
669,0.0323
670,0.0331
671,0.0337
672,0.0325
673,0.0331
674,0.0313
675,0.0331
676,0.0329
677,0.0321
678,0.0320
679,0.0316
680,0.0317
681,0.0325
682,0.0322
683,0.0318
684,0.0324
685,0.0325
686,0.0321
687,0.0311
688,0.0320
689,0.0332
690,0.0325
691,0.0321
692,0.0324
693,0.0325
694,0.0319
695,0.0325
696,0.0325
697,0.0325
698,0.0329
699,0.0324
700,0.0329
701,0.0325
702,0.0333
703,0.0326
704,0.0319
705,0.0315
706,0.0328
707,0.0322
708,0.0322
709,0.0319
710,0.0319
711,0.0314
712,0.0307
713,0.0314
714,0.0305
715,0.0312
716,0.0316
717,0.0309
718,0.0303
719,0.0303
720,0.0293
721,0.0294
722,0.0285
723,0.0296
724,0.0286
725,0.0284
726,0.0291
727,0.0277
728,0.0280
729,0.0284
730,0.0277
731,0.0279
732,0.0280
733,0.0276
734,0.0278
735,0.0278
736,0.0277
737,0.0279
738,0.0278
739,0.0275
740,0.0265
741,0.0271
742,0.0272
743,0.0264
744,0.0273
745,0.0273
746,0.0277
747,0.0272
748,0.0281
749,0.0259
750,0.0268
751,0.0275
752,0.0267
753,0.0283
754,0.0281
755,0.0280
756,0.0273
757,0.0273
758,0.0283
759,0.0283
760,0.0281
761,0.0280
762,0.0274
763,0.0285
764,0.0265
765,0.0288
766,0.0279
767,0.0263
768,0.0276
769,0.0265
770,0.0262
771,0.0275
772,0.0266
773,0.0265
774,0.0283
775,0.0262
776,0.0273
777,0.0272
778,0.0265
779,0.0279
780,0.0265
781,0.0265
782,0.0274
783,0.0266
784,0.0265
785,0.0262
786,0.0268
787,0.0272
788,0.0264
789,0.0258
790,0.0264
791,0.0250
792,0.0266
793,0.0252
794,0.0264
795,0.0263
796,0.0261
797,0.0269
798,0.0258
799,0.0265
800,0.0268
801,0.0254
802,0.0275
803,0.0280
804,0.0270
805,0.0271
806,0.0271
807,0.0284
808,0.0295
809,0.0293
810,0.0298
811,0.0284
812,0.0285
813,0.0290
814,0.0280
815,0.0281
816,0.0285
817,0.0291
818,0.0299
819,0.0297
820,0.0302
821,0.0304
822,0.0289
823,0.0291
824,0.0284
825,0.0302
826,0.0278
827,0.0287
828,0.0273
829,0.0285
830,0.0281
831,0.0286
832,0.0266
833,0.0274
834,0.0276
835,0.0276
836,0.0264
837,0.0265
838,0.0259
839,0.0249
840,0.0247
841,0.0244
842,0.0252
843,0.0245
844,0.0252
845,0.0251
846,0.0256
847,0.0234
848,0.0239
849,0.0221
850,0.0237
851,0.0240
852,0.0236
853,0.0237
854,0.0240
855,0.0236
856,0.0230
857,0.0242
858,0.0237
859,0.0222
860,0.0211
861,0.0243
862,0.0233
863,0.0232
864,0.0218
865,0.0210
866,0.0239
867,0.0240
868,0.0225
869,0.0216
870,0.0216
871,0.0221
872,0.0221
873,0.0201
874,0.0221
875,0.0226
876,0.0229
877,0.0223
878,0.0209
879,0.0238
880,0.0217
881,0.0213
882,0.0232
883,0.0233
884,0.0218
885,0.0223
886,0.0223
887,0.0231
888,0.0226
889,0.0245
890,0.0256
891,0.0237
892,0.0250
893,0.0260
894,0.0260
895,0.0253
896,0.0270
897,0.0269
898,0.0277
899,0.0275
900,0.0293
901,0.0289
902,0.0267
903,0.0255
904,0.0281
905,0.0290
906,0.0291
907,0.0335
908,0.0299
909,0.0287
910,0.0294
911,0.0297
912,0.0288
913,0.0260
914,0.0275
915,0.0264
916,0.0281
917,0.0260
918,0.0257
919,0.0230
920,0.0264
921,0.0209
922,0.0209
923,0.0207
924,0.0217
925,0.0226
926,0.0208
927,0.0190
928,0.0190
929,0.0175
930,0.0179
931,0.0143
932,0.0149
933,0.0136
934,0.0138
935,0.0125
936,0.0104
937,0.0082
938,0.0086
939,0.0065
940,0.0065
941,0.0069
942,0.0073
943,0.0031
944,0.0049
945,0.0062
946,0.0020
947,0.0074
