382,NaN
383,1.0000
384,0.0000
385,1.0000
386,0.5059
387,0.2212
388,0.1551
389,0.0273
390,0.0765
391,0.1063
392,0.2832
393,0.1231
394,0.1032
395,0.0154
396,0.2399
397,0.0537
398,0.0767
399,0.1103
400,0.0835
401,0.2019
402,0.0000
403,0.0657
404,0.0945
405,0.0948
406,0.0153
407,0.0595
408,0.1028
409,0.0368
410,0.0633
411,0.1205
412,0.0682
413,0.0982
414,0.0622
415,0.0356
416,0.0813
417,0.0906
418,0.0922
419,0.0495
420,0.0856
421,0.0547
422,0.0610
423,0.0152
424,0.0503
425,0.0394
426,0.0768
427,0.0309
428,0.0563
429,0.0491
430,0.0713
431,0.0625
432,0.0400
433,0.0761
434,0.0503
435,0.0686
436,0.0733
437,0.0959
438,0.0801
439,0.0587
440,0.0963
441,0.0857
442,0.0633
443,0.0712
444,0.0844
445,0.0856
446,0.0478
447,0.0577
448,0.0453
449,0.0588
450,0.0608
451,0.0253
452,0.0559
453,0.0797
454,0.0531
455,0.0509
456,0.0564
457,0.0503
458,0.0562
459,0.0397
460,0.0581
461,0.0733
462,0.0544
463,0.0561
464,0.0574
465,0.0434
466,0.0500
467,0.0486
468,0.0627
469,0.0676
470,0.0579
471,0.0448
472,0.0670
473,0.0690
474,0.0666
475,0.0664
476,0.0588
477,0.0791
478,0.0733
479,0.0818
480,0.0802
481,0.0766
482,0.0709
483,0.0758
484,0.0819
485,0.0839
486,0.0794
487,0.0819
488,0.0841
489,0.0759
490,0.0817
491,0.0759
492,0.0812
493,0.0870
494,0.0803
495,0.0811
496,0.0808
497,0.0766
498,0.0764
499,0.0733
500,0.0782
501,0.0699
502,0.0758
503,0.0661
504,0.0688
505,0.0632
506,0.0671
507,0.0660
508,0.0638
509,0.0587
510,0.0603
511,0.0543
512,0.0546
513,0.0583
514,0.0556
515,0.0516
516,0.0523
517,0.0504
518,0.0468
519,0.0471
520,0.0510
521,0.0451
522,0.0460
523,0.0446
524,0.0446
525,0.0419
526,0.0438
527,0.0441
528,0.0442
529,0.0420
530,0.0410
531,0.0408
532,0.0398
533,0.0396
534,0.0418
535,0.0410
536,0.0412
537,0.0404
538,0.0405
539,0.0406
540,0.0404
541,0.0416
542,0.0390
543,0.0392
544,0.0394
545,0.0405
546,0.0421
547,0.0406
548,0.0394
549,0.0388
550,0.0394
551,0.0405
552,0.0404
553,0.0391
554,0.0403
555,0.0384
556,0.0386
557,0.0404
558,0.0401
559,0.0398
560,0.0385
561,0.0390
562,0.0404
563,0.0396
564,0.0405
565,0.0396
566,0.0384
567,0.0411
568,0.0383
569,0.0407
570,0.0404
571,0.0406
572,0.0392
573,0.0402
574,0.0394
575,0.0391
576,0.0391
577,0.0398
578,0.0394
579,0.0395
580,0.0412
581,0.0389
582,0.0387
583,0.0390
584,0.0375
585,0.0391
586,0.0387
587,0.0375
588,0.0385
589,0.0385
590,0.0372
591,0.0373
592,0.0374
593,0.0371
594,0.0375
595,0.0366
596,0.0359
597,0.0365
598,0.0369
599,0.0372
600,0.0362
601,0.0358
602,0.0364
603,0.0356
604,0.0371
605,0.0362
606,0.0365
607,0.0361
608,0.0373
609,0.0369
610,0.0354
611,0.0362
612,0.0373
613,0.0362
614,0.0363
615,0.0377
616,0.0371
617,0.0353
618,0.0363
619,0.0365
620,0.0363
621,0.0362
622,0.0370
623,0.0368
624,0.0369
625,0.0370
626,0.0374
627,0.0368
628,0.0368
629,0.0371
630,0.0369
631,0.0372
632,0.0357
633,0.0360
634,0.0353
635,0.0353
636,0.0360
637,0.0363
638,0.0349
639,0.0362
640,0.0353
641,0.0364
642,0.0357
643,0.0355
644,0.0351
645,0.0347
646,0.0351
647,0.0356
648,0.0352
649,0.0341
650,0.0347
651,0.0347
652,0.0347
653,0.0337
654,0.0339
655,0.0341
656,0.0339
657,0.0328
658,0.0333
659,0.0323
660,0.0334
661,0.0323
662,0.0328
663,0.0335
664,0.0324
665,0.0330
666,0.0318
667,0.0336
668,0.0323
669,0.0321
670,0.0331
671,0.0333
672,0.0322
673,0.0326
674,0.0322
675,0.0328
676,0.0332
677,0.0319
678,0.0326
679,0.0309
680,0.0322
681,0.0324
682,0.0328
683,0.0326
684,0.0325
685,0.0318
686,0.0312
687,0.0320
688,0.0326
689,0.0328
690,0.0321
691,0.0318
692,0.0337
693,0.0318
694,0.0328
695,0.0330
696,0.0321
697,0.0328
698,0.0320
699,0.0320
700,0.0332
701,0.0326
702,0.0321
703,0.0322
704,0.0318
705,0.0316
706,0.0315
707,0.0320
708,0.0319
709,0.0325
710,0.0319
711,0.0322
712,0.0314
713,0.0313
714,0.0311
715,0.0322
716,0.0314
717,0.0313
718,0.0310
719,0.0303
720,0.0299
721,0.0295
722,0.0288
723,0.0294
724,0.0283
725,0.0281
726,0.0283
727,0.0284
728,0.0282
729,0.0276
730,0.0281
731,0.0281
732,0.0289
733,0.0275
734,0.0279
735,0.0279
736,0.0277
737,0.0282
738,0.0271
739,0.0281
740,0.0269
741,0.0265
742,0.0272
743,0.0274
744,0.0270
745,0.0273
746,0.0272
747,0.0269
748,0.0279
749,0.0260
750,0.0270
751,0.0273
752,0.0279
753,0.0273
754,0.0278
755,0.0280
756,0.0279
757,0.0276
758,0.0268
759,0.0278
760,0.0277
761,0.0275
762,0.0270
763,0.0280
764,0.0269
765,0.0277
766,0.0275
767,0.0270
768,0.0284
769,0.0279
770,0.0268
771,0.0276
772,0.0264
773,0.0273
774,0.0269
775,0.0268
776,0.0274
777,0.0263
778,0.0264
779,0.0263
780,0.0259
781,0.0268
782,0.0257
783,0.0265
784,0.0256
785,0.0262
786,0.0262
787,0.0266
788,0.0269
789,0.0257
790,0.0257
791,0.0250
792,0.0257
793,0.0253
794,0.0261
795,0.0259
796,0.0264
797,0.0272
798,0.0262
799,0.0261
800,0.0268
801,0.0264
802,0.0261
803,0.0275
804,0.0270
805,0.0268
806,0.0276
807,0.0276
808,0.0291
809,0.0278
810,0.0292
811,0.0285
812,0.0287
813,0.0292
814,0.0275
815,0.0283
816,0.0291
817,0.0295
818,0.0290
819,0.0302
820,0.0311
821,0.0309
822,0.0292
823,0.0308
824,0.0279
825,0.0294
826,0.0301
827,0.0266
828,0.0288
829,0.0273
830,0.0280
831,0.0288
832,0.0281
833,0.0272
834,0.0269
835,0.0272
836,0.0267
837,0.0263
838,0.0254
839,0.0257
840,0.0251
841,0.0241
842,0.0247
843,0.0237
844,0.0242
845,0.0251
846,0.0242
847,0.0237
848,0.0247
849,0.0226
850,0.0239
851,0.0241
852,0.0230
853,0.0239
854,0.0240
855,0.0241
856,0.0245
857,0.0233
858,0.0224
859,0.0236
860,0.0217
861,0.0225
862,0.0224
863,0.0244
864,0.0216
865,0.0228
866,0.0231
867,0.0234
868,0.0222
869,0.0210
870,0.0229
871,0.0227
872,0.0222
873,0.0224
874,0.0218
875,0.0216
876,0.0210
877,0.0226
878,0.0213
879,0.0223
880,0.0211
881,0.0194
882,0.0231
883,0.0236
884,0.0219
885,0.0230
886,0.0235
887,0.0236
888,0.0239
889,0.0226
890,0.0257
891,0.0231
892,0.0255
893,0.0262
894,0.0260
895,0.0267
896,0.0285
897,0.0277
898,0.0257
899,0.0262
900,0.0283
901,0.0288
902,0.0271
903,0.0273
904,0.0282
905,0.0274
906,0.0272
907,0.0314
908,0.0314
909,0.0297
910,0.0315
911,0.0273
912,0.0283
913,0.0258
914,0.0274
915,0.0255
916,0.0269
917,0.0246
918,0.0246
919,0.0237
920,0.0269
921,0.0196
922,0.0205
923,0.0223
924,0.0216
925,0.0202
926,0.0185
927,0.0180
928,0.0188
929,0.0201
930,0.0181
931,0.0150
932,0.0149
933,0.0131
934,0.0138
935,0.0128
936,0.0109
937,0.0081
938,0.0092
939,0.0069
940,0.0063
941,0.0065
942,0.0048
943,0.0041
944,0.0052
945,0.0063
946,0.0042
947,0.0139
