382,NaN
383,1.0000
384,1.0000
385,0.8279
386,0.0000
387,0.1455
388,0.2191
389,0.1138
390,0.0096
391,0.1399
392,0.2107
393,0.1443
394,0.0956
395,0.0000
396,0.0544
397,0.0110
398,0.0000
399,0.0318
400,0.0389
401,0.2758
402,0.0000
403,0.1135
404,0.0230
405,0.0637
406,0.0162
407,0.0210
408,0.0283
409,0.0679
410,0.0818
411,0.0911
412,0.1142
413,0.0711
414,0.0879
415,0.0035
416,0.0579
417,0.0978
418,0.0460
419,0.0000
420,0.0406
421,0.0536
422,0.0549
423,0.0995
424,0.0018
425,0.0458
426,0.0983
427,0.0227
428,0.0180
429,0.0366
430,0.0795
431,0.0339
432,0.0592
433,0.0676
434,0.0473
435,0.0442
436,0.0905
437,0.0910
438,0.0813
439,0.0528
440,0.0754
441,0.0985
442,0.0659
443,0.0932
444,0.0730
445,0.0755
446,0.0502
447,0.0774
448,0.0647
449,0.0694
450,0.0712
451,0.0483
452,0.0569
453,0.0601
454,0.0603
455,0.0574
456,0.0656
457,0.0529
458,0.0582
459,0.0536
460,0.0466
461,0.0691
462,0.0590
463,0.0721
464,0.0419
465,0.0441
466,0.0586
467,0.0541
468,0.0669
469,0.0659
470,0.0553
471,0.0527
472,0.0645
473,0.0614
474,0.0659
475,0.0777
476,0.0735
477,0.0864
478,0.0790
479,0.0850
480,0.0709
481,0.0680
482,0.0725
483,0.0844
484,0.0691
485,0.0854
486,0.0766
487,0.0889
488,0.0823
489,0.0811
490,0.0844
491,0.0802
492,0.0726
493,0.0870
494,0.0790
495,0.0801
496,0.0780
497,0.0799
498,0.0757
499,0.0763
500,0.0779
501,0.0749
502,0.0745
503,0.0703
504,0.0678
505,0.0622
506,0.0682
507,0.0713
508,0.0627
509,0.0625
510,0.0617
511,0.0581
512,0.0587
513,0.0527
514,0.0542
515,0.0534
516,0.0509
517,0.0513
518,0.0465
519,0.0466
520,0.0493
521,0.0445
522,0.0435
523,0.0441
524,0.0441
525,0.0429
526,0.0437
527,0.0444
528,0.0440
529,0.0424
530,0.0411
531,0.0414
532,0.0427
533,0.0402
534,0.0406
535,0.0409
536,0.0418
537,0.0418
538,0.0405
539,0.0408
540,0.0401
541,0.0410
542,0.0387
543,0.0396
544,0.0403
545,0.0398
546,0.0405
547,0.0412
548,0.0399
549,0.0394
550,0.0398
551,0.0391
552,0.0392
553,0.0410
554,0.0391
555,0.0406
556,0.0392
557,0.0386
558,0.0394
559,0.0392
560,0.0399
561,0.0395
562,0.0406
563,0.0381
564,0.0395
565,0.0404
566,0.0387
567,0.0384
568,0.0390
569,0.0397
570,0.0403
571,0.0413
572,0.0408
573,0.0405
574,0.0403
575,0.0393
576,0.0397
577,0.0398
578,0.0390
579,0.0402
580,0.0394
581,0.0391
582,0.0385
583,0.0393
584,0.0375
585,0.0396
586,0.0387
587,0.0382
588,0.0375
589,0.0376
590,0.0382
591,0.0378
592,0.0373
593,0.0375
594,0.0378
595,0.0366
596,0.0368
597,0.0372
598,0.0364
599,0.0378
600,0.0368
601,0.0371
602,0.0375
603,0.0371
604,0.0355
605,0.0360
606,0.0361
607,0.0372
608,0.0366
609,0.0369
610,0.0367
611,0.0363
612,0.0371
613,0.0375
614,0.0359
615,0.0368
616,0.0360
617,0.0355
618,0.0363
619,0.0370
620,0.0364
621,0.0354
622,0.0368
623,0.0369
624,0.0372
625,0.0373
626,0.0368
627,0.0372
628,0.0369
629,0.0370
630,0.0376
631,0.0379
632,0.0354
633,0.0358
634,0.0369
635,0.0353
636,0.0354
637,0.0357
638,0.0354
639,0.0366
640,0.0360
641,0.0371
642,0.0353
643,0.0358
644,0.0353
645,0.0357
646,0.0355
647,0.0352
648,0.0357
649,0.0341
650,0.0347
651,0.0348
652,0.0344
653,0.0343
654,0.0335
655,0.0347
656,0.0332
657,0.0323
658,0.0330
659,0.0331
660,0.0337
661,0.0326
662,0.0341
663,0.0332
664,0.0327
665,0.0326
666,0.0319
667,0.0329
668,0.0319
669,0.0331
670,0.0324
671,0.0327
672,0.0325
673,0.0328
674,0.0317
675,0.0325
676,0.0332
677,0.0316
678,0.0334
679,0.0319
680,0.0319
681,0.0320
682,0.0322
683,0.0316
684,0.0328
685,0.0318
686,0.0318
687,0.0318
688,0.0326
689,0.0332
690,0.0336
691,0.0329
692,0.0325
693,0.0320
694,0.0331
695,0.0322
696,0.0321
697,0.0334
698,0.0319
699,0.0323
700,0.0333
701,0.0327
702,0.0326
703,0.0328
704,0.0320
705,0.0314
706,0.0318
707,0.0313
708,0.0323
709,0.0323
710,0.0315
711,0.0322
712,0.0311
713,0.0313
714,0.0311
715,0.0316
716,0.0308
717,0.0302
718,0.0301
719,0.0314
720,0.0301
721,0.0295
722,0.0294
723,0.0289
724,0.0294
725,0.0295
726,0.0287
727,0.0290
728,0.0289
729,0.0277
730,0.0285
731,0.0279
732,0.0284
733,0.0272
734,0.0282
735,0.0282
736,0.0280
737,0.0282
738,0.0275
739,0.0270
740,0.0270
741,0.0269
742,0.0263
743,0.0265
744,0.0280
745,0.0270
746,0.0273
747,0.0270
748,0.0280
749,0.0263
750,0.0265
751,0.0271
752,0.0271
753,0.0275
754,0.0283
755,0.0280
756,0.0272
757,0.0284
758,0.0277
759,0.0280
760,0.0285
761,0.0269
762,0.0280
763,0.0275
764,0.0278
765,0.0274
766,0.0279
767,0.0269
768,0.0276
769,0.0272
770,0.0269
771,0.0266
772,0.0270
773,0.0263
774,0.0270
775,0.0263
776,0.0282
777,0.0269
778,0.0268
779,0.0271
780,0.0261
781,0.0274
782,0.0268
783,0.0260
784,0.0259
785,0.0272
786,0.0258
787,0.0274
788,0.0273
789,0.0262
790,0.0261
791,0.0255
792,0.0262
793,0.0259
794,0.0261
795,0.0271
796,0.0266
797,0.0267
798,0.0261
799,0.0254
800,0.0274
801,0.0268
802,0.0266
803,0.0272
804,0.0267
805,0.0267
806,0.0279
807,0.0283
808,0.0280
809,0.0282
810,0.0285
811,0.0273
812,0.0289
813,0.0278
814,0.0287
815,0.0299
816,0.0292
817,0.0289
818,0.0284
819,0.0303
820,0.0304
821,0.0291
822,0.0285
823,0.0287
824,0.0290
825,0.0284
826,0.0297
827,0.0281
828,0.0288
829,0.0286
830,0.0271
831,0.0278
832,0.0279
833,0.0267
834,0.0253
835,0.0263
836,0.0269
837,0.0264
838,0.0254
839,0.0245
840,0.0238
841,0.0245
842,0.0254
843,0.0241
844,0.0248
845,0.0243
846,0.0239
847,0.0232
848,0.0236
849,0.0236
850,0.0242
851,0.0241
852,0.0234
853,0.0230
854,0.0242
855,0.0247
856,0.0231
857,0.0234
858,0.0229
859,0.0231
860,0.0228
861,0.0230
862,0.0228
863,0.0232
864,0.0235
865,0.0224
866,0.0229
867,0.0232
868,0.0213
869,0.0215
870,0.0220
871,0.0213
872,0.0214
873,0.0215
874,0.0218
875,0.0199
876,0.0223
877,0.0225
878,0.0209
879,0.0214
880,0.0227
881,0.0202
882,0.0213
883,0.0226
884,0.0216
885,0.0236
886,0.0233
887,0.0242
888,0.0224
889,0.0254
890,0.0242
891,0.0233
892,0.0235
893,0.0263
894,0.0260
895,0.0251
896,0.0278
897,0.0266
898,0.0253
899,0.0274
900,0.0284
901,0.0286
902,0.0270
903,0.0270
904,0.0281
905,0.0289
906,0.0277
907,0.0287
908,0.0327
909,0.0301
910,0.0301
911,0.0276
912,0.0292
913,0.0264
914,0.0273
915,0.0274
916,0.0300
917,0.0248
918,0.0254
919,0.0225
920,0.0243
921,0.0200
922,0.0217
923,0.0215
924,0.0215
925,0.0223
926,0.0191
927,0.0198
928,0.0194
929,0.0185
930,0.0179
931,0.0157
932,0.0163
933,0.0163
934,0.0137
935,0.0108
936,0.0099
937,0.0083
938,0.0090
939,0.0077
940,0.0065
941,0.0047
942,0.0064
943,0.0024
944,0.0047
945,0.0057
946,0.0026
947,0.0086
