382,NaN
383,1.0000
384,1.0000
385,0.0000
386,0.0000
387,0.1954
388,0.1471
389,0.1209
390,0.0000
391,0.0923
392,0.2359
393,0.1829
394,0.0000
395,0.0279
396,0.0468
397,0.0343
398,0.0485
399,0.0914
400,0.0941
401,0.1967
402,0.0000
403,0.1678
404,0.0432
405,0.0831
406,0.0762
407,0.1045
408,0.0605
409,0.0664
410,0.1498
411,0.0376
412,0.0709
413,0.0604
414,0.0775
415,0.0318
416,0.0534
417,0.0906
418,0.0220
419,0.1156
420,0.0511
421,0.0412
422,0.0000
423,0.0492
424,0.0469
425,0.0493
426,0.0652
427,0.0259
428,0.0469
429,0.0492
430,0.0667
431,0.1025
432,0.0698
433,0.0471
434,0.0505
435,0.0505
436,0.0301
437,0.0898
438,0.0797
439,0.0668
440,0.0543
441,0.0684
442,0.0602
443,0.0861
444,0.0770
445,0.0671
446,0.0726
447,0.0592
448,0.0327
449,0.0734
450,0.0743
451,0.0734
452,0.0498
453,0.0661
454,0.0673
455,0.0771
456,0.0598
457,0.0540
458,0.0644
459,0.0620
460,0.0513
461,0.0507
462,0.0508
463,0.0580
464,0.0482
465,0.0540
466,0.0574
467,0.0447
468,0.0695
469,0.0721
470,0.0602
471,0.0446
472,0.0636
473,0.0672
474,0.0629
475,0.0681
476,0.0747
477,0.0759
478,0.0750
479,0.0827
480,0.0737
481,0.0693
482,0.0695
483,0.0830
484,0.0774
485,0.0882
486,0.0751
487,0.0887
488,0.0754
489,0.0731
490,0.0773
491,0.0815
492,0.0823
493,0.0853
494,0.0850
495,0.0833
496,0.0818
497,0.0798
498,0.0773
499,0.0765
500,0.0779
501,0.0725
502,0.0712
503,0.0649
504,0.0716
505,0.0613
506,0.0670
507,0.0677
508,0.0611
509,0.0615
510,0.0642
511,0.0548
512,0.0556
513,0.0548
514,0.0531
515,0.0541
516,0.0519
517,0.0530
518,0.0460
519,0.0488
520,0.0499
521,0.0468
522,0.0454
523,0.0437
524,0.0445
525,0.0427
526,0.0441
527,0.0430
528,0.0440
529,0.0418
530,0.0429
531,0.0395
532,0.0430
533,0.0393
534,0.0418
535,0.0403
536,0.0404
537,0.0394
538,0.0383
539,0.0397
540,0.0403
541,0.0390
542,0.0382
543,0.0391
544,0.0395
545,0.0389
546,0.0406
547,0.0400
548,0.0402
549,0.0393
550,0.0405
551,0.0390
552,0.0415
553,0.0406
554,0.0404
555,0.0402
556,0.0408
557,0.0396
558,0.0392
559,0.0398
560,0.0397
561,0.0399
562,0.0405
563,0.0408
564,0.0406
565,0.0391
566,0.0383
567,0.0394
568,0.0393
569,0.0401
570,0.0408
571,0.0408
572,0.0399
573,0.0407
574,0.0402
575,0.0396
576,0.0407
577,0.0398
578,0.0384
579,0.0394
580,0.0398
581,0.0396
582,0.0382
583,0.0386
584,0.0379
585,0.0378
586,0.0388
587,0.0393
588,0.0384
589,0.0374
590,0.0369
591,0.0375
592,0.0369
593,0.0366
594,0.0369
595,0.0366
596,0.0353
597,0.0363
598,0.0364
599,0.0365
600,0.0368
601,0.0374
602,0.0376
603,0.0361
604,0.0367
605,0.0360
606,0.0353
607,0.0368
608,0.0361
609,0.0362
610,0.0364
611,0.0366
612,0.0367
613,0.0366
614,0.0365
615,0.0356
616,0.0355
617,0.0354
618,0.0365
619,0.0374
620,0.0367
621,0.0361
622,0.0368
623,0.0369
624,0.0374
625,0.0361
626,0.0363
627,0.0371
628,0.0368
629,0.0364
630,0.0368
631,0.0370
632,0.0363
633,0.0362
634,0.0357
635,0.0359
636,0.0361
637,0.0360
638,0.0353
639,0.0359
640,0.0357
641,0.0364
642,0.0361
643,0.0348
644,0.0356
645,0.0358
646,0.0357
647,0.0353
648,0.0348
649,0.0340
650,0.0352
651,0.0354
652,0.0349
653,0.0344
654,0.0331
655,0.0333
656,0.0334
657,0.0333
658,0.0338
659,0.0324
660,0.0328
661,0.0328
662,0.0340
663,0.0335
664,0.0325
665,0.0331
666,0.0321
667,0.0331
668,0.0327
669,0.0324
670,0.0337
671,0.0330
672,0.0325
673,0.0318
674,0.0315
675,0.0334
676,0.0320
677,0.0323
678,0.0324
679,0.0315
680,0.0315
681,0.0331
682,0.0317
683,0.0321
684,0.0319
685,0.0322
686,0.0327
687,0.0320
688,0.0324
689,0.0332
690,0.0323
691,0.0326
692,0.0320
693,0.0323
694,0.0321
695,0.0318
696,0.0326
697,0.0329
698,0.0330
699,0.0328
700,0.0329
701,0.0330
702,0.0321
703,0.0318
704,0.0314
705,0.0314
706,0.0324
707,0.0319
708,0.0320
709,0.0326
710,0.0310
711,0.0321
712,0.0312
713,0.0321
714,0.0315
715,0.0313
716,0.0317
717,0.0309
718,0.0308
719,0.0311
720,0.0300
721,0.0290
722,0.0304
723,0.0296
724,0.0290
725,0.0287
726,0.0286
727,0.0288
728,0.0277
729,0.0276
730,0.0281
731,0.0286
732,0.0281
733,0.0277
734,0.0275
735,0.0283
736,0.0272
737,0.0277
738,0.0280
739,0.0264
740,0.0270
741,0.0274
742,0.0265
743,0.0257
744,0.0270
745,0.0272
746,0.0267
747,0.0271
748,0.0274
749,0.0268
750,0.0265
751,0.0270
752,0.0279
753,0.0279
754,0.0275
755,0.0278
756,0.0269
757,0.0275
758,0.0267
759,0.0279
760,0.0272
761,0.0284
762,0.0275
763,0.0284
764,0.0271
765,0.0273
766,0.0267
767,0.0268
768,0.0268
769,0.0268
770,0.0267
771,0.0272
772,0.0265
773,0.0271
774,0.0272
775,0.0269
776,0.0266
777,0.0269
778,0.0266
779,0.0277
780,0.0263
781,0.0269
782,0.0273
783,0.0270
784,0.0272
785,0.0270
786,0.0272
787,0.0271
788,0.0271
789,0.0271
790,0.0278
791,0.0252
792,0.0257
793,0.0259
794,0.0257
795,0.0251
796,0.0266
797,0.0273
798,0.0259
799,0.0263
800,0.0268
801,0.0265
802,0.0266
803,0.0275
804,0.0282
805,0.0267
806,0.0271
807,0.0281
808,0.0288
809,0.0289
810,0.0297
811,0.0289
812,0.0274
813,0.0283
814,0.0288
815,0.0294
816,0.0294
817,0.0295
818,0.0286
819,0.0309
820,0.0301
821,0.0293
822,0.0302
823,0.0276
824,0.0290
825,0.0293
826,0.0282
827,0.0293
828,0.0290
829,0.0272
830,0.0281
831,0.0282
832,0.0272
833,0.0269
834,0.0264
835,0.0269
836,0.0265
837,0.0253
838,0.0252
839,0.0247
840,0.0243
841,0.0257
842,0.0247
843,0.0230
844,0.0242
845,0.0243
846,0.0230
847,0.0229
848,0.0240
849,0.0232
850,0.0244
851,0.0242
852,0.0232
853,0.0232
854,0.0240
855,0.0226
856,0.0219
857,0.0248
858,0.0237
859,0.0217
860,0.0235
861,0.0229
862,0.0240
863,0.0226
864,0.0230
865,0.0221
866,0.0227
867,0.0221
868,0.0215
869,0.0224
870,0.0218
871,0.0211
872,0.0225
873,0.0221
874,0.0214
875,0.0217
876,0.0202
877,0.0223
878,0.0213
879,0.0231
880,0.0223
881,0.0200
882,0.0219
883,0.0229
884,0.0224
885,0.0247
886,0.0239
887,0.0247
888,0.0220
889,0.0246
890,0.0266
891,0.0236
892,0.0248
893,0.0265
894,0.0255
895,0.0272
896,0.0270
897,0.0257
898,0.0274
899,0.0251
900,0.0283
901,0.0293
902,0.0267
903,0.0281
904,0.0302
905,0.0277
906,0.0287
907,0.0306
908,0.0305
909,0.0297
910,0.0273
911,0.0262
912,0.0298
913,0.0270
914,0.0272
915,0.0283
916,0.0281
917,0.0260
918,0.0231
919,0.0242
920,0.0252
921,0.0205
922,0.0218
923,0.0192
924,0.0224
925,0.0195
926,0.0183
927,0.0182
928,0.0190
929,0.0194
930,0.0188
931,0.0154
932,0.0153
933,0.0144
934,0.0139
935,0.0113
936,0.0093
937,0.0092
938,0.0092
939,0.0074
940,0.0058
941,0.0051
942,0.0078
943,0.0042
944,0.0051
945,0.0062
946,0.0038
947,0.0151
